# File BD+281885
# Wavelength [nm]    Normalized Amplitude
   349.70         1.5521
   349.84         1.5194
   349.98         1.4957
   350.12         1.4814
   350.26         1.4760
   350.40         1.4783
   350.54         1.4863
   350.68         1.4977
   350.82         1.5093
   350.96         1.5179
   351.10         1.5212
   351.24         1.5179
   351.38         1.5093
   351.52         1.4977
   351.66         1.4863
   351.80         1.4783
   351.94         1.4760
   352.08         1.4814
   352.22         1.4957
   352.36         1.5194
   352.50         1.5521
   352.64         1.5936
   352.78         1.6433
   352.92         1.6988
   353.06         1.7568
   353.20         1.8129
   353.34         1.8633
   353.48         1.9064
   353.62         1.9409
   353.76         1.9639
   353.90         1.9735
   354.04         1.9701
   354.18         1.9545
   354.32         1.9273
   354.46         1.8891
   354.60         1.8413
   354.74         1.7862
   354.88         1.7265
   355.02         1.6660
   355.16         1.6080
   355.30         1.5549
   355.44         1.5077
   355.58         1.4665
   355.72         1.4311
   355.86         1.4023
   356.00         1.3809
   356.14         1.3667
   356.28         1.3577
   356.42         1.3519
   356.56         1.3482
   356.70         1.3445
   356.84         1.3377
   356.98         1.3245
   357.12         1.3031
   357.26         1.2725
   357.40         1.2327
   357.54         1.1850
   357.68         1.1320
   357.82         1.0779
   357.96         1.0282
   358.10         0.9885
   358.24         0.9640
   358.38         0.9596
   358.52         0.9795
   358.66         1.0255
   358.80         1.0972
   358.94         1.1911
   359.08         1.3000
   359.22         1.4149
   359.36         1.5280
   359.50         1.6329
   359.64         1.7241
   359.78         1.7977
   359.92         1.8522
   360.06         1.8884
   360.20         1.9088
   360.34         1.9168
   360.48         1.9154
   360.62         1.9071
   360.76         1.8944
   360.90         1.8804
   361.04         1.8689
   361.18         1.8620
   361.32         1.8606
   361.46         1.8648
   361.60         1.8740
   361.74         1.8859
   361.88         1.8982
   362.02         1.9087
   362.16         1.9161
   362.30         1.9197
   362.44         1.9198
   362.58         1.9172
   362.72         1.9128
   362.86         1.9081
   363.00         1.9043
   363.14         1.9023
   363.28         1.9036
   363.42         1.9096
   363.56         1.9205
   363.70         1.9351
   363.84         1.9517
   363.98         1.9688
   364.12         1.9858
   364.26         2.0031
   364.40         2.0212
   364.54         2.0420
   364.68         2.0675
   364.82         2.1001
   364.96         2.1407
   365.10         2.1888
   365.24         2.2428
   365.38         2.3001
   365.52         2.3565
   365.66         2.4067
   365.80         2.4465
   365.94         2.4743
   366.08         2.4901
   366.22         2.4954
   366.36         2.4931
   366.50         2.4861
   366.64         2.4755
   366.78         2.4615
   366.92         2.4440
   367.06         2.4227
   367.20         2.3983
   367.34         2.3715
   367.48         2.3431
   367.62         2.3132
   367.76         2.2822
   367.90         2.2518
   368.04         2.2249
   368.18         2.2046
   368.32         2.1931
   368.46         2.1919
   368.60         2.2019
   368.74         2.2228
   368.88         2.2533
   369.02         2.2908
   369.16         2.3311
   369.30         2.3696
   369.44         2.4020
   369.58         2.4253
   369.72         2.4373
   369.86         2.4371
   370.00         2.4256
   370.14         2.4068
   370.28         2.3869
   370.42         2.3717
   370.56         2.3658
   370.70         2.3698
   370.84         2.3806
   370.98         2.3928
   371.12         2.4015
   371.26         2.4033
   371.40         2.3961
   371.54         2.3784
   371.68         2.3487
   371.82         2.3068
   371.96         2.2535
   372.10         2.1911
   372.24         2.1236
   372.38         2.0548
   372.52         1.9887
   372.66         1.9290
   372.80         1.8789
   372.94         1.8394
   373.08         1.8094
   373.22         1.7861
   373.36         1.7664
   373.50         1.7486
   373.64         1.7321
   373.78         1.7176
   373.92         1.7062
   374.06         1.6992
   374.20         1.6978
   374.34         1.7032
   374.48         1.7153
   374.62         1.7324
   374.76         1.7525
   374.90         1.7742
   375.04         1.7978
   375.18         1.8243
   375.32         1.8545
   375.46         1.8874
   375.60         1.9203
   375.74         1.9503
   375.88         1.9762
   376.02         1.9995
   376.16         2.0228
   376.30         2.0487
   376.44         2.0809
   376.58         2.1234
   376.72         2.1780
   376.86         2.2440
   377.00         2.3182
   377.14         2.3956
   377.28         2.4710
   377.42         2.5395
   377.56         2.5971
   377.70         2.6396
   377.84         2.6635
   377.98         2.6664
   378.12         2.6480
   378.26         2.6101
   378.40         2.5560
   378.54         2.4890
   378.68         2.4130
   378.82         2.3331
   378.96         2.2556
   379.10         2.1874
   379.24         2.1345
   379.38         2.1009
   379.52         2.0876
   379.66         2.0927
   379.80         2.1128
   379.94         2.1435
   380.08         2.1796
   380.22         2.2148
   380.36         2.2428
   380.50         2.2578
   380.64         2.2555
   380.78         2.2329
   380.92         2.1885
   381.06         2.1227
   381.20         2.0382
   381.34         1.9402
   381.48         1.8346
   381.62         1.7271
   381.76         1.6227
   381.90         1.5258
   382.04         1.4398
   382.18         1.3672
   382.32         1.3107
   382.46         1.2723
   382.60         1.2512
   382.74         1.2442
   382.88         1.2473
   383.02         1.2577
   383.16         1.2742
   383.30         1.2963
   383.44         1.3228
   383.58         1.3518
   383.72         1.3815
   383.86         1.4102
   384.00         1.4364
   384.14         1.4589
   384.28         1.4768
   384.42         1.4896
   384.56         1.4971
   384.70         1.4988
   384.84         1.4935
   384.98         1.4800
   385.12         1.4576
   385.26         1.4271
   385.40         1.3906
   385.54         1.3513
   385.68         1.3126
   385.82         1.2765
   385.96         1.2440
   386.10         1.2150
   386.24         1.1900
   386.38         1.1710
   386.52         1.1597
   386.66         1.1570
   386.80         1.1625
   386.94         1.1752
   387.08         1.1944
   387.22         1.2198
   387.36         1.2512
   387.50         1.2882
   387.64         1.3310
   387.78         1.3800
   387.92         1.4365
   388.06         1.5018
   388.20         1.5772
   388.34         1.6632
   388.48         1.7589
   388.62         1.8621
   388.76         1.9701
   388.90         2.0797
   389.04         2.1868
   389.18         2.2859
   389.32         2.3721
   389.46         2.4420
   389.60         2.4950
   389.74         2.5323
   389.88         2.5571
   390.02         2.5727
   390.16         2.5825
   390.30         2.5902
   390.44         2.5992
   390.58         2.6117
   390.72         2.6272
   390.86         2.6422
   391.00         2.6518
   391.14         2.6513
   391.28         2.6372
   391.42         2.6071
   391.56         2.5593
   391.70         2.4920
   391.84         2.4051
   391.98         2.2994
   392.12         2.1770
   392.26         2.0410
   392.40         1.8960
   392.54         1.7478
   392.68         1.6030
   392.82         1.4688
   392.96         1.3528
   393.10         1.2617
   393.24         1.2012
   393.38         1.1755
   393.52         1.1864
   393.66         1.2340
   393.80         1.3159
   393.94         1.4274
   394.08         1.5609
   394.22         1.7079
   394.36         1.8594
   394.50         2.0066
   394.64         2.1417
   394.78         2.2580
   394.92         2.3506
   395.06         2.4161
   395.20         2.4519
   395.34         2.4559
   395.48         2.4260
   395.62         2.3617
   395.76         2.2651
   395.90         2.1418
   396.04         2.0002
   396.18         1.8515
   396.32         1.7088
   396.46         1.5860
   396.60         1.4959
   396.74         1.4490
   396.88         1.4522
   397.02         1.5078
   397.16         1.6129
   397.30         1.7606
   397.44         1.9407
   397.58         2.1416
   397.72         2.3507
   397.86         2.5560
   398.00         2.7478
   398.14         2.9192
   398.28         3.0661
   398.42         3.1871
   398.56         3.2834
   398.70         3.3583
   398.84         3.4163
   398.98         3.4626
   399.12         3.5019
   399.26         3.5373
   399.40         3.5700
   399.54         3.6005
   399.68         3.6297
   399.82         3.6589
   399.96         3.6897
   400.10         3.7237
   400.24         3.7619
   400.38         3.8037
   400.52         3.8477
   400.66         3.8915
   400.80         3.9327
   400.94         3.9696
   401.08         4.0014
   401.22         4.0282
   401.36         4.0504
   401.50         4.0689
   401.64         4.0844
   401.78         4.0960
   401.92         4.1017
   402.06         4.0998
   402.20         4.0904
   402.34         4.0751
   402.48         4.0563
   402.62         4.0369
   402.76         4.0194
   402.90         4.0048
   403.04         3.9934
   403.18         3.9845
   403.32         3.9764
   403.46         3.9676
   403.60         3.9577
   403.74         3.9478
   403.88         3.9397
   404.02         3.9350
   404.16         3.9332
   404.30         3.9321
   404.44         3.9288
   404.58         3.9225
   404.72         3.9142
   404.86         3.9058
   405.00         3.8981
   405.14         3.8893
   405.28         3.8759
   405.42         3.8559
   405.56         3.8292
   405.70         3.7985
   405.84         3.7667
   405.98         3.7374
   406.12         3.7153
   406.26         3.7048
   406.40         3.7071
   406.54         3.7199
   406.68         3.7395
   406.82         3.7623
   406.96         3.7867
   407.10         3.8123
   407.24         3.8392
   407.38         3.8680
   407.52         3.8995
   407.66         3.9353
   407.80         3.9774
   407.94         4.0279
   408.08         4.0881
   408.22         4.1563
   408.36         4.2286
   408.50         4.2984
   408.64         4.3598
   408.78         4.4073
   408.92         4.4359
   409.06         4.4422
   409.20         4.4261
   409.34         4.3913
   409.48         4.3438
   409.62         4.2899
   409.76         4.2354
   409.90         4.1856
   410.04         4.1453
   410.18         4.1178
   410.32         4.1040
   410.46         4.1025
   410.60         4.1109
   410.74         4.1259
   410.88         4.1435
   411.02         4.1601
   411.16         4.1726
   411.30         4.1788
   411.44         4.1775
   411.58         4.1685
   411.72         4.1529
   411.86         4.1316
   412.00         4.1051
   412.14         4.0732
   412.28         4.0370
   412.42         3.9986
   412.56         3.9613
   412.70         3.9287
   412.84         3.9032
   412.98         3.8847
   413.12         3.8711
   413.26         3.8597
   413.40         3.8484
   413.54         3.8369
   413.68         3.8251
   413.82         3.8126
   413.96         3.7989
   414.10         3.7832
   414.24         3.7652
   414.38         3.7454
   414.52         3.7254
   414.66         3.7090
   414.80         3.7004
   414.94         3.7025
   415.08         3.7168
   415.22         3.7423
   415.36         3.7757
   415.50         3.8123
   415.64         3.8478
   415.78         3.8792
   415.92         3.9052
   416.06         3.9239
   416.20         3.9327
   416.34         3.9285
   416.48         3.9095
   416.62         3.8757
   416.76         3.8293
   416.90         3.7744
   417.04         3.7161
   417.18         3.6601
   417.32         3.6117
   417.46         3.5745
   417.60         3.5506
   417.74         3.5401
   417.88         3.5417
   418.02         3.5534
   418.16         3.5724
   418.30         3.5957
   418.44         3.6191
   418.58         3.6381
   418.72         3.6489
   418.86         3.6499
   419.00         3.6415
   419.14         3.6253
   419.28         3.6045
   419.42         3.5840
   419.56         3.5691
   419.70         3.5648
   419.84         3.5743
   419.98         3.5989
   420.12         3.6370
   420.26         3.6848
   420.40         3.7382
   420.54         3.7942
   420.68         3.8512
   420.82         3.9082
   420.96         3.9646
   421.10         4.0187
   421.24         4.0668
   421.38         4.1040
   421.52         4.1257
   421.66         4.1301
   421.80         4.1193
   421.94         4.0982
   422.08         4.0725
   422.22         4.0471
   422.36         4.0243
   422.50         4.0054
   422.64         3.9912
   422.78         3.9832
   422.92         3.9833
   423.06         3.9939
   423.20         4.0165
   423.34         4.0507
   423.48         4.0931
   423.62         4.1373
   423.76         4.1757
   423.90         4.2026
   424.04         4.2161
   424.18         4.2179
   424.32         4.2115
   424.46         4.2001
   424.60         4.1856
   424.74         4.1680
   424.88         4.1461
   425.02         4.1204
   425.16         4.0942
   425.30         4.0727
   425.44         4.0604
   425.58         4.0595
   425.72         4.0694
   425.86         4.0868
   426.00         4.1056
   426.14         4.1187
   426.28         4.1204
   426.42         4.1084
   426.56         4.0841
   426.70         4.0508
   426.84         4.0123
   426.98         3.9730
   427.12         3.9369
   427.26         3.9069
   427.40         3.8840
   427.54         3.8691
   427.68         3.8625
   427.82         3.8628
   427.96         3.8677
   428.10         3.8739
   428.24         3.8788
   428.38         3.8797
   428.52         3.8734
   428.66         3.8570
   428.80         3.8291
   428.94         3.7900
   429.08         3.7403
   429.22         3.6802
   429.36         3.6090
   429.50         3.5261
   429.64         3.4319
   429.78         3.3288
   429.92         3.2206
   430.06         3.1142
   430.20         3.0198
   430.34         2.9502
   430.48         2.9190
   430.62         2.9372
   430.76         3.0101
   430.90         3.1354
   431.04         3.3033
   431.18         3.4979
   431.32         3.7012
   431.46         3.8966
   431.60         4.0713
   431.74         4.2160
   431.88         4.3259
   432.02         4.4008
   432.16         4.4450
   432.30         4.4664
   432.44         4.4744
   432.58         4.4779
   432.72         4.4835
   432.86         4.4949
   433.00         4.5133
   433.14         4.5372
   433.28         4.5636
   433.42         4.5888
   433.56         4.6106
   433.70         4.6278
   433.84         4.6412
   433.98         4.6530
   434.12         4.6661
   434.26         4.6829
   434.40         4.7042
   434.54         4.7296
   434.68         4.7577
   434.82         4.7869
   434.96         4.8154
   435.10         4.8411
   435.24         4.8636
   435.38         4.8850
   435.52         4.9082
   435.66         4.9361
   435.80         4.9700
   435.94         5.0087
   436.08         5.0478
   436.22         5.0804
   436.36         5.0993
   436.50         5.0995
   436.64         5.0799
   436.78         5.0431
   436.92         4.9929
   437.06         4.9321
   437.20         4.8617
   437.34         4.7826
   437.48         4.6973
   437.62         4.6095
   437.76         4.5238
   437.90         4.4448
   438.04         4.3768
   438.18         4.3236
   438.32         4.2885
   438.46         4.2746
   438.60         4.2835
   438.74         4.3147
   438.88         4.3661
   439.02         4.4344
   439.16         4.5141
   439.30         4.5969
   439.44         4.6727
   439.58         4.7324
   439.72         4.7714
   439.86         4.7913
   440.00         4.7991
   440.14         4.8030
   440.28         4.8095
   440.42         4.8226
   440.56         4.8451
   440.70         4.8791
   440.84         4.9248
   440.98         4.9802
   441.12         5.0413
   441.26         5.1036
   441.40         5.1624
   441.54         5.2137
   441.68         5.2542
   441.82         5.2813
   441.96         5.2941
   442.10         5.2940
   442.24         5.2837
   442.38         5.2664
   442.52         5.2451
   442.66         5.2226
   442.80         5.2011
   442.94         5.1822
   443.08         5.1673
   443.22         5.1586
   443.36         5.1577
   443.50         5.1657
   443.64         5.1833
   443.78         5.2109
   443.92         5.2479
   444.06         5.2919
   444.20         5.3390
   444.34         5.3838
   444.48         5.4216
   444.62         5.4487
   444.76         5.4627
   444.90         5.4620
   445.04         5.4469
   445.18         5.4203
   445.32         5.3870
   445.46         5.3509
   445.60         5.3156
   445.74         5.2851
   445.88         5.2646
   446.02         5.2584
   446.16         5.2698
   446.30         5.2999
   446.44         5.3481
   446.58         5.4124
   446.72         5.4889
   446.86         5.5723
   447.00         5.6573
   447.14         5.7393
   447.28         5.8149
   447.42         5.8812
   447.56         5.9363
   447.70         5.9792
   447.84         6.0091
   447.98         6.0250
   448.12         6.0256
   448.26         6.0102
   448.40         5.9803
   448.54         5.9398
   448.68         5.8936
   448.82         5.8467
   448.96         5.8039
   449.10         5.7704
   449.24         5.7514
   449.38         5.7510
   449.52         5.7712
   449.66         5.8119
   449.80         5.8710
   449.94         5.9435
   450.08         6.0223
   450.22         6.0993
   450.36         6.1673
   450.50         6.2213
   450.64         6.2584
   450.78         6.2775
   450.92         6.2798
   451.06         6.2683
   451.20         6.2463
   451.34         6.2160
   451.48         6.1777
   451.62         6.1318
   451.76         6.0792
   451.90         6.0208
   452.04         5.9562
   452.18         5.8851
   452.32         5.8087
   452.46         5.7309
   452.60         5.6567
   452.74         5.5918
   452.88         5.5421
   453.02         5.5116
   453.16         5.5017
   453.30         5.5113
   453.44         5.5369
   453.58         5.5731
   453.72         5.6137
   453.86         5.6526
   454.00         5.6850
   454.14         5.7075
   454.28         5.7192
   454.42         5.7215
   454.56         5.7187
   454.70         5.7155
   454.84         5.7165
   454.98         5.7258
   455.12         5.7451
   455.26         5.7734
   455.40         5.8084
   455.54         5.8472
   455.68         5.8874
   455.82         5.9264
   455.96         5.9626
   456.10         5.9961
   456.24         6.0267
   456.38         6.0550
   456.52         6.0810
   456.66         6.1036
   456.80         6.1213
   456.94         6.1325
   457.08         6.1363
   457.22         6.1318
   457.36         6.1182
   457.50         6.0955
   457.64         6.0658
   457.78         6.0321
   457.92         5.9979
   458.06         5.9670
   458.20         5.9424
   458.34         5.9259
   458.48         5.9178
   458.62         5.9178
   458.76         5.9247
   458.90         5.9366
   459.04         5.9518
   459.18         5.9682
   459.32         5.9841
   459.46         5.9997
   459.60         6.0174
   459.74         6.0405
   459.88         6.0718
   460.02         6.1129
   460.16         6.1636
   460.30         6.2214
   460.44         6.2818
   460.58         6.3400
   460.72         6.3932
   460.86         6.4403
   461.00         6.4806
   461.14         6.5138
   461.28         6.5404
   461.42         6.5617
   461.56         6.5794
   461.70         6.5944
   461.84         6.6069
   461.98         6.6179
   462.12         6.6275
   462.26         6.6348
   462.40         6.6373
   462.54         6.6318
   462.68         6.6156
   462.82         6.5870
   462.96         6.5466
   463.10         6.4962
   463.24         6.4386
   463.38         6.3758
   463.52         6.3096
   463.66         6.2418
   463.80         6.1756
   463.94         6.1146
   464.08         6.0620
   464.22         6.0195
   464.36         5.9877
   464.50         5.9669
   464.64         5.9580
   464.78         5.9615
   464.92         5.9777
   465.06         6.0060
   465.20         6.0439
   465.34         6.0873
   465.48         6.1303
   465.62         6.1663
   465.76         6.1903
   465.90         6.1996
   466.04         6.1943
   466.18         6.1773
   466.32         6.1525
   466.46         6.1242
   466.60         6.0955
   466.74         6.0691
   466.88         6.0470
   467.02         6.0318
   467.16         6.0267
   467.30         6.0339
   467.44         6.0526
   467.58         6.0797
   467.72         6.1102
   467.86         6.1396
   468.00         6.1645
   468.14         6.1835
   468.28         6.1977
   468.42         6.2092
   468.56         6.2183
   468.70         6.2234
   468.84         6.2225
   468.98         6.2143
   469.12         6.1981
   469.26         6.1738
   469.40         6.1421
   469.54         6.1041
   469.68         6.0616
   469.82         6.0167
   469.96         5.9717
   470.10         5.9284
   470.24         5.8894
   470.38         5.8581
   470.52         5.8382
   470.66         5.8327
   470.80         5.8429
   470.94         5.8685
   471.08         5.9076
   471.22         5.9568
   471.36         6.0127
   471.50         6.0708
   471.64         6.1254
   471.78         6.1706
   471.92         6.2015
   472.06         6.2151
   472.20         6.2119
   472.34         6.1950
   472.48         6.1691
   472.62         6.1388
   472.76         6.1087
   472.90         6.0836
   473.04         6.0682
   473.18         6.0666
   473.32         6.0808
   473.46         6.1114
   473.60         6.1576
   473.74         6.2171
   473.88         6.2862
   474.02         6.3591
   474.16         6.4296
   474.30         6.4924
   474.44         6.5443
   474.58         6.5845
   474.72         6.6150
   474.86         6.6382
   475.00         6.6552
   475.14         6.6655
   475.28         6.6685
   475.42         6.6639
   475.56         6.6521
   475.70         6.6343
   475.84         6.6119
   475.98         6.5858
   476.12         6.5573
   476.26         6.5279
   476.40         6.4995
   476.54         6.4745
   476.68         6.4552
   476.82         6.4441
   476.96         6.4424
   477.10         6.4509
   477.24         6.4689
   477.38         6.4939
   477.52         6.5209
   477.66         6.5442
   477.80         6.5590
   477.94         6.5630
   478.08         6.5563
   478.22         6.5417
   478.36         6.5222
   478.50         6.4996
   478.64         6.4750
   478.78         6.4505
   478.92         6.4292
   479.06         6.4139
   479.20         6.4061
   479.34         6.4060
   479.48         6.4122
   479.62         6.4227
   479.76         6.4357
   479.90         6.4498
   480.04         6.4633
   480.18         6.4752
   480.32         6.4854
   480.46         6.4955
   480.60         6.5074
   480.74         6.5227
   480.88         6.5417
   481.02         6.5628
   481.16         6.5847
   481.30         6.6062
   481.44         6.6260
   481.58         6.6420
   481.72         6.6510
   481.86         6.6494
   482.00         6.6362
   482.14         6.6135
   482.28         6.5846
   482.42         6.5537
   482.56         6.5242
   482.70         6.4988
   482.84         6.4796
   482.98         6.4682
   483.12         6.4650
   483.26         6.4693
   483.40         6.4791
   483.54         6.4916
   483.68         6.5042
   483.82         6.5150
   483.96         6.5231
   484.10         6.5275
   484.24         6.5271
   484.38         6.5213
   484.52         6.5098
   484.66         6.4919
   484.80         6.4648
   484.94         6.4243
   485.08         6.3684
   485.22         6.2981
   485.36         6.2169
   485.50         6.1304
   485.64         6.0448
   485.78         5.9655
   485.92         5.8966
   486.06         5.8411
   486.20         5.8014
   486.34         5.7797
   486.48         5.7772
   486.62         5.7928
   486.76         5.8238
   486.90         5.8670
   487.04         5.9187
   487.18         5.9744
   487.32         6.0290
   487.46         6.0787
   487.60         6.1213
   487.74         6.1559
   487.88         6.1821
   488.02         6.2000
   488.16         6.2111
   488.30         6.2186
   488.44         6.2265
   488.58         6.2391
   488.72         6.2594
   488.86         6.2889
   489.00         6.3285
   489.14         6.3775
   489.28         6.4340
   489.42         6.4947
   489.56         6.5558
   489.70         6.6119
   489.84         6.6576
   489.98         6.6890
   490.12         6.7054
   490.26         6.7081
   490.40         6.7000
   490.54         6.6838
   490.68         6.6608
   490.82         6.6310
   490.96         6.5934
   491.10         6.5470
   491.24         6.4919
   491.38         6.4309
   491.52         6.3695
   491.66         6.3149
   491.80         6.2736
   491.94         6.2500
   492.08         6.2456
   492.22         6.2596
   492.36         6.2887
   492.50         6.3283
   492.64         6.3734
   492.78         6.4179
   492.92         6.4564
   493.06         6.4852
   493.20         6.5020
   493.34         6.5067
   493.48         6.5022
   493.62         6.4944
   493.76         6.4902
   493.90         6.4959
   494.04         6.5158
   494.18         6.5513
   494.32         6.6001
   494.46         6.6569
   494.60         6.7133
   494.74         6.7615
   494.88         6.7959
   495.02         6.8139
   495.16         6.8148
   495.30         6.8007
   495.44         6.7749
   495.58         6.7416
   495.72         6.7040
   495.86         6.6645
   496.00         6.6249
   496.14         6.5879
   496.28         6.5559
   496.42         6.5304
   496.56         6.5122
   496.70         6.5004
   496.84         6.4927
   496.98         6.4864
   497.12         6.4781
   497.26         6.4653
   497.40         6.4473
   497.54         6.4250
   497.68         6.3995
   497.82         6.3720
   497.96         6.3442
   498.10         6.3176
   498.24         6.2943
   498.38         6.2763
   498.52         6.2651
   498.66         6.2619
   498.80         6.2665
   498.94         6.2782
   499.08         6.2955
   499.22         6.3153
   499.36         6.3326
   499.50         6.3424
   499.64         6.3417
   499.78         6.3299
   499.92         6.3088
   500.06         6.2810
   500.20         6.2480
   500.34         6.2110
   500.48         6.1713
   500.62         6.1303
   500.76         6.0898
   500.90         6.0515
   501.04         6.0176
   501.18         5.9895
   501.32         5.9685
   501.46         5.9557
   501.60         5.9514
   501.74         5.9547
   501.88         5.9642
   502.02         5.9790
   502.16         5.9991
   502.30         6.0246
   502.44         6.0546
   502.58         6.0861
   502.72         6.1150
   502.86         6.1375
   503.00         6.1508
   503.14         6.1542
   503.28         6.1487
   503.42         6.1375
   503.56         6.1243
   503.70         6.1120
   503.84         6.1018
   503.98         6.0946
   504.12         6.0917
   504.26         6.0941
   504.40         6.1030
   504.54         6.1193
   504.68         6.1430
   504.82         6.1732
   504.96         6.2088
   505.10         6.2477
   505.24         6.2874
   505.38         6.3248
   505.52         6.3573
   505.66         6.3834
   505.80         6.4030
   505.94         6.4157
   506.08         6.4207
   506.22         6.4164
   506.36         6.4013
   506.50         6.3757
   506.64         6.3423
   506.78         6.3041
   506.92         6.2628
   507.06         6.2203
   507.20         6.1788
   507.34         6.1408
   507.48         6.1090
   507.62         6.0855
   507.76         6.0710
   507.90         6.0662
   508.04         6.0722
   508.18         6.0908
   508.32         6.1229
   508.46         6.1675
   508.60         6.2206
   508.74         6.2763
   508.88         6.3284
   509.02         6.3721
   509.16         6.4042
   509.30         6.4228
   509.44         6.4269
   509.58         6.4178
   509.72         6.3984
   509.86         6.3722
   510.00         6.3425
   510.14         6.3125
   510.28         6.2858
   510.42         6.2655
   510.56         6.2548
   510.70         6.2555
   510.84         6.2666
   510.98         6.2843
   511.12         6.3036
   511.26         6.3190
   511.40         6.3267
   511.54         6.3245
   511.68         6.3114
   511.82         6.2866
   511.96         6.2514
   512.10         6.2090
   512.24         6.1643
   512.38         6.1223
   512.52         6.0874
   512.66         6.0625
   512.80         6.0489
   512.94         6.0460
   513.08         6.0516
   513.22         6.0625
   513.36         6.0743
   513.50         6.0833
   513.64         6.0864
   513.78         6.0826
   513.92         6.0721
   514.06         6.0568
   514.20         6.0388
   514.34         6.0205
   514.48         6.0053
   514.62         5.9962
   514.76         5.9944
   514.90         5.9992
   515.04         6.0084
   515.18         6.0187
   515.32         6.0254
   515.46         6.0228
   515.60         6.0059
   515.74         5.9713
   515.88         5.9178
   516.02         5.8460
   516.16         5.7583
   516.30         5.6611
   516.44         5.5639
   516.58         5.4779
   516.72         5.4133
   516.86         5.3777
   517.00         5.3742
   517.14         5.4000
   517.28         5.4481
   517.42         5.5103
   517.56         5.5790
   517.70         5.6464
   517.84         5.7053
   517.98         5.7499
   518.12         5.7774
   518.26         5.7890
   518.40         5.7888
   518.54         5.7825
   518.68         5.7765
   518.82         5.7775
   518.96         5.7920
   519.10         5.8229
   519.24         5.8678
   519.38         5.9202
   519.52         5.9718
   519.66         6.0158
   519.80         6.0488
   519.94         6.0728
   520.08         6.0922
   520.22         6.1096
   520.36         6.1248
   520.50         6.1369
   520.64         6.1465
   520.78         6.1553
   520.92         6.1645
   521.06         6.1745
   521.20         6.1839
   521.34         6.1897
   521.48         6.1878
   521.62         6.1755
   521.76         6.1518
   521.90         6.1175
   522.04         6.0754
   522.18         6.0311
   522.32         5.9911
   522.46         5.9621
   522.60         5.9497
   522.74         5.9568
   522.88         5.9830
   523.02         6.0270
   523.16         6.0868
   523.30         6.1589
   523.44         6.2368
   523.58         6.3125
   523.72         6.3783
   523.86         6.4279
   524.00         6.4574
   524.14         6.4660
   524.28         6.4561
   524.42         6.4315
   524.56         6.3973
   524.70         6.3595
   524.84         6.3237
   524.98         6.2928
   525.12         6.2670
   525.26         6.2440
   525.40         6.2199
   525.54         6.1901
   525.68         6.1511
   525.82         6.1000
   525.96         6.0357
   526.10         5.9602
   526.24         5.8781
   526.38         5.7967
   526.52         5.7248
   526.66         5.6714
   526.80         5.6440
   526.94         5.6470
   527.08         5.6812
   527.22         5.7433
   527.36         5.8275
   527.50         5.9254
   527.64         6.0285
   527.78         6.1296
   527.92         6.2244
   528.06         6.3100
   528.20         6.3845
   528.34         6.4459
   528.48         6.4918
   528.62         6.5209
   528.76         6.5336
   528.90         6.5316
   529.04         6.5179
   529.18         6.4961
   529.32         6.4701
   529.46         6.4431
   529.60         6.4186
   529.74         6.4005
   529.88         6.3929
   530.02         6.3987
   530.16         6.4183
   530.30         6.4500
   530.44         6.4904
   530.58         6.5352
   530.72         6.5791
   530.86         6.6162
   531.00         6.6409
   531.14         6.6501
   531.28         6.6434
   531.42         6.6221
   531.56         6.5875
   531.70         6.5402
   531.84         6.4824
   531.98         6.4181
   532.12         6.3523
   532.26         6.2904
   532.40         6.2376
   532.54         6.1982
   532.68         6.1742
   532.82         6.1657
   532.96         6.1721
   533.10         6.1921
   533.24         6.2237
   533.38         6.2638
   533.52         6.3085
   533.66         6.3538
   533.80         6.3965
   533.94         6.4341
   534.08         6.4647
   534.22         6.4886
   534.36         6.5091
   534.50         6.5307
   534.64         6.5568
   534.78         6.5877
   534.92         6.6217
   535.06         6.6565
   535.20         6.6892
   535.34         6.7168
   535.48         6.7366
   535.62         6.7463
   535.76         6.7437
   535.90         6.7273
   536.04         6.6971
   536.18         6.6549
   536.32         6.6049
   536.46         6.5526
   536.60         6.5036
   536.74         6.4626
   536.88         6.4334
   537.02         6.4174
   537.16         6.4139
   537.30         6.4205
   537.44         6.4340
   537.58         6.4511
   537.72         6.4679
   537.86         6.4804
   538.00         6.4847
   538.14         6.4781
   538.28         6.4594
   538.42         6.4290
   538.56         6.3891
   538.70         6.3429
   538.84         6.2944
   538.98         6.2469
   539.12         6.2028
   539.26         6.1629
   539.40         6.1280
   539.54         6.0990
   539.68         6.0772
   539.82         6.0638
   539.96         6.0594
   540.10         6.0649
   540.24         6.0810
   540.38         6.1077
   540.52         6.1441
   540.66         6.1889
   540.80         6.2405
   540.94         6.2963
   541.08         6.3530
   541.22         6.4075
   541.36         6.4572
   541.50         6.4999
   541.64         6.5327
   541.78         6.5531
   541.92         6.5598
   542.06         6.5530
   542.20         6.5338
   542.34         6.5039
   542.48         6.4666
   542.62         6.4263
   542.76         6.3882
   542.90         6.3566
   543.04         6.3342
   543.18         6.3224
   543.32         6.3204
   543.46         6.3262
   543.60         6.3372
   543.74         6.3517
   543.88         6.3691
   544.02         6.3890
   544.16         6.4091
   544.30         6.4259
   544.44         6.4365
   544.58         6.4412
   544.72         6.4422
   544.86         6.4424
   545.00         6.4451
   545.14         6.4530
   545.28         6.4673
   545.42         6.4872
   545.56         6.5100
   545.70         6.5322
   545.84         6.5498
   545.98         6.5606
   546.12         6.5634
   546.26         6.5581
   546.40         6.5445
   546.54         6.5219
   546.68         6.4897
   546.82         6.4484
   546.96         6.3999
   547.10         6.3485
   547.24         6.2997
   547.38         6.2579
   547.52         6.2252
   547.66         6.2020
   547.80         6.1879
   547.94         6.1826
   548.08         6.1852
   548.22         6.1948
   548.36         6.2099
   548.50         6.2296
   548.64         6.2530
   548.78         6.2788
   548.92         6.3059
   549.06         6.3333
   549.20         6.3604
   549.34         6.3865
   549.48         6.4109
   549.62         6.4326
   549.76         6.4512
   549.90         6.4658
   550.04         6.4745
   550.18         6.4749
   550.32         6.4659
   550.46         6.4487
   550.60         6.4266
   550.74         6.4040
   550.88         6.3852
   551.02         6.3741
   551.16         6.3727
   551.30         6.3811
   551.44         6.3979
   551.58         6.4201
   551.72         6.4442
   551.86         6.4672
   552.00         6.4870
   552.14         6.5019
   552.28         6.5099
   552.42         6.5097
   552.56         6.5012
   552.70         6.4857
   552.84         6.4661
   552.98         6.4460
   553.12         6.4288
   553.26         6.4172
   553.40         6.4118
   553.54         6.4124
   553.68         6.4186
   553.82         6.4311
   553.96         6.4503
   554.10         6.4758
   554.24         6.5058
   554.38         6.5386
   554.52         6.5723
   554.66         6.6043
   554.80         6.6312
   554.94         6.6507
   555.08         6.6613
   555.22         6.6627
   555.36         6.6550
   555.50         6.6391
   555.64         6.6160
   555.78         6.5872
   555.92         6.5547
   556.06         6.5217
   556.20         6.4909
   556.34         6.4643
   556.48         6.4429
   556.62         6.4266
   556.76         6.4153
   556.90         6.4093
   557.04         6.4088
   557.18         6.4129
   557.32         6.4197
   557.46         6.4268
   557.60         6.4313
   557.74         6.4297
   557.88         6.4196
   558.02         6.3999
   558.16         6.3710
   558.30         6.3343
   558.44         6.2937
   558.58         6.2542
   558.72         6.2203
   558.86         6.1947
   559.00         6.1787
   559.14         6.1728
   559.28         6.1759
   559.42         6.1870
   559.56         6.2044
   559.70         6.2266
   559.84         6.2522
   559.98         6.2804
   560.12         6.3104
   560.26         6.3413
   560.40         6.3715
   560.54         6.3985
   560.68         6.4204
   560.82         6.4363
   560.96         6.4462
   561.10         6.4505
   561.24         6.4492
   561.38         6.4417
   561.52         6.4287
   561.66         6.4116
   561.80         6.3939
   561.94         6.3801
   562.08         6.3742
   562.22         6.3780
   562.36         6.3908
   562.50         6.4101
   562.64         6.4328
   562.78         6.4551
   562.92         6.4733
   563.06         6.4844
   563.20         6.4878
   563.34         6.4851
   563.48         6.4785
   563.62         6.4698
   563.76         6.4602
   563.90         6.4504
   564.04         6.4415
   564.18         6.4349
   564.32         6.4320
   564.46         6.4331
   564.60         6.4366
   564.74         6.4386
   564.88         6.4347
   565.02         6.4224
   565.16         6.4013
   565.30         6.3728
   565.44         6.3396
   565.58         6.3049
   565.72         6.2727
   565.86         6.2464
   566.00         6.2291
   566.14         6.2230
   566.28         6.2292
   566.42         6.2474
   566.56         6.2762
   566.70         6.3137
   566.84         6.3569
   566.98         6.4021
   567.12         6.4445
   567.26         6.4798
   567.40         6.5062
   567.54         6.5240
   567.68         6.5340
   567.82         6.5368
   567.96         6.5330
   568.10         6.5236
   568.24         6.5102
   568.38         6.4940
   568.52         6.4761
   568.66         6.4576
   568.80         6.4394
   568.94         6.4211
   569.08         6.4014
   569.22         6.3798
   569.36         6.3562
   569.50         6.3304
   569.64         6.3019
   569.78         6.2702
   569.92         6.2356
   570.06         6.1995
   570.20         6.1635
   570.34         6.1293
   570.48         6.1000
   570.62         6.0790
   570.76         6.0690
   570.90         6.0704
   571.04         6.0834
   571.18         6.1080
   571.32         6.1440
   571.46         6.1893
   571.60         6.2409
   571.74         6.2952
   571.88         6.3491
   572.02         6.3994
   572.16         6.4433
   572.30         6.4784
   572.44         6.5039
   572.58         6.5202
   572.72         6.5288
   572.86         6.5318
   573.00         6.5312
   573.14         6.5291
   573.28         6.5267
   573.42         6.5242
   573.56         6.5212
   573.70         6.5176
   573.84         6.5133
   573.98         6.5080
   574.12         6.5009
   574.26         6.4907
   574.40         6.4776
   574.54         6.4623
   574.68         6.4456
   574.82         6.4277
   574.96         6.4083
   575.10         6.3874
   575.24         6.3656
   575.38         6.3447
   575.52         6.3269
   575.66         6.3141
   575.80         6.3074
   575.94         6.3079
   576.08         6.3159
   576.22         6.3313
   576.36         6.3541
   576.50         6.3837
   576.64         6.4179
   576.78         6.4531
   576.92         6.4848
   577.06         6.5081
   577.20         6.5188
   577.34         6.5139
   577.48         6.4927
   577.62         6.4575
   577.76         6.4127
   577.90         6.3630
   578.04         6.3134
   578.18         6.2686
   578.32         6.2322
   578.46         6.2070
   578.60         6.1945
   578.74         6.1953
   578.88         6.2091
   579.02         6.2349
   579.16         6.2702
   579.30         6.3110
   579.44         6.3521
   579.58         6.3888
   579.72         6.4188
   579.86         6.4415
   580.00         6.4575
   580.14         6.4677
   580.28         6.4731
   580.42         6.4745
   580.56         6.4729
   580.70         6.4701
   580.84         6.4685
   580.98         6.4698
   581.12         6.4757
   581.26         6.4873
   581.40         6.5059
   581.54         6.5315
   581.68         6.5634
   581.82         6.5995
   581.96         6.6370
   582.10         6.6729
   582.24         6.7042
   582.38         6.7287
   582.52         6.7447
   582.66         6.7515
   582.80         6.7501
   582.94         6.7421
   583.08         6.7296
   583.22         6.7150
   583.36         6.6999
   583.50         6.6847
   583.64         6.6693
   583.78         6.6537
   583.92         6.6375
   584.06         6.6199
   584.20         6.5999
   584.34         6.5764
   584.48         6.5483
   584.62         6.5150
   584.76         6.4774
   584.90         6.4385
   585.04         6.4020
   585.18         6.3717
   585.32         6.3505
   585.46         6.3403
   585.60         6.3415
   585.74         6.3542
   585.88         6.3777
   586.02         6.4109
   586.16         6.4514
   586.30         6.4976
   586.44         6.5469
   586.58         6.5955
   586.72         6.6400
   586.86         6.6777
   587.00         6.7064
   587.14         6.7245
   587.28         6.7312
   587.42         6.7264
   587.56         6.7090
   587.70         6.6760
   587.84         6.6251
   587.98         6.5568
   588.12         6.4738
   588.26         6.3799
   588.40         6.2794
   588.54         6.1774
   588.68         6.0796
   588.82         5.9918
   588.96         5.9200
   589.10         5.8685
   589.24         5.8401
   589.38         5.8360
   589.52         5.8564
   589.66         5.8990
   589.80         5.9601
   589.94         6.0342
   590.08         6.1138
   590.22         6.1915
   590.36         6.2616
   590.50         6.3216
   590.64         6.3706
   590.78         6.4078
   590.92         6.4323
   591.06         6.4450
   591.20         6.4489
   591.34         6.4467
   591.48         6.4410
   591.62         6.4340
   591.76         6.4274
   591.90         6.4225
   592.04         6.4199
   592.18         6.4195
   592.32         6.4202
   592.46         6.4213
   592.60         6.4222
   592.74         6.4223
   592.88         6.4216
   593.02         6.4199
   593.16         6.4172
   593.30         6.4138
   593.44         6.4096
   593.58         6.4037
   593.72         6.3955
   593.86         6.3846
   594.00         6.3707
   594.14         6.3541
   594.28         6.3356
   594.42         6.3156
   594.56         6.2947
   594.70         6.2746
   594.84         6.2575
   594.98         6.2462
   595.12         6.2425
   595.26         6.2465
   595.40         6.2566
   595.54         6.2710
   595.68         6.2885
   595.82         6.3083
   595.96         6.3292
   596.10         6.3487
   596.24         6.3645
   596.38         6.3754
   596.52         6.3807
   596.66         6.3804
   596.80         6.3748
   596.94         6.3653
   597.08         6.3535
   597.22         6.3410
   597.36         6.3293
   597.50         6.3195
   597.64         6.3117
   597.78         6.3054
   597.92         6.3001
   598.06         6.2959
   598.20         6.2944
   598.34         6.2965
   598.48         6.3020
   598.62         6.3102
   598.76         6.3197
   598.90         6.3300
   599.04         6.3405
   599.18         6.3498
   599.32         6.3561
   599.46         6.3574
   599.60         6.3522
   599.74         6.3395
   599.88         6.3199
   600.02         6.2953
   600.16         6.2680
   600.30         6.2401
   600.44         6.2139
   600.58         6.1923
   600.72         6.1775
   600.86         6.1706
   601.00         6.1717
   601.14         6.1802
   601.28         6.1946
   601.42         6.2131
   601.56         6.2335
   601.70         6.2533
   601.84         6.2702
   601.98         6.2827
   602.12         6.2908
   602.26         6.2950
   602.40         6.2967
   602.54         6.2970
   602.68         6.2958
   602.82         6.2932
   602.96         6.2898
   603.10         6.2871
   603.24         6.2869
   603.38         6.2902
   603.52         6.2978
   603.66         6.3098
   603.80         6.3255
   603.94         6.3437
   604.08         6.3626
   604.22         6.3805
   604.36         6.3955
   604.50         6.4059
   604.64         6.4118
   604.78         6.4141
   604.92         6.4134
   605.06         6.4100
   605.20         6.4039
   605.34         6.3955
   605.48         6.3858
   605.62         6.3763
   605.76         6.3680
   605.90         6.3615
   606.04         6.3569
   606.18         6.3543
   606.32         6.3532
   606.46         6.3527
   606.60         6.3512
   606.74         6.3469
   606.88         6.3383
   607.02         6.3248
   607.16         6.3067
   607.30         6.2851
   607.44         6.2607
   607.58         6.2346
   607.72         6.2085
   607.86         6.1846
   608.00         6.1646
   608.14         6.1494
   608.28         6.1397
   608.42         6.1362
   608.56         6.1387
   608.70         6.1456
   608.84         6.1540
   608.98         6.1605
   609.12         6.1627
   609.26         6.1596
   609.40         6.1518
   609.54         6.1409
   609.68         6.1289
   609.82         6.1182
   609.96         6.1110
   610.10         6.1092
   610.24         6.1135
   610.38         6.1232
   610.52         6.1369
   610.66         6.1527
   610.80         6.1683
   610.94         6.1815
   611.08         6.1905
   611.22         6.1940
   611.36         6.1909
   611.50         6.1812
   611.64         6.1667
   611.78         6.1503
   611.92         6.1352
   612.06         6.1235
   612.20         6.1158
   612.34         6.1110
   612.48         6.1073
   612.62         6.1033
   612.76         6.0980
   612.90         6.0909
   613.04         6.0820
   613.18         6.0721
   613.32         6.0621
   613.46         6.0531
   613.60         6.0461
   613.74         6.0418
   613.88         6.0408
   614.02         6.0433
   614.16         6.0493
   614.30         6.0586
   614.44         6.0707
   614.58         6.0839
   614.72         6.0954
   614.86         6.1019
   615.00         6.1014
   615.14         6.0939
   615.28         6.0809
   615.42         6.0635
   615.56         6.0426
   615.70         6.0190
   615.84         5.9940
   615.98         5.9691
   616.12         5.9457
   616.26         5.9253
   616.40         5.9096
   616.54         5.9001
   616.68         5.8981
   616.82         5.9046
   616.96         5.9200
   617.10         5.9434
   617.24         5.9727
   617.38         6.0053
   617.52         6.0379
   617.66         6.0678
   617.80         6.0922
   617.94         6.1087
   618.08         6.1163
   618.22         6.1148
   618.36         6.1055
   618.50         6.0904
   618.64         6.0719
   618.78         6.0523
   618.92         6.0343
   619.06         6.0212
   619.20         6.0156
   619.34         6.0192
   619.48         6.0311
   619.62         6.0496
   619.76         6.0721
   619.90         6.0965
   620.04         6.1201
   620.18         6.1400
   620.32         6.1537
   620.46         6.1602
   620.60         6.1596
   620.74         6.1524
   620.88         6.1392
   621.02         6.1208
   621.16         6.0988
   621.30         6.0749
   621.44         6.0510
   621.58         6.0293
   621.72         6.0112
   621.86         5.9968
   622.00         5.9852
   622.14         5.9759
   622.28         5.9689
   622.42         5.9643
   622.56         5.9616
   622.70         5.9601
   622.84         5.9590
   622.98         5.9581
   623.12         5.9580
   623.26         5.9587
   623.40         5.9602
   623.54         5.9621
   623.68         5.9643
   623.82         5.9666
   623.96         5.9683
   624.10         5.9680
   624.24         5.9642
   624.38         5.9555
   624.52         5.9413
   624.66         5.9228
   624.80         5.9025
   624.94         5.8836
   625.08         5.8687
   625.22         5.8589
   625.36         5.8537
   625.50         5.8522
   625.64         5.8539
   625.78         5.8589
   625.92         5.8673
   626.06         5.8794
   626.20         5.8951
   626.34         5.9141
   626.48         5.9349
   626.62         5.9547
   626.76         5.9709
   626.90         5.9815
   627.04         5.9856
   627.18         5.9840
   627.32         5.9781
   627.46         5.9704
   627.60         5.9634
   627.74         5.9588
   627.88         5.9573
   628.02         5.9598
   628.16         5.9678
   628.30         5.9829
   628.44         6.0052
   628.58         6.0327
   628.72         6.0619
   628.86         6.0886
   629.00         6.1089
   629.14         6.1203
   629.28         6.1221
   629.42         6.1157
   629.56         6.1037
   629.70         6.0895
   629.84         6.0765
   629.98         6.0668
   630.12         6.0614
   630.26         6.0600
   630.40         6.0601
   630.54         6.0585
   630.68         6.0529
   630.82         6.0425
   630.96         6.0274
   631.10         6.0076
   631.24         5.9839
   631.38         5.9585
   631.52         5.9350
   631.66         5.9170
   631.80         5.9074
   631.94         5.9078
   632.08         5.9182
   632.22         5.9368
   632.36         5.9606
   632.50         5.9859
   632.64         6.0094
   632.78         6.0281
   632.92         6.0397
   633.06         6.0426
   633.20         6.0371
   633.34         6.0251
   633.48         6.0092
   633.62         5.9916
   633.76         5.9748
   633.90         5.9609
   634.04         5.9519
   634.18         5.9484
   634.32         5.9499
   634.46         5.9555
   634.60         5.9636
   634.74         5.9716
   634.88         5.9769
   635.02         5.9773
   635.16         5.9718
   635.30         5.9608
   635.44         5.9456
   635.58         5.9282
   635.72         5.9109
   635.86         5.8960
   636.00         5.8860
   636.14         5.8828
   636.28         5.8870
   636.42         5.8977
   636.56         5.9133
   636.70         5.9314
   636.84         5.9499
   636.98         5.9665
   637.12         5.9792
   637.26         5.9866
   637.40         5.9882
   637.54         5.9853
   637.68         5.9799
   637.82         5.9744
   637.96         5.9705
   638.10         5.9686
   638.24         5.9688
   638.38         5.9709
   638.52         5.9747
   638.66         5.9791
   638.80         5.9823
   638.94         5.9824
   639.08         5.9792
   639.22         5.9733
   639.36         5.9657
   639.50         5.9572
   639.64         5.9483
   639.78         5.9396
   639.92         5.9319
   640.06         5.9257
   640.20         5.9209
   640.34         5.9177
   640.48         5.9166
   640.62         5.9172
   640.76         5.9194
   640.90         5.9223
   641.04         5.9253
   641.18         5.9273
   641.32         5.9279
   641.46         5.9276
   641.60         5.9278
   641.74         5.9292
   641.88         5.9317
   642.02         5.9345
   642.16         5.9369
   642.30         5.9385
   642.44         5.9392
   642.58         5.9389
   642.72         5.9368
   642.86         5.9330
   643.00         5.9280
   643.14         5.9226
   643.28         5.9170
   643.42         5.9120
   643.56         5.9084
   643.70         5.9071
   643.84         5.9077
   643.98         5.9094
   644.12         5.9109
   644.26         5.9106
   644.40         5.9072
   644.54         5.9005
   644.68         5.8910
   644.82         5.8795
   644.96         5.8666
   645.10         5.8529
   645.24         5.8396
   645.38         5.8285
   645.52         5.8216
   645.66         5.8195
   645.80         5.8219
   645.94         5.8269
   646.08         5.8329
   646.22         5.8380
   646.36         5.8411
   646.50         5.8419
   646.64         5.8410
   646.78         5.8393
   646.92         5.8377
   647.06         5.8368
   647.20         5.8376
   647.34         5.8411
   647.48         5.8474
   647.62         5.8561
   647.76         5.8668
   647.90         5.8787
   648.04         5.8897
   648.18         5.8959
   648.32         5.8935
   648.46         5.8800
   648.60         5.8556
   648.74         5.8224
   648.88         5.7849
   649.02         5.7481
   649.16         5.7167
   649.30         5.6940
   649.44         5.6825
   649.58         5.6836
   649.72         5.6979
   649.86         5.7256
   650.00         5.7652
   650.14         5.8131
   650.28         5.8651
   650.42         5.9163
   650.56         5.9618
   650.70         5.9975
   650.84         6.0221
   650.98         6.0374
   651.12         6.0471
   651.26         6.0551
   651.40         6.0640
   651.54         6.0749
   651.68         6.0873
   651.82         6.0995
   651.96         6.1101
   652.10         6.1184
   652.24         6.1241
   652.38         6.1270
   652.52         6.1273
   652.66         6.1248
   652.80         6.1190
   652.94         6.1100
   653.08         6.0989
   653.22         6.0875
   653.36         6.0787
   653.50         6.0746
   653.64         6.0762
   653.78         6.0825
   653.92         6.0915
   654.06         6.1012
   654.20         6.1097
   654.34         6.1150
   654.48         6.1157
   654.62         6.1105
   654.76         6.0976
   654.90         6.0743
   655.04         6.0369
   655.18         5.9834
   655.32         5.9155
   655.46         5.8385
   655.60         5.7594
   655.74         5.6852
   655.88         5.6218
   656.02         5.5734
   656.16         5.5421
   656.30         5.5285
   656.44         5.5319
   656.58         5.5504
   656.72         5.5815
   656.86         5.6213
   657.00         5.6655
   657.14         5.7095
   657.28         5.7494
   657.42         5.7822
   657.56         5.8070
   657.70         5.8258
   657.84         5.8419
   657.98         5.8580
   658.12         5.8744
   658.26         5.8895
   658.40         5.9015
   658.54         5.9091
   658.68         5.9116
   658.82         5.9098
   658.96         5.9057
   659.10         5.9014
   659.24         5.8984
   659.38         5.8974
   659.52         5.8983
   659.66         5.9007
   659.80         5.9041
   659.94         5.9085
   660.08         5.9134
   660.22         5.9181
   660.36         5.9218
   660.50         5.9238
   660.64         5.9246
   660.78         5.9252
   660.92         5.9268
   661.06         5.9296
   661.20         5.9339
   661.34         5.9403
   661.48         5.9490
   661.62         5.9601
   661.76         5.9725
   661.90         5.9847
   662.04         5.9949
   662.18         6.0013
   662.32         6.0031
   662.46         6.0006
   662.60         5.9940
   662.74         5.9835
   662.88         5.9693
   663.02         5.9516
   663.16         5.9312
   663.30         5.9094
   663.44         5.8877
   663.58         5.8676
   663.72         5.8504
   663.86         5.8373
   664.00         5.8294
   664.14         5.8270
   664.28         5.8298
   664.42         5.8364
   664.56         5.8455
   664.70         5.8554
   664.84         5.8648
   664.98         5.8722
   665.12         5.8757
   665.26         5.8735
   665.40         5.8650
   665.54         5.8503
   665.68         5.8311
   665.82         5.8102
   665.96         5.7906
   666.10         5.7745
   666.24         5.7634
   666.38         5.7578
   666.52         5.7578
   666.66         5.7630
   666.80         5.7727
   666.94         5.7863
   667.08         5.8030
   667.22         5.8214
   667.36         5.8397
   667.50         5.8558
   667.64         5.8688
   667.78         5.8783
   667.92         5.8846
   668.06         5.8885
   668.20         5.8902
   668.34         5.8899
   668.48         5.8865
   668.62         5.8793
   668.76         5.8677
   668.90         5.8521
   669.04         5.8329
   669.18         5.8118
   669.32         5.7905
   669.46         5.7706
   669.60         5.7532
   669.74         5.7385
   669.88         5.7262
   670.02         5.7159
   670.16         5.7072
   670.30         5.6999
   670.44         5.6937
   670.58         5.6882
   670.72         5.6831
   670.86         5.6785
   671.00         5.6749
   671.14         5.6729
   671.28         5.6731
   671.42         5.6759
   671.56         5.6812
   671.70         5.6889
   671.84         5.6988
   671.98         5.7101
   672.12         5.7217
   672.26         5.7325
   672.40         5.7409
   672.54         5.7455
   672.68         5.7455
   672.82         5.7413
   672.96         5.7340
   673.10         5.7252
   673.24         5.7165
   673.38         5.7090
   673.52         5.7026
   673.66         5.6969
   673.80         5.6914
   673.94         5.6861
   674.08         5.6819
   674.22         5.6794
   674.36         5.6788
   674.50         5.6792
   674.64         5.6802
   674.78         5.6818
   674.92         5.6841
   675.06         5.6877
   675.20         5.6931
   675.34         5.7005
   675.48         5.7098
   675.62         5.7201
   675.76         5.7305
   675.90         5.7395
   676.04         5.7461
   676.18         5.7503
   676.32         5.7530
   676.46         5.7556
   676.60         5.7597
   676.74         5.7659
   676.88         5.7743
   677.02         5.7842
   677.16         5.7950
   677.30         5.8055
   677.44         5.8142
   677.58         5.8196
   677.72         5.8207
   677.86         5.8172
   678.00         5.8090
   678.14         5.7968
   678.28         5.7816
   678.42         5.7648
   678.56         5.7477
   678.70         5.7320
   678.84         5.7196
   678.98         5.7118
   679.12         5.7090
   679.26         5.7102
   679.40         5.7137
   679.54         5.7176
   679.68         5.7206
   679.82         5.7214
   679.96         5.7190
   680.10         5.7137
   680.24         5.7064
   680.38         5.6980
   680.52         5.6889
   680.66         5.6795
   680.80         5.6695
   680.94         5.6587
   681.08         5.6472
   681.22         5.6360
   681.36         5.6266
   681.50         5.6205
   681.64         5.6182
   681.78         5.6198
   681.92         5.6249
   682.06         5.6332
   682.20         5.6441
   682.34         5.6563
   682.48         5.6683
   682.62         5.6777
   682.76         5.6822
   682.90         5.6800
   683.04         5.6701
   683.18         5.6522
   683.32         5.6275
   683.46         5.5982
   683.60         5.5679
   683.74         5.5406
   683.88         5.5196
   684.02         5.5071
   684.16         5.5035
   684.30         5.5075
   684.44         5.5167
   684.58         5.5289
   684.72         5.5418
   684.86         5.5533
   685.00         5.5611
   685.14         5.5635
   685.28         5.5594
   685.42         5.5484
   685.56         5.5294
   685.70         5.5000
   685.84         5.4568
   685.98         5.3977
   686.12         5.3222
   686.26         5.2319
   686.40         5.1304
   686.54         5.0231
   686.68         4.9163
   686.82         4.8169
   686.96         4.7321
   687.10         4.6683
   687.24         4.6303
   687.38         4.6201
   687.52         4.6367
   687.66         4.6765
   687.80         4.7336
   687.94         4.8006
   688.08         4.8693
   688.22         4.9319
   688.36         4.9831
   688.50         5.0207
   688.64         5.0455
   688.78         5.0598
   688.92         5.0663
   689.06         5.0677
   689.20         5.0667
   689.34         5.0649
   689.48         5.0637
   689.62         5.0644
   689.76         5.0679
   689.90         5.0742
   690.04         5.0829
   690.18         5.0929
   690.32         5.1030
   690.46         5.1126
   690.60         5.1220
   690.74         5.1321
   690.88         5.1437
   691.02         5.1579
   691.16         5.1752
   691.30         5.1954
   691.44         5.2178
   691.58         5.2414
   691.72         5.2652
   691.86         5.2880
   692.00         5.3087
   692.14         5.3270
   692.28         5.3418
   692.42         5.3519
   692.56         5.3564
   692.70         5.3551
   692.84         5.3491
   692.98         5.3405
   693.12         5.3321
   693.26         5.3255
   693.40         5.3220
   693.54         5.3221
   693.68         5.3261
   693.82         5.3330
   693.96         5.3416
   694.10         5.3508
   694.24         5.3601
   694.38         5.3692
   694.52         5.3782
   694.66         5.3871
   694.80         5.3957
   694.94         5.4044
   695.08         5.4144
   695.22         5.4269
   695.36         5.4423
   695.50         5.4602
   695.64         5.4797
   695.78         5.4999
   695.92         5.5195
   696.06         5.5377
   696.20         5.5533
   696.34         5.5644
   696.48         5.5686
   696.62         5.5641
   696.76         5.5500
   696.90         5.5268
   697.04         5.4962
   697.18         5.4605
   697.32         5.4222
   697.46         5.3843
   697.60         5.3502
   697.74         5.3231
   697.88         5.3052
   698.02         5.2980
   698.16         5.3016
   698.30         5.3152
   698.44         5.3369
   698.58         5.3637
   698.72         5.3923
   698.86         5.4187
   699.00         5.4393
   699.14         5.4510
   699.28         5.4532
   699.42         5.4468
   699.56         5.4343
   699.70         5.4186
   699.84         5.4024
   699.98         5.3879
   700.12         5.3774
   700.26         5.3715
   700.40         5.3692
   700.54         5.3679
   700.68         5.3658
   700.82         5.3621
   700.96         5.3573
   701.10         5.3518
   701.24         5.3458
   701.38         5.3394
   701.52         5.3327
   701.66         5.3267
   701.80         5.3230
   701.94         5.3230
   702.08         5.3271
   702.22         5.3353
   702.36         5.3475
   702.50         5.3625
   702.64         5.3786
   702.78         5.3938
   702.92         5.4065
   703.06         5.4164
   703.20         5.4240
   703.34         5.4301
   703.48         5.4352
   703.62         5.4390
   703.76         5.4412
   703.90         5.4421
   704.04         5.4422
   704.18         5.4419
   704.32         5.4411
   704.46         5.4393
   704.60         5.4357
   704.74         5.4298
   704.88         5.4218
   705.02         5.4119
   705.16         5.4006
   705.30         5.3885
   705.44         5.3763
   705.58         5.3650
   705.72         5.3551
   705.86         5.3470
   706.00         5.3411
   706.14         5.3377
   706.28         5.3368
   706.42         5.3378
   706.56         5.3406
   706.70         5.3450
   706.84         5.3515
   706.98         5.3605
   707.12         5.3717
   707.26         5.3836
   707.40         5.3950
   707.54         5.4050
   707.68         5.4131
   707.82         5.4187
   707.96         5.4209
   708.10         5.4196
   708.24         5.4160
   708.38         5.4118
   708.52         5.4091
   708.66         5.4099
   708.80         5.4158
   708.94         5.4276
   709.08         5.4451
   709.22         5.4672
   709.36         5.4915
   709.50         5.5144
   709.64         5.5322
   709.78         5.5414
   709.92         5.5396
   710.06         5.5260
   710.20         5.5015
   710.34         5.4683
   710.48         5.4297
   710.62         5.3900
   710.76         5.3534
   710.90         5.3232
   711.04         5.3011
   711.18         5.2872
   711.32         5.2815
   711.46         5.2832
   711.60         5.2907
   711.74         5.3014
   711.88         5.3122
   712.02         5.3205
   712.16         5.3248
   712.30         5.3243
   712.44         5.3193
   712.58         5.3115
   712.72         5.3041
   712.86         5.3001
   713.00         5.3022
   713.14         5.3110
   713.28         5.3256
   713.42         5.3435
   713.56         5.3620
   713.70         5.3790
   713.84         5.3927
   713.98         5.4016
   714.12         5.4037
   714.26         5.3977
   714.40         5.3836
   714.54         5.3636
   714.68         5.3408
   714.82         5.3188
   714.96         5.3002
   715.10         5.2868
   715.24         5.2792
   715.38         5.2764
   715.52         5.2768
   715.66         5.2781
   715.80         5.2789
   715.94         5.2780
   716.08         5.2752
   716.22         5.2711
   716.36         5.2660
   716.50         5.2599
   716.64         5.2525
   716.78         5.2433
   716.92         5.2320
   717.06         5.2183
   717.20         5.2018
   717.34         5.1817
   717.48         5.1568
   717.62         5.1263
   717.76         5.0902
   717.90         5.0497
   718.04         5.0072
   718.18         4.9665
   718.32         4.9313
   718.46         4.9045
   718.60         4.8882
   718.74         4.8831
   718.88         4.8891
   719.02         4.9054
   719.16         4.9309
   719.30         4.9637
   719.44         5.0009
   719.58         5.0390
   719.72         5.0749
   719.86         5.1061
   720.00         5.1315
   720.14         5.1513
   720.28         5.1671
   720.42         5.1815
   720.56         5.1965
   720.70         5.2138
   720.84         5.2339
   720.98         5.2565
   721.12         5.2804
   721.26         5.3038
   721.40         5.3254
   721.54         5.3444
   721.68         5.3599
   721.82         5.3709
   721.96         5.3759
   722.10         5.3737
   722.24         5.3645
   722.38         5.3504
   722.52         5.3336
   722.66         5.3159
   722.80         5.2980
   722.94         5.2799
   723.08         5.2611
   723.22         5.2414
   723.36         5.2211
   723.50         5.2014
   723.64         5.1836
   723.78         5.1696
   723.92         5.1612
   724.06         5.1603
   724.20         5.1672
   724.34         5.1809
   724.48         5.1998
   724.62         5.2219
   724.76         5.2455
   724.90         5.2684
   725.04         5.2886
   725.18         5.3036
   725.32         5.3122
   725.46         5.3149
   725.60         5.3133
   725.74         5.3095
   725.88         5.3052
   726.02         5.3015
   726.16         5.2991
   726.30         5.2979
   726.44         5.2970
   726.58         5.2950
   726.72         5.2901
   726.86         5.2806
   727.00         5.2664
   727.14         5.2484
   727.28         5.2278
   727.42         5.2058
   727.56         5.1833
   727.70         5.1618
   727.84         5.1424
   727.98         5.1265
   728.12         5.1153
   728.26         5.1093
   728.40         5.1080
   728.54         5.1101
   728.68         5.1143
   728.82         5.1196
   728.96         5.1252
   729.10         5.1304
   729.24         5.1340
   729.38         5.1358
   729.52         5.1361
   729.66         5.1354
   729.80         5.1341
   729.94         5.1322
   730.08         5.1302
   730.22         5.1296
   730.36         5.1320
   730.50         5.1389
   730.64         5.1510
   730.78         5.1679
   730.92         5.1884
   731.06         5.2105
   731.20         5.2315
   731.34         5.2488
   731.48         5.2603
   731.62         5.2643
   731.76         5.2604
   731.90         5.2495
   732.04         5.2334
   732.18         5.2139
   732.32         5.1923
   732.46         5.1700
   732.60         5.1488
   732.74         5.1309
   732.88         5.1183
   733.02         5.1120
   733.16         5.1124
   733.30         5.1196
   733.44         5.1334
   733.58         5.1524
   733.72         5.1745
   733.86         5.1970
   734.00         5.2175
   734.14         5.2346
   734.28         5.2469
   734.42         5.2531
   734.56         5.2521
   734.70         5.2439
   734.84         5.2294
   734.98         5.2106
   735.12         5.1899
   735.26         5.1702
   735.40         5.1538
   735.54         5.1422
   735.68         5.1357
   735.82         5.1344
   735.96         5.1373
   736.10         5.1430
   736.24         5.1502
   736.38         5.1580
   736.52         5.1653
   736.66         5.1704
   736.80         5.1720
   736.94         5.1697
   737.08         5.1636
   737.22         5.1546
   737.36         5.1431
   737.50         5.1291
   737.64         5.1122
   737.78         5.0918
   737.92         5.0680
   738.06         5.0415
   738.20         5.0137
   738.34         4.9862
   738.48         4.9611
   738.62         4.9404
   738.76         4.9258
   738.90         4.9181
   739.04         4.9177
   739.18         4.9240
   739.32         4.9364
   739.46         4.9540
   739.60         4.9753
   739.74         4.9980
   739.88         5.0191
   740.02         5.0356
   740.16         5.0456
   740.30         5.0476
   740.44         5.0411
   740.58         5.0275
   740.72         5.0089
   740.86         4.9875
   741.00         4.9651
   741.14         4.9427
   741.28         4.9203
   741.42         4.8982
   741.56         4.8772
   741.70         4.8589
   741.84         4.8441
   741.98         4.8321
   742.12         4.8219
   742.26         4.8125
   742.40         4.8042
   742.54         4.7976
   742.68         4.7933
   742.82         4.7914
   742.96         4.7914
   743.10         4.7933
   743.24         4.7976
   743.38         4.8042
   743.52         4.8125
   743.66         4.8219
   743.80         4.8321
   743.94         4.8441
   744.08         4.8589
   744.22         4.8772
