# File BD+361963
# Wavelength [nm]    Normalized Amplitude
   349.70         0.5478
   349.84         0.5378
   349.98         0.5354
   350.12         0.5386
   350.26         0.5441
   350.40         0.5495
   350.54         0.5535
   350.68         0.5552
   350.82         0.5550
   350.96         0.5542
   351.10         0.5539
   351.24         0.5542
   351.38         0.5550
   351.52         0.5552
   351.66         0.5535
   351.80         0.5495
   351.94         0.5441
   352.08         0.5386
   352.22         0.5354
   352.36         0.5378
   352.50         0.5478
   352.64         0.5665
   352.78         0.5941
   352.92         0.6315
   353.06         0.6790
   353.20         0.7356
   353.34         0.7992
   353.48         0.8667
   353.62         0.9336
   353.76         0.9945
   353.90         1.0447
   354.04         1.0814
   354.18         1.1042
   354.32         1.1145
   354.46         1.1150
   354.60         1.1083
   354.74         1.0969
   354.88         1.0831
   355.02         1.0687
   355.16         1.0542
   355.30         1.0404
   355.44         1.0281
   355.58         1.0175
   355.72         1.0075
   355.86         0.9961
   356.00         0.9814
   356.14         0.9620
   356.28         0.9376
   356.42         0.9090
   356.56         0.8774
   356.70         0.8445
   356.84         0.8122
   356.98         0.7820
   357.12         0.7542
   357.26         0.7289
   357.40         0.7069
   357.54         0.6895
   357.68         0.6773
   357.82         0.6705
   357.96         0.6694
   358.10         0.6739
   358.24         0.6837
   358.38         0.6983
   358.52         0.7176
   358.66         0.7407
   358.80         0.7665
   358.94         0.7938
   359.08         0.8207
   359.22         0.8451
   359.36         0.8651
   359.50         0.8799
   359.64         0.8889
   359.78         0.8920
   359.92         0.8903
   360.06         0.8859
   360.20         0.8822
   360.34         0.8824
   360.48         0.8884
   360.62         0.9012
   360.76         0.9219
   360.90         0.9513
   361.04         0.9899
   361.18         1.0369
   361.32         1.0902
   361.46         1.1471
   361.60         1.2049
   361.74         1.2606
   361.88         1.3113
   362.02         1.3538
   362.16         1.3860
   362.30         1.4067
   362.44         1.4165
   362.58         1.4173
   362.72         1.4120
   362.86         1.4038
   363.00         1.3949
   363.14         1.3872
   363.28         1.3815
   363.42         1.3780
   363.56         1.3771
   363.70         1.3785
   363.84         1.3812
   363.98         1.3840
   364.12         1.3855
   364.26         1.3851
   364.40         1.3840
   364.54         1.3839
   364.68         1.3874
   364.82         1.3976
   364.96         1.4174
   365.10         1.4482
   365.24         1.4896
   365.38         1.5403
   365.52         1.5985
   365.66         1.6607
   365.80         1.7207
   365.94         1.7728
   366.08         1.8136
   366.22         1.8420
   366.36         1.8585
   366.50         1.8650
   366.64         1.8637
   366.78         1.8572
   366.92         1.8483
   367.06         1.8388
   367.20         1.8282
   367.34         1.8150
   367.48         1.7981
   367.62         1.7765
   367.76         1.7505
   367.90         1.7212
   368.04         1.6910
   368.18         1.6613
   368.32         1.6326
   368.46         1.6063
   368.60         1.5861
   368.74         1.5762
   368.88         1.5787
   369.02         1.5926
   369.16         1.6138
   369.30         1.6361
   369.44         1.6533
   369.58         1.6610
   369.72         1.6574
   369.86         1.6430
   370.00         1.6204
   370.14         1.5945
   370.28         1.5710
   370.42         1.5548
   370.56         1.5487
   370.70         1.5529
   370.84         1.5644
   370.98         1.5798
   371.12         1.5967
   371.26         1.6126
   371.40         1.6250
   371.54         1.6313
   371.68         1.6298
   371.82         1.6205
   371.96         1.6042
   372.10         1.5823
   372.24         1.5566
   372.38         1.5279
   372.52         1.4973
   372.66         1.4663
   372.80         1.4365
   372.94         1.4089
   373.08         1.3830
   373.22         1.3585
   373.36         1.3355
   373.50         1.3150
   373.64         1.2983
   373.78         1.2865
   373.92         1.2804
   374.06         1.2813
   374.20         1.2906
   374.34         1.3099
   374.48         1.3393
   374.62         1.3773
   374.76         1.4224
   374.90         1.4743
   375.04         1.5326
   375.18         1.5969
   375.32         1.6653
   375.46         1.7342
   375.60         1.7989
   375.74         1.8557
   375.88         1.9033
   376.02         1.9431
   376.16         1.9782
   376.30         2.0122
   376.44         2.0489
   376.58         2.0921
   376.72         2.1451
   376.86         2.2090
   377.00         2.2830
   377.14         2.3646
   377.28         2.4503
   377.42         2.5356
   377.56         2.6141
   377.70         2.6785
   377.84         2.7216
   377.98         2.7390
   378.12         2.7294
   378.26         2.6952
   378.40         2.6405
   378.54         2.5705
   378.68         2.4908
   378.82         2.4072
   378.96         2.3255
   379.10         2.2527
   379.24         2.1965
   379.38         2.1623
   379.52         2.1515
   379.66         2.1621
   379.80         2.1897
   379.94         2.2284
   380.08         2.2716
   380.22         2.3129
   380.36         2.3465
   380.50         2.3672
   380.64         2.3712
   380.78         2.3559
   380.92         2.3192
   381.06         2.2609
   381.20         2.1835
   381.34         2.0916
   381.48         1.9922
   381.62         1.8931
   381.76         1.8029
   381.90         1.7286
   382.04         1.6746
   382.18         1.6435
   382.32         1.6369
   382.46         1.6545
   382.60         1.6933
   382.74         1.7467
   382.88         1.8065
   383.02         1.8650
   383.16         1.9171
   383.30         1.9603
   383.44         1.9936
   383.58         2.0171
   383.72         2.0317
   383.86         2.0394
   384.00         2.0437
   384.14         2.0483
   384.28         2.0562
   384.42         2.0675
   384.56         2.0799
   384.70         2.0902
   384.84         2.0957
   384.98         2.0947
   385.12         2.0870
   385.26         2.0727
   385.40         2.0536
   385.54         2.0336
   385.68         2.0195
   385.82         2.0187
   385.96         2.0357
   386.10         2.0712
   386.24         2.1215
   386.38         2.1804
   386.52         2.2411
   386.66         2.2969
   386.80         2.3422
   386.94         2.3728
   387.08         2.3863
   387.22         2.3822
   387.36         2.3619
   387.50         2.3283
   387.64         2.2856
   387.78         2.2391
   387.92         2.1947
   388.06         2.1593
   388.20         2.1389
   388.34         2.1362
   388.48         2.1494
   388.62         2.1737
   388.76         2.2033
   388.90         2.2335
   389.04         2.2623
   389.18         2.2900
   389.32         2.3178
   389.46         2.3464
   389.60         2.3760
   389.74         2.4062
   389.88         2.4367
   390.02         2.4678
   390.16         2.5011
   390.30         2.5380
   390.44         2.5791
   390.58         2.6230
   390.72         2.6656
   390.86         2.7007
   391.00         2.7219
   391.14         2.7246
   391.28         2.7068
   391.42         2.6686
   391.56         2.6114
   391.70         2.5368
   391.84         2.4452
   391.98         2.3369
   392.12         2.2122
   392.26         2.0733
   392.40         1.9247
   392.54         1.7731
   392.68         1.6269
   392.82         1.4948
   392.96         1.3844
   393.10         1.3011
   393.24         1.2481
   393.38         1.2280
   393.52         1.2421
   393.66         1.2907
   393.80         1.3726
   393.94         1.4850
   394.08         1.6229
   394.22         1.7792
   394.36         1.9450
   394.50         2.1108
   394.64         2.2670
   394.78         2.4053
   394.92         2.5183
   395.06         2.5998
   395.20         2.6445
   395.34         2.6486
   395.48         2.6099
   395.62         2.5284
   395.76         2.4091
   395.90         2.2620
   396.04         2.1017
   396.18         1.9451
   396.32         1.8090
   396.46         1.7088
   396.60         1.6565
   396.74         1.6595
   396.88         1.7195
   397.02         1.8330
   397.16         1.9930
   397.30         2.1905
   397.44         2.4144
   397.58         2.6523
   397.72         2.8914
   397.86         3.1198
   398.00         3.3283
   398.14         3.5108
   398.28         3.6646
   398.42         3.7910
   398.56         3.8934
   398.70         3.9773
   398.84         4.0497
   398.98         4.1186
   399.12         4.1909
   399.26         4.2700
   399.40         4.3553
   399.54         4.4431
   399.68         4.5298
   399.82         4.6127
   399.96         4.6897
   400.10         4.7600
   400.24         4.8245
   400.38         4.8855
   400.52         4.9454
   400.66         5.0057
   400.80         5.0652
   400.94         5.1216
   401.08         5.1724
   401.22         5.2163
   401.36         5.2536
   401.50         5.2852
   401.64         5.3116
   401.78         5.3293
   401.92         5.3328
   402.06         5.3184
   402.20         5.2874
   402.34         5.2465
   402.48         5.2059
   402.62         5.1769
   402.76         5.1689
   402.90         5.1868
   403.04         5.2284
   403.18         5.2865
   403.32         5.3510
   403.46         5.4126
   403.60         5.4658
   403.74         5.5098
   403.88         5.5479
   404.02         5.5838
   404.16         5.6187
   404.30         5.6505
   404.44         5.6764
   404.58         5.6958
   404.72         5.7120
   404.86         5.7296
   405.00         5.7513
   405.14         5.7752
   405.28         5.7962
   405.42         5.8090
   405.56         5.8094
   405.70         5.7972
   405.84         5.7753
   405.98         5.7501
   406.12         5.7296
   406.26         5.7203
   406.40         5.7229
   406.54         5.7318
   406.68         5.7378
   406.82         5.7343
   406.96         5.7195
   407.10         5.6957
   407.24         5.6673
   407.38         5.6412
   407.52         5.6265
   407.66         5.6330
   407.80         5.6690
   407.94         5.7400
   408.08         5.8472
   408.22         5.9862
   408.36         6.1476
   408.50         6.3180
   408.64         6.4821
   408.78         6.6240
   408.92         6.7290
   409.06         6.7869
   409.20         6.7955
   409.34         6.7610
   409.48         6.6937
   409.62         6.6041
   409.76         6.5013
   409.90         6.3941
   410.04         6.2906
   410.18         6.1972
   410.32         6.1179
   410.46         6.0547
   410.60         6.0083
   410.74         5.9784
   410.88         5.9633
   411.02         5.9597
   411.16         5.9647
   411.30         5.9774
   411.44         5.9974
   411.58         6.0246
   411.72         6.0573
   411.86         6.0927
   412.00         6.1254
   412.14         6.1488
   412.28         6.1576
   412.42         6.1495
   412.56         6.1265
   412.70         6.0940
   412.84         6.0588
   412.98         6.0260
   413.12         5.9986
   413.26         5.9786
   413.40         5.9696
   413.54         5.9766
   413.68         6.0034
   413.82         6.0519
   413.96         6.1211
   414.10         6.2065
   414.24         6.3021
   414.38         6.4026
   414.52         6.5047
   414.66         6.6082
   414.80         6.7150
   414.94         6.8276
   415.08         6.9468
   415.22         7.0711
   415.36         7.1955
   415.50         7.3125
   415.64         7.4143
   415.78         7.4950
   415.92         7.5490
   416.06         7.5695
   416.20         7.5488
   416.34         7.4817
   416.48         7.3697
   416.62         7.2211
   416.76         7.0500
   416.90         6.8738
   417.04         6.7108
   417.18         6.5774
   417.32         6.4854
   417.46         6.4400
   417.60         6.4394
   417.74         6.4776
   417.88         6.5453
   418.02         6.6327
   418.16         6.7302
   418.30         6.8282
   418.44         6.9161
   418.58         6.9825
   418.72         7.0192
   418.86         7.0237
   419.00         6.9987
   419.14         6.9494
   419.28         6.8820
   419.42         6.8027
   419.56         6.7181
   419.70         6.6346
   419.84         6.5579
   419.98         6.4916
   420.12         6.4373
   420.26         6.3930
   420.40         6.3541
   420.54         6.3147
   420.68         6.2685
   420.82         6.2081
   420.96         6.1253
   421.10         6.0125
   421.24         5.8636
   421.38         5.6752
   421.52         5.4469
   421.66         5.1832
   421.80         4.8949
   421.94         4.5979
   422.08         4.3115
   422.22         4.0550
   422.36         3.8452
   422.50         3.6959
   422.64         3.6176
   422.78         3.6160
   422.92         3.6920
   423.06         3.8437
   423.20         4.0663
   423.34         4.3499
   423.48         4.6781
   423.62         5.0294
   423.76         5.3801
   423.90         5.7066
   424.04         5.9882
   424.18         6.2102
   424.32         6.3652
   424.46         6.4525
   424.60         6.4765
   424.74         6.4448
   424.88         6.3687
   425.02         6.2634
   425.16         6.1471
   425.30         6.0378
   425.44         5.9509
   425.58         5.8985
   425.72         5.8875
   425.86         5.9168
   426.00         5.9761
   426.14         6.0486
   426.28         6.1160
   426.42         6.1627
   426.56         6.1782
   426.70         6.1595
   426.84         6.1103
   426.98         6.0387
   427.12         5.9551
   427.26         5.8705
   427.40         5.7947
   427.54         5.7342
   427.68         5.6908
   427.82         5.6615
   427.96         5.6411
   428.10         5.6249
   428.24         5.6109
   428.38         5.5983
   428.52         5.5864
   428.66         5.5748
   428.80         5.5645
   428.94         5.5584
   429.08         5.5604
   429.22         5.5733
   429.36         5.5968
   429.50         5.6264
   429.64         5.6561
   429.78         5.6817
   429.92         5.7016
   430.06         5.7151
   430.20         5.7220
   430.34         5.7232
   430.48         5.7230
   430.62         5.7286
   430.76         5.7470
   430.90         5.7819
   431.04         5.8321
   431.18         5.8932
   431.32         5.9587
   431.46         6.0235
   431.60         6.0860
   431.74         6.1479
   431.88         6.2112
   432.02         6.2768
   432.16         6.3477
   432.30         6.4287
   432.44         6.5235
   432.58         6.6297
   432.72         6.7381
   432.86         6.8368
   433.00         6.9166
   433.14         6.9727
   433.28         7.0036
   433.42         7.0092
   433.56         6.9915
   433.70         6.9544
   433.84         6.9033
   433.98         6.8433
   434.12         6.7795
   434.26         6.7172
   434.40         6.6600
   434.54         6.6094
   434.68         6.5655
   434.82         6.5272
   434.96         6.4914
   435.10         6.4542
   435.24         6.4134
   435.38         6.3706
   435.52         6.3315
   435.66         6.3031
   435.80         6.2909
   435.94         6.2975
   436.08         6.3234
   436.22         6.3663
   436.36         6.4215
   436.50         6.4832
   436.64         6.5466
   436.78         6.6096
   436.92         6.6733
   437.06         6.7380
   437.20         6.8013
   437.34         6.8592
   437.48         6.9090
   437.62         6.9503
   437.76         6.9823
   437.90         7.0034
   438.04         7.0128
   438.18         7.0102
   438.32         6.9960
   438.46         6.9714
   438.60         6.9395
   438.74         6.9034
   438.88         6.8661
   439.02         6.8307
   439.16         6.7998
   439.30         6.7731
   439.44         6.7472
   439.58         6.7175
   439.72         6.6816
   439.86         6.6416
   440.00         6.6051
   440.14         6.5822
   440.28         6.5798
   440.42         6.6018
   440.56         6.6510
   440.70         6.7279
   440.84         6.8292
   440.98         6.9452
   441.12         7.0619
   441.26         7.1630
   441.40         7.2315
   441.54         7.2531
   441.68         7.2192
   441.82         7.1285
   441.96         6.9873
   442.10         6.8093
   442.24         6.6120
   442.38         6.4125
   442.52         6.2259
   442.66         6.0638
   442.80         5.9336
   442.94         5.8382
   443.08         5.7772
   443.22         5.7481
   443.36         5.7461
   443.50         5.7658
   443.64         5.8023
   443.78         5.8526
   443.92         5.9160
   444.06         5.9920
   444.20         6.0787
   444.34         6.1725
   444.48         6.2680
   444.62         6.3571
   444.76         6.4293
   444.90         6.4721
   445.04         6.4751
   445.18         6.4325
   445.32         6.3430
   445.46         6.2084
   445.60         6.0343
   445.74         5.8307
   445.88         5.6112
   446.02         5.3899
   446.16         5.1799
   446.30         4.9919
   446.44         4.8348
   446.58         4.7154
   446.72         4.6373
   446.86         4.6004
   447.00         4.6017
   447.14         4.6366
   447.28         4.6994
   447.42         4.7836
   447.56         4.8828
   447.70         4.9916
   447.84         5.1060
   447.98         5.2229
   448.12         5.3403
   448.26         5.4562
   448.40         5.5678
   448.54         5.6715
   448.68         5.7649
   448.82         5.8465
   448.96         5.9155
   449.10         5.9710
   449.24         6.0119
   449.38         6.0356
   449.52         6.0388
   449.66         6.0203
   449.80         5.9822
   449.94         5.9274
   450.08         5.8595
   450.22         5.7829
   450.36         5.7035
   450.50         5.6280
   450.64         5.5626
   450.78         5.5131
   450.92         5.4837
   451.06         5.4771
   451.20         5.4944
   451.34         5.5341
   451.48         5.5914
   451.62         5.6597
   451.76         5.7331
   451.90         5.8068
   452.04         5.8767
   452.18         5.9391
   452.32         5.9922
   452.46         6.0368
   452.60         6.0763
   452.74         6.1154
   452.88         6.1582
   453.02         6.2072
   453.16         6.2628
   453.30         6.3240
   453.44         6.3868
   453.58         6.4447
   453.72         6.4900
   453.86         6.5158
   454.00         6.5168
   454.14         6.4899
   454.28         6.4362
   454.42         6.3622
   454.56         6.2777
   454.70         6.1941
   454.84         6.1241
   454.98         6.0806
   455.12         6.0747
   455.26         6.1139
   455.40         6.2004
   455.54         6.3328
   455.68         6.5063
   455.82         6.7131
   455.96         6.9425
   456.10         7.1838
   456.24         7.4269
   456.38         7.6641
   456.52         7.8885
   456.66         8.0931
   456.80         8.2718
   456.94         8.4196
   457.08         8.5298
   457.22         8.5903
   457.36         8.5846
   457.50         8.4968
   457.64         8.3170
   457.78         8.0456
   457.92         7.6926
   458.06         7.2745
   458.20         6.8121
   458.34         6.3300
   458.48         5.8550
   458.62         5.4140
   458.76         5.0308
   458.90         4.7240
   459.04         4.5047
   459.18         4.3744
   459.32         4.3268
   459.46         4.3498
   459.60         4.4285
   459.74         4.5474
   459.88         4.6936
   460.02         4.8601
   460.16         5.0449
   460.30         5.2492
   460.44         5.4740
   460.58         5.7179
   460.72         5.9761
   460.86         6.2412
   461.00         6.5033
   461.14         6.7493
   461.28         6.9630
   461.42         7.1260
   461.56         7.2200
   461.70         7.2309
   461.84         7.1520
   461.98         6.9860
   462.12         6.7435
   462.26         6.4417
   462.40         6.1012
   462.54         5.7431
   462.68         5.3884
   462.82         5.0565
   462.96         4.7642
   463.10         4.5236
   463.24         4.3409
   463.38         4.2166
   463.52         4.1465
   463.66         4.1234
   463.80         4.1373
   463.94         4.1775
   464.08         4.2345
   464.22         4.3020
   464.36         4.3768
   464.50         4.4585
   464.64         4.5474
   464.78         4.6450
   464.92         4.7529
   465.06         4.8733
   465.20         5.0081
   465.34         5.1574
   465.48         5.3165
   465.62         5.4765
   465.76         5.6257
   465.90         5.7520
   466.04         5.8442
   466.18         5.8940
   466.32         5.8980
   466.46         5.8576
   466.60         5.7788
   466.74         5.6714
   466.88         5.5467
   467.02         5.4173
   467.16         5.2962
   467.30         5.1964
   467.44         5.1282
   467.58         5.0987
   467.72         5.1125
   467.86         5.1704
   468.00         5.2684
   468.14         5.3990
   468.28         5.5550
   468.42         5.7312
   468.56         5.9227
   468.70         6.1254
   468.84         6.3355
   468.98         6.5498
   469.12         6.7656
   469.26         6.9791
   469.40         7.1843
   469.54         7.3741
   469.68         7.5431
   469.82         7.6889
   469.96         7.8112
   470.10         7.9095
   470.24         7.9827
   470.38         8.0286
   470.52         8.0449
   470.66         8.0311
   470.80         7.9904
   470.94         7.9292
   471.08         7.8553
   471.22         7.7768
   471.36         7.7032
   471.50         7.6448
   471.64         7.6110
   471.78         7.6084
   471.92         7.6397
   472.06         7.7057
   472.20         7.8067
   472.34         7.9408
   472.48         8.1009
   472.62         8.2735
   472.76         8.4433
   472.90         8.5975
   473.04         8.7273
   473.18         8.8298
   473.32         8.9076
   473.46         8.9672
   473.60         9.0178
   473.74         9.0704
   473.88         9.1370
   474.02         9.2294
   474.16         9.3577
   474.30         9.5275
   474.44         9.7385
   474.58         9.9812
   474.72         10.2340
   474.86         10.4620
   475.00         10.6224
   475.14         10.6729
   475.28         10.5810
   475.42         10.3287
   475.56         9.9130
   475.70         9.3458
   475.84         8.6525
   475.98         7.8704
   476.12         7.0445
   476.26         6.2238
   476.40         5.4574
   476.54         4.7883
   476.68         4.2481
   476.82         3.8535
   476.96         3.6053
   477.10         3.4897
   477.24         3.4807
   477.38         3.5470
   477.52         3.6591
   477.66         3.7945
   477.80         3.9383
   477.94         4.0821
   478.08         4.2223
   478.22         4.3590
   478.36         4.4944
   478.50         4.6321
   478.64         4.7772
   478.78         4.9355
   478.92         5.1106
   479.06         5.2995
   479.20         5.4917
   479.34         5.6704
   479.48         5.8180
   479.62         5.9186
   479.76         5.9604
   479.90         5.9366
   480.04         5.8468
   480.18         5.6978
   480.32         5.5021
   480.46         5.2780
   480.60         5.0466
   480.74         4.8293
   480.88         4.6449
   481.02         4.5074
   481.16         4.4262
   481.30         4.4046
   481.44         4.4384
   481.58         4.5162
   481.72         4.6223
   481.86         4.7411
   482.00         4.8624
   482.14         4.9816
   482.28         5.0994
   482.42         5.2186
   482.56         5.3431
   482.70         5.4761
   482.84         5.6187
   482.98         5.7690
   483.12         5.9222
   483.26         6.0723
   483.40         6.2127
   483.54         6.3362
   483.68         6.4352
   483.82         6.5022
   483.96         6.5320
   484.10         6.5230
   484.24         6.4778
   484.38         6.4029
   484.52         6.3078
   484.66         6.2039
   484.80         6.1023
   484.94         6.0120
   485.08         5.9397
   485.22         5.8900
   485.36         5.8659
   485.50         5.8691
   485.64         5.8993
   485.78         5.9548
   485.92         6.0334
   486.06         6.1303
   486.20         6.2392
   486.34         6.3540
   486.48         6.4706
   486.62         6.5879
   486.76         6.7061
   486.90         6.8245
   487.04         6.9425
   487.18         7.0608
   487.32         7.1819
   487.46         7.3084
   487.60         7.4426
   487.74         7.5865
   487.88         7.7413
   488.02         7.9059
   488.16         8.0763
   488.30         8.2473
   488.44         8.4146
   488.58         8.5754
   488.72         8.7268
   488.86         8.8680
   489.00         9.0006
   489.14         9.1283
   489.28         9.2556
   489.42         9.3879
   489.56         9.5305
   489.70         9.6886
   489.84         9.8660
   489.98         10.0652
   490.12         10.2871
   490.26         10.5306
   490.40         10.7920
   490.54         11.0645
   490.68         11.3391
   490.82         11.6073
   490.96         11.8622
   491.10         12.0994
   491.24         12.3170
   491.38         12.5157
   491.52         12.7000
   491.66         12.8793
   491.80         13.0657
   491.94         13.2710
   492.08         13.5024
   492.22         13.7606
   492.36         14.0429
   492.50         14.3472
   492.64         14.6706
   492.78         15.0057
   492.92         15.3419
   493.06         15.6686
   493.20         15.9780
   493.34         16.2683
   493.48         16.5426
   493.62         16.8071
   493.76         17.0693
   493.90         17.3368
   494.04         17.6105
   494.18         17.8746
   494.32         18.0880
   494.46         18.1879
   494.60         18.1054
   494.74         17.7836
   494.88         17.1895
   495.02         16.3186
   495.16         15.1934
   495.30         13.8573
   495.44         12.3723
   495.58         10.8160
   495.72         9.2739
   495.86         7.8297
   496.00         6.5556
   496.14         5.5035
   496.28         4.7009
   496.42         4.1504
   496.56         3.8299
   496.70         3.6939
   496.84         3.6824
   496.98         3.7374
   497.12         3.8181
   497.26         3.9051
   497.40         3.9926
   497.54         4.0803
   497.68         4.1693
   497.82         4.2617
   497.96         4.3599
   498.10         4.4655
   498.24         4.5797
   498.38         4.7032
   498.52         4.8353
   498.66         4.9726
   498.80         5.1080
   498.94         5.2318
   499.08         5.3338
   499.22         5.4065
   499.36         5.4445
   499.50         5.4457
   499.64         5.4113
   499.78         5.3473
   499.92         5.2621
   500.06         5.1646
   500.20         5.0627
   500.34         4.9647
   500.48         4.8791
   500.62         4.8135
   500.76         4.7729
   500.90         4.7604
   501.04         4.7763
   501.18         4.8176
   501.32         4.8783
   501.46         4.9527
   501.60         5.0388
   501.74         5.1385
   501.88         5.2551
   502.02         5.3894
   502.16         5.5408
   502.30         5.7080
   502.44         5.8890
   502.58         6.0814
   502.72         6.2820
   502.86         6.4887
   503.00         6.7010
   503.14         6.9199
   503.28         7.1463
   503.42         7.3808
   503.56         7.6229
   503.70         7.8709
   503.84         8.1200
   503.98         8.3633
   504.12         8.5935
   504.26         8.8053
   504.40         8.9963
   504.54         9.1673
   504.68         9.3209
   504.82         9.4611
   504.96         9.5933
   505.10         9.7230
   505.24         9.8545
   505.38         9.9913
   505.52         10.1372
   505.66         10.2967
   505.80         10.4738
   505.94         10.6711
   506.08         10.8871
   506.22         11.1180
   506.36         11.3580
   506.50         11.6005
   506.64         11.8396
   506.78         12.0712
   506.92         12.2925
   507.06         12.5021
   507.20         12.6994
   507.34         12.8845
   507.48         13.0603
   507.62         13.2312
   507.76         13.4013
   507.90         13.5741
   508.04         13.7544
   508.18         13.9478
   508.32         14.1591
   508.46         14.3889
   508.60         14.6313
   508.74         14.8758
   508.88         15.1111
   509.02         15.3282
   509.16         15.5204
   509.30         15.6838
   509.44         15.8188
   509.58         15.9293
   509.72         16.0202
   509.86         16.0940
   510.00         16.1531
   510.14         16.2018
   510.28         16.2481
   510.42         16.3061
   510.56         16.3938
   510.70         16.5281
   510.84         16.7201
   510.98         16.9713
   511.12         17.2731
   511.26         17.6096
   511.40         17.9631
   511.54         18.3161
   511.68         18.6524
   511.82         18.9600
   511.96         19.2343
   512.10         19.4768
   512.24         19.6912
   512.38         19.8816
   512.52         20.0541
   512.66         20.2146
   512.80         20.3676
   512.94         20.5161
   513.08         20.6585
   513.22         20.7856
   513.36         20.8842
   513.50         20.9426
   513.64         20.9541
   513.78         20.9191
   513.92         20.8438
   514.06         20.7372
   514.20         20.6137
   514.34         20.4959
   514.48         20.4107
   514.62         20.3815
   514.76         20.4244
   514.90         20.5481
   515.04         20.7524
   515.18         21.0260
   515.32         21.3381
   515.46         21.6317
   515.60         21.8259
   515.74         21.8313
   515.88         21.5692
   516.02         20.9864
   516.16         20.0618
   516.30         18.8081
   516.44         17.2707
   516.58         15.5226
   516.72         13.6591
   516.86         11.7894
   517.00         10.0220
   517.14         8.4498
   517.28         7.1403
   517.42         6.1321
   517.56         5.4325
   517.70         5.0176
   517.84         4.8380
   517.98         4.8273
   518.12         4.9183
   518.26         5.0605
   518.40         5.2280
   518.54         5.4117
   518.68         5.6091
   518.82         5.8185
   518.96         6.0368
   519.10         6.2583
   519.24         6.4747
   519.38         6.6754
   519.52         6.8509
   519.66         6.9945
   519.80         7.1031
   519.94         7.1782
   520.08         7.2269
   520.22         7.2599
   520.36         7.2893
   520.50         7.3261
   520.64         7.3796
   520.78         7.4570
   520.92         7.5647
   521.06         7.7063
   521.20         7.8798
   521.34         8.0774
   521.48         8.2883
   521.62         8.5027
   521.76         8.7144
   521.90         8.9213
   522.04         9.1257
   522.18         9.3329
   522.32         9.5492
   522.46         9.7802
   522.60         10.0281
   522.74         10.2874
   522.88         10.5456
   523.02         10.7879
   523.16         11.0001
   523.30         11.1698
   523.44         11.2866
   523.58         11.3436
   523.72         11.3389
   523.86         11.2760
   524.00         11.1656
   524.14         11.0264
   524.28         10.8822
   524.42         10.7581
   524.56         10.6771
   524.70         10.6567
   524.84         10.7042
   524.98         10.8155
   525.12         10.9763
   525.26         11.1644
   525.40         11.3545
   525.54         11.5249
   525.68         11.6584
   525.82         11.7429
   525.96         11.7743
   526.10         11.7589
   526.24         11.7126
   526.38         11.6563
   526.52         11.6117
   526.66         11.5986
   526.80         11.6334
   526.94         11.7255
   527.08         11.8785
   527.22         12.0895
   527.36         12.3489
   527.50         12.6416
   527.64         12.9523
   527.78         13.2696
   527.92         13.5861
   528.06         13.8982
   528.20         14.2046
   528.34         14.5034
   528.48         14.7914
   528.62         15.0647
   528.76         15.3195
   528.90         15.5519
   529.04         15.7606
   529.18         15.9486
   529.32         16.1210
   529.46         16.2793
   529.60         16.4197
   529.74         16.5350
   529.88         16.6161
   530.02         16.6539
   530.16         16.6415
   530.30         16.5767
   530.44         16.4630
   530.58         16.3080
   530.72         16.1215
   530.86         15.9158
   531.00         15.7048
   531.14         15.5043
   531.28         15.3319
   531.42         15.2012
   531.56         15.1169
   531.70         15.0748
   531.84         15.0656
   531.98         15.0758
   532.12         15.0905
   532.26         15.0998
   532.40         15.1015
   532.54         15.0990
   532.68         15.0985
   532.82         15.1072
   532.96         15.1314
   533.10         15.1755
   533.24         15.2418
   533.38         15.3294
   533.52         15.4355
   533.66         15.5573
   533.80         15.6937
   533.94         15.8467
   534.08         16.0205
   534.22         16.2215
   534.36         16.4550
   534.50         16.7195
   534.64         17.0020
   534.78         17.2808
   534.92         17.5314
   535.06         17.7302
   535.20         17.8565
   535.34         17.8947
   535.48         17.8371
   535.62         17.6859
   535.76         17.4533
   535.90         17.1582
   536.04         16.8259
   536.18         16.4888
   536.32         16.1821
   536.46         15.9367
   536.60         15.7742
   536.74         15.7053
   536.88         15.7287
   537.02         15.8332
   537.16         16.0014
   537.30         16.2130
   537.44         16.4495
   537.58         16.6955
   537.72         16.9359
   537.86         17.1554
   538.00         17.3413
   538.14         17.4861
   538.28         17.5852
   538.42         17.6348
   538.56         17.6365
   538.70         17.6025
   538.84         17.5530
   538.98         17.5097
   539.12         17.4904
   539.26         17.5072
   539.40         17.5631
   539.54         17.6517
   539.68         17.7597
   539.82         17.8701
   539.96         17.9666
   540.10         18.0378
   540.24         18.0771
   540.38         18.0820
   540.52         18.0564
   540.66         18.0122
   540.80         17.9648
   540.94         17.9299
   541.08         17.9230
   541.22         17.9589
   541.36         18.0477
   541.50         18.1892
   541.64         18.3708
   541.78         18.5705
   541.92         18.7627
   542.06         18.9240
   542.20         19.0375
   542.34         19.0957
   542.48         19.1020
   542.62         19.0706
   542.76         19.0244
   542.90         18.9902
   543.04         18.9941
   543.18         19.0560
   543.32         19.1828
   543.46         19.3600
   543.60         19.5487
   543.74         19.6929
   543.88         19.7319
   544.02         19.6105
   544.16         19.2873
   544.30         18.7398
   544.44         17.9690
   544.58         17.0006
   544.72         15.8829
   544.86         14.6816
   545.00         13.4736
   545.14         12.3365
   545.28         11.3385
   545.42         10.5292
   545.56         9.9343
   545.70         9.5544
   545.84         9.3676
   545.98         9.3339
   546.12         9.4036
   546.26         9.5305
   546.40         9.6816
   546.54         9.8387
   546.68         9.9937
   546.82         10.1443
   546.96         10.2916
   547.10         10.4389
   547.24         10.5910
   547.38         10.7531
   547.52         10.9297
   547.66         11.1229
   547.80         11.3309
   547.94         11.5497
   548.08         11.7741
   548.22         11.9990
   548.36         12.2180
   548.50         12.4220
   548.64         12.5987
   548.78         12.7346
   548.92         12.8181
   549.06         12.8416
   549.20         12.8020
   549.34         12.7023
   549.48         12.5514
   549.62         12.3640
   549.76         12.1591
   549.90         11.9568
   550.04         11.7757
   550.18         11.6309
   550.32         11.5338
   550.46         11.4925
   550.60         11.5130
   550.74         11.5978
   550.88         11.7429
   551.02         11.9382
   551.16         12.1682
   551.30         12.4161
   551.44         12.6666
   551.58         12.9072
   551.72         13.1284
   551.86         13.3242
   552.00         13.4918
   552.14         13.6306
   552.28         13.7424
   552.42         13.8308
   552.56         13.9010
   552.70         13.9602
   552.84         14.0179
   552.98         14.0860
   553.12         14.1767
   553.26         14.2988
   553.40         14.4548
   553.54         14.6400
   553.68         14.8446
   553.82         15.0566
   553.96         15.2645
   554.10         15.4567
   554.24         15.6229
   554.38         15.7548
   554.52         15.8465
   554.66         15.8952
   554.80         15.9018
   554.94         15.8712
   555.08         15.8113
   555.22         15.7329
   555.36         15.6472
   555.50         15.5638
   555.64         15.4887
   555.78         15.4228
   555.92         15.3619
   556.06         15.2980
   556.20         15.2227
   556.34         15.1304
   556.48         15.0203
   556.62         14.8952
   556.76         14.7605
   556.90         14.6225
   557.04         14.4888
   557.18         14.3666
   557.32         14.2619
   557.46         14.1785
   557.60         14.1182
   557.74         14.0811
   557.88         14.0660
   558.02         14.0688
   558.16         14.0820
   558.30         14.0958
   558.44         14.0989
   558.58         14.0798
   558.72         14.0275
   558.86         13.9345
   559.00         13.7991
   559.14         13.6252
   559.28         13.4186
   559.42         13.1855
   559.56         12.9328
   559.70         12.6700
   559.84         12.4093
   559.98         12.1642
   560.12         11.9478
   560.26         11.7705
   560.40         11.6369
   560.54         11.5443
   560.68         11.4833
   560.82         11.4406
   560.96         11.4031
   561.10         11.3598
   561.24         11.3038
   561.38         11.2337
   561.52         11.1530
   561.66         11.0684
   561.80         10.9852
   561.94         10.9070
   562.08         10.8371
   562.22         10.7806
   562.36         10.7435
   562.50         10.7305
   562.64         10.7418
   562.78         10.7733
   562.92         10.8177
   563.06         10.8671
   563.20         10.9155
   563.34         10.9607
   563.48         11.0043
   563.62         11.0500
   563.76         11.1021
   563.90         11.1646
   564.04         11.2409
   564.18         11.3336
   564.32         11.4458
   564.46         11.5805
   564.60         11.7397
   564.74         11.9230
   564.88         12.1268
   565.02         12.3438
   565.16         12.5625
   565.30         12.7687
   565.44         12.9489
   565.58         13.0923
   565.72         13.1914
   565.86         13.2424
   566.00         13.2450
   566.14         13.2026
   566.28         13.1228
   566.42         13.0165
   566.56         12.8977
   566.70         12.7810
   566.84         12.6809
   566.98         12.6107
   567.12         12.5805
   567.26         12.5959
   567.40         12.6576
   567.54         12.7632
   567.68         12.9061
   567.82         13.0769
   567.96         13.2655
   568.10         13.4619
   568.24         13.6572
   568.38         13.8443
   568.52         14.0187
   568.66         14.1793
   568.80         14.3270
   568.94         14.4640
   569.08         14.5933
   569.22         14.7184
   569.36         14.8434
   569.50         14.9745
   569.64         15.1190
   569.78         15.2827
   569.92         15.4684
   570.06         15.6748
   570.20         15.8963
   570.34         16.1227
   570.48         16.3410
   570.62         16.5368
   570.76         16.6954
   570.90         16.8053
   571.04         16.8611
   571.18         16.8633
   571.32         16.8169
   571.46         16.7302
   571.60         16.6139
   571.74         16.4823
   571.88         16.3531
   572.02         16.2466
   572.16         16.1817
   572.30         16.1699
   572.44         16.2118
   572.58         16.2989
   572.72         16.4163
   572.86         16.5463
   573.00         16.6731
   573.14         16.7844
   573.28         16.8725
   573.42         16.9351
   573.56         16.9763
   573.70         17.0047
   573.84         17.0305
   573.98         17.0649
   574.12         17.1188
   574.26         17.2024
   574.40         17.3235
   574.54         17.4840
   574.68         17.6763
   574.82         17.8823
   574.96         18.0751
   575.10         18.2266
   575.24         18.3147
   575.38         18.3262
   575.52         18.2569
   575.66         18.1116
   575.80         17.9028
   575.94         17.6490
   576.08         17.3727
   576.22         17.0987
   576.36         16.8504
   576.50         16.6478
   576.64         16.5052
   576.78         16.4292
   576.92         16.4188
   577.06         16.4660
   577.20         16.5584
   577.34         16.6830
   577.48         16.8283
   577.62         16.9863
   577.76         17.1536
   577.90         17.3310
   578.04         17.5216
   578.18         17.7287
   578.32         17.9553
   578.46         18.2028
   578.60         18.4701
   578.74         18.7555
   578.88         19.0563
   579.02         19.3695
   579.16         19.6901
   579.30         20.0123
   579.44         20.3303
   579.58         20.6385
   579.72         20.9294
   579.86         21.1909
   580.00         21.4049
   580.14         21.5492
   580.28         21.6022
   580.42         21.5488
   580.56         21.3840
   580.70         21.1124
   580.84         20.7471
   580.98         20.3091
   581.12         19.8260
   581.26         19.3291
   581.40         18.8497
   581.54         18.4158
   581.68         18.0510
   581.82         17.7730
   581.96         17.5926
   582.10         17.5142
   582.24         17.5330
   582.38         17.6345
   582.52         17.7970
   582.66         17.9934
   582.80         18.1954
   582.94         18.3796
   583.08         18.5288
   583.22         18.6312
   583.36         18.6764
   583.50         18.6522
   583.64         18.5445
   583.78         18.3387
   583.92         18.0249
   584.06         17.6015
   584.20         17.0780
   584.34         16.4740
   584.48         15.8162
   584.62         15.1345
   584.76         14.4599
   584.90         13.8201
   585.04         13.2372
   585.18         12.7268
   585.32         12.3003
   585.46         11.9671
   585.60         11.7336
   585.74         11.5979
   585.88         11.5447
   586.02         11.5475
   586.16         11.5756
   586.30         11.6008
   586.44         11.6015
   586.58         11.5652
   586.72         11.4873
   586.86         11.3701
   587.00         11.2221
   587.14         11.0557
   587.28         10.8859
   587.42         10.7262
   587.56         10.5853
   587.70         10.4671
   587.84         10.3758
   587.98         10.3163
   588.12         10.2910
   588.26         10.2957
   588.40         10.3205
   588.54         10.3536
   588.68         10.3830
   588.82         10.3994
   588.96         10.3968
   589.10         10.3726
   589.24         10.3262
   589.38         10.2597
   589.52         10.1764
   589.66         10.0800
   589.80         9.9743
   589.94         9.8628
   590.08         9.7499
   590.22         9.6427
   590.36         9.5515
   590.50         9.4873
   590.64         9.4573
   590.78         9.4629
   590.92         9.5009
   591.06         9.5662
   591.20         9.6525
   591.34         9.7529
   591.48         9.8620
   591.62         9.9754
   591.76         10.0875
   591.90         10.1940
   592.04         10.2939
   592.18         10.3888
   592.32         10.4818
   592.46         10.5765
   592.60         10.6768
   592.74         10.7865
   592.88         10.9085
   593.02         11.0434
   593.16         11.1906
   593.30         11.3490
   593.44         11.5155
   593.58         11.6847
   593.72         11.8482
   593.86         11.9973
   594.00         12.1255
   594.14         12.2292
   594.28         12.3051
   594.42         12.3505
   594.56         12.3648
   594.70         12.3504
   594.84         12.3119
   594.98         12.2567
   595.12         12.1939
   595.26         12.1330
   595.40         12.0829
   595.54         12.0512
   595.68         12.0438
   595.82         12.0644
   595.96         12.1131
   596.10         12.1865
   596.24         12.2787
   596.38         12.3835
   596.52         12.4968
   596.66         12.6158
   596.80         12.7375
   596.94         12.8594
   597.08         12.9805
   597.22         13.1028
   597.36         13.2295
   597.50         13.3626
   597.64         13.5022
   597.78         13.6487
   597.92         13.8036
   598.06         13.9709
   598.20         14.1546
   598.34         14.3578
   598.48         14.5806
   598.62         14.8188
   598.76         15.0638
   598.90         15.3041
   599.04         15.5301
   599.18         15.7349
   599.32         15.9130
   599.46         16.0588
   599.60         16.1670
   599.74         16.2338
   599.88         16.2600
   600.02         16.2516
   600.16         16.2183
   600.30         16.1745
   600.44         16.1373
   600.58         16.1233
   600.72         16.1445
   600.86         16.2072
   601.00         16.3123
   601.14         16.4553
   601.28         16.6277
   601.42         16.8194
   601.56         17.0204
   601.70         17.2215
   601.84         17.4130
   601.98         17.5855
   602.12         17.7340
   602.26         17.8590
   602.40         17.9623
   602.54         18.0453
   602.68         18.1106
   602.82         18.1634
   602.96         18.2115
   603.10         18.2632
   603.24         18.3262
   603.38         18.4071
   603.52         18.5107
   603.66         18.6401
   603.80         18.7942
   603.94         18.9684
   604.08         19.1560
   604.22         19.3496
   604.36         19.5429
   604.50         19.7308
   604.64         19.9082
   604.78         20.0696
   604.92         20.2079
   605.06         20.3168
   605.20         20.3952
   605.34         20.4492
   605.48         20.4884
   605.62         20.5227
   605.76         20.5607
   605.90         20.6089
   606.04         20.6717
   606.18         20.7519
   606.32         20.8500
   606.46         20.9633
   606.60         21.0847
   606.74         21.2040
   606.88         21.3107
   607.02         21.3963
   607.16         21.4554
   607.30         21.4854
   607.44         21.4865
   607.58         21.4623
   607.72         21.4207
   607.86         21.3744
   608.00         21.3383
   608.14         21.3282
   608.28         21.3563
   608.42         21.4298
   608.56         21.5513
   608.70         21.7186
   608.84         21.9227
   608.98         22.1490
   609.12         22.3817
   609.26         22.6080
   609.40         22.8198
   609.54         23.0140
   609.68         23.1896
   609.82         23.3472
   609.96         23.4904
   610.10         23.6252
   610.24         23.7581
   610.38         23.8937
   610.52         24.0333
   610.66         24.1742
   610.80         24.3118
   610.94         24.4409
   611.08         24.5578
   611.22         24.6617
   611.36         24.7537
   611.50         24.8366
   611.64         24.9162
   611.78         24.9985
   611.92         25.0822
   612.06         25.1587
   612.20         25.2177
   612.34         25.2528
   612.48         25.2637
   612.62         25.2545
   612.76         25.2317
   612.90         25.2039
   613.04         25.1831
   613.18         25.1835
   613.32         25.2167
   613.46         25.2827
   613.60         25.3639
   613.74         25.4301
   613.88         25.4478
   614.02         25.3864
   614.16         25.2194
   614.30         24.9270
   614.44         24.4960
   614.58         23.9192
   614.72         23.1990
   614.86         22.3500
   615.00         21.3970
   615.14         20.3721
   615.28         19.3115
   615.42         18.2519
   615.56         17.2275
   615.70         16.2671
   615.84         15.3919
   615.98         14.6137
   616.12         13.9364
   616.26         13.3618
   616.40         12.8961
   616.54         12.5455
   616.68         12.3102
   616.82         12.1803
   616.96         12.1382
   617.10         12.1592
   617.24         12.2140
   617.38         12.2765
   617.52         12.3265
   617.66         12.3509
   617.80         12.3415
   617.94         12.2932
   618.08         12.2035
   618.22         12.0744
   618.36         11.9123
   618.50         11.7276
   618.64         11.5340
   618.78         11.3468
   618.92         11.1820
   619.06         11.0560
   619.20         10.9814
   619.34         10.9653
   619.48         11.0084
   619.62         11.1046
   619.76         11.2424
   619.90         11.4077
   620.04         11.5863
   620.18         11.7637
   620.32         11.9247
   620.46         12.0553
   620.60         12.1463
   620.74         12.1957
   620.88         12.2063
   621.02         12.1817
   621.16         12.1240
   621.30         12.0351
   621.44         11.9189
   621.58         11.7814
   621.72         11.6311
   621.86         11.4778
   622.00         11.3317
   622.14         11.2015
   622.28         11.0937
   622.42         11.0131
   622.56         10.9617
   622.70         10.9387
   622.84         10.9418
   622.98         10.9702
   623.12         11.0246
   623.26         11.1061
   623.40         11.2124
   623.54         11.3384
   623.68         11.4781
   623.82         11.6282
   623.96         11.7895
   624.10         11.9645
   624.24         12.1542
   624.38         12.3581
   624.52         12.5746
   624.66         12.8008
   624.80         13.0340
   624.94         13.2725
   625.08         13.5126
   625.22         13.7465
   625.36         13.9650
   625.50         14.1623
   625.64         14.3362
   625.78         14.4861
   625.92         14.6126
   626.06         14.7201
   626.20         14.8155
   626.34         14.9044
   626.48         14.9897
   626.62         15.0715
   626.76         15.1489
   626.90         15.2235
   627.04         15.2989
   627.18         15.3792
   627.32         15.4674
   627.46         15.5664
   627.60         15.6790
   627.74         15.8073
   627.88         15.9542
   628.02         16.1249
   628.16         16.3224
   628.30         16.5438
   628.44         16.7816
   628.58         17.0257
   628.72         17.2650
   628.86         17.4885
   629.00         17.6881
   629.14         17.8605
   629.28         18.0097
   629.42         18.1456
   629.56         18.2805
   629.70         18.4252
   629.84         18.5880
   629.98         18.7767
   630.12         18.9996
   630.26         19.2627
   630.40         19.5674
   630.54         19.9082
   630.68         20.2737
   630.82         20.6484
   630.96         21.0144
   631.10         21.3533
   631.24         21.6488
   631.38         21.8909
   631.52         22.0770
   631.66         22.2099
   631.80         22.2954
   631.94         22.3418
   632.08         22.3611
   632.22         22.3697
   632.36         22.3858
   632.50         22.4263
   632.64         22.5066
   632.78         22.6397
   632.92         22.8321
   633.06         23.0830
   633.20         23.3849
   633.34         23.7239
   633.48         24.0823
   633.62         24.4407
   633.76         24.7812
   633.90         25.0866
   634.04         25.3386
   634.18         25.5192
   634.32         25.6140
   634.46         25.6141
   634.60         25.5176
   634.74         25.3306
   634.88         25.0674
   635.02         24.7483
   635.16         24.3986
   635.30         24.0480
   635.44         23.7265
   635.58         23.4595
   635.72         23.2683
   635.86         23.1693
   636.00         23.1732
   636.14         23.2844
   636.28         23.5005
   636.42         23.8098
   636.56         24.1926
   636.70         24.6257
   636.84         25.0857
   636.98         25.5491
   637.12         25.9916
   637.26         26.3886
   637.40         26.7189
   637.54         26.9695
   637.68         27.1352
   637.82         27.2188
   637.96         27.2322
   638.10         27.1962
   638.24         27.1371
   638.38         27.0843
   638.52         27.0637
   638.66         27.0970
   638.80         27.2002
   638.94         27.3811
   639.08         27.6411
   639.22         27.9766
   639.36         28.3788
   639.50         28.8343
   639.64         29.3269
   639.78         29.8363
   639.92         30.3394
   640.06         30.8134
   640.20         31.2369
   640.34         31.5890
   640.48         31.8505
   640.62         32.0082
   640.76         32.0534
   640.90         31.9787
   641.04         31.7822
   641.18         31.4727
   641.32         31.0718
   641.46         30.6097
   641.60         30.1198
   641.74         29.6376
   641.88         29.1960
   642.02         28.8240
   642.16         28.5449
   642.30         28.3753
   642.44         28.3225
   642.58         28.3875
   642.72         28.5657
   642.86         28.8487
   643.00         29.2262
   643.14         29.6848
   643.28         30.2067
   643.42         30.7666
   643.56         31.3335
   643.70         31.8759
   643.84         32.3648
   643.98         32.7771
   644.12         33.0978
   644.26         33.3231
   644.40         33.4617
   644.54         33.5327
   644.68         33.5619
   644.82         33.5769
   644.96         33.6027
   645.10         33.6622
   645.24         33.7773
   645.38         33.9660
   645.52         34.2389
   645.66         34.5997
   645.80         35.0447
   645.94         35.5586
   646.08         36.1122
   646.22         36.6641
   646.36         37.1694
   646.50         37.5904
   646.64         37.8961
   646.78         38.0593
   646.92         38.0568
   647.06         37.8725
   647.20         37.5025
   647.34         36.9581
   647.48         36.2667
   647.62         35.4711
   647.76         34.6272
   647.90         33.7937
   648.04         33.0221
   648.18         32.3506
   648.32         31.8021
   648.46         31.3811
   648.60         31.0779
   648.74         30.8773
   648.88         30.7670
   649.02         30.7402
   649.16         30.7917
   649.30         30.9150
   649.44         31.1009
   649.58         31.3391
   649.72         31.6203
   649.86         31.9391
   650.00         32.2878
   650.14         32.6521
   650.28         33.0147
   650.42         33.3572
   650.56         33.6622
   650.70         33.9175
   650.84         34.1210
   650.98         34.2829
   651.12         34.4230
   651.26         34.5661
   651.40         34.7390
   651.54         34.9660
   651.68         35.2639
   651.82         35.6393
   651.96         36.0889
   652.10         36.5998
   652.24         37.1536
   652.38         37.7330
   652.52         38.3215
   652.66         38.9011
   652.80         39.4554
   652.94         39.9708
   653.08         40.4328
   653.22         40.8239
   653.36         41.1278
   653.50         41.3306
   653.64         41.4185
   653.78         41.3777
   653.92         41.2023
   654.06         40.8987
   654.20         40.4841
   654.34         39.9842
   654.48         39.4327
   654.62         38.8690
   654.76         38.3322
   654.90         37.8529
   655.04         37.4450
   655.18         37.1060
   655.32         36.8238
   655.46         36.5809
   655.60         36.3558
   655.74         36.1274
   655.88         35.8806
   656.02         35.6084
   656.16         35.3109
   656.30         34.9963
   656.44         34.6815
   656.58         34.3871
   656.72         34.1326
   656.86         33.9342
   657.00         33.8050
   657.14         33.7519
   657.28         33.7750
   657.42         33.8688
   657.56         34.0254
   657.70         34.2361
   657.84         34.4915
   657.98         34.7767
   658.12         35.0668
   658.26         35.3306
   658.40         35.5406
   658.54         35.6766
   658.68         35.7258
   658.82         35.6844
   658.96         35.5583
   659.10         35.3611
   659.24         35.1118
   659.38         34.8355
   659.52         34.5610
   659.66         34.3139
   659.80         34.1126
   659.94         33.9688
   660.08         33.8861
   660.22         33.8584
   660.36         33.8684
   660.50         33.8914
   660.64         33.9046
   660.78         33.8935
   660.92         33.8513
   661.06         33.7744
   661.20         33.6577
   661.34         33.4934
   661.48         33.2778
   661.62         33.0153
   661.76         32.7181
   661.90         32.4032
   662.04         32.0879
   662.18         31.7846
   662.32         31.4998
   662.46         31.2362
   662.60         30.9949
   662.74         30.7753
   662.88         30.5744
   663.02         30.3905
   663.16         30.2243
   663.30         30.0781
   663.44         29.9506
   663.58         29.8330
   663.72         29.7070
   663.86         29.5473
   664.00         29.3289
   664.14         29.0358
   664.28         28.6599
   664.42         28.1967
   664.56         27.6461
   664.70         27.0152
   664.84         26.3226
   664.98         25.6007
   665.12         24.8950
   665.26         24.2566
   665.40         23.7328
   665.54         23.3588
   665.68         23.1535
   665.82         23.1169
   665.96         23.2321
   666.10         23.4687
   666.24         23.7879
   666.38         24.1474
   666.52         24.5058
   666.66         24.8264
   666.80         25.0741
   666.94         25.2148
   667.08         25.2228
   667.22         25.0866
   667.36         24.8102
   667.50         24.4122
   667.64         23.9229
   667.78         23.3802
   667.92         22.8232
   668.06         22.2885
   668.20         21.8083
   668.34         21.4107
   668.48         21.1190
   668.62         20.9484
   668.76         20.9036
   668.90         20.9773
   669.04         21.1506
   669.18         21.3970
   669.32         21.6881
   669.46         21.9992
   669.60         22.3131
   669.74         22.6188
   669.88         22.9062
   670.02         23.1612
   670.16         23.3638
   670.30         23.4920
   670.44         23.5264
   670.58         23.4532
   670.72         23.2674
   670.86         22.9741
   671.00         22.5889
   671.14         22.1355
   671.28         21.6433
   671.42         21.1441
   671.56         20.6701
   671.70         20.2512
   671.84         19.9120
   671.98         19.6694
   672.12         19.5305
   672.26         19.4936
   672.40         19.5480
   672.54         19.6760
   672.68         19.8562
   672.82         20.0715
   672.96         20.3123
   673.10         20.5720
   673.24         20.8443
   673.38         21.1207
   673.52         21.3900
   673.66         21.6416
   673.80         21.8676
   673.94         22.0630
   674.08         22.2252
   674.22         22.3541
   674.36         22.4528
   674.50         22.5279
   674.64         22.5887
   674.78         22.6456
   674.92         22.7087
   675.06         22.7874
   675.20         22.8917
   675.34         23.0321
   675.48         23.2183
   675.62         23.4549
   675.76         23.7400
   675.90         24.0671
   676.04         24.4286
   676.18         24.8187
   676.32         25.2334
   676.46         25.6675
   676.60         26.1112
   676.74         26.5477
   676.88         26.9517
   677.02         27.2908
   677.16         27.5324
   677.30         27.6524
   677.44         27.6398
   677.58         27.4975
   677.72         27.2419
   677.86         26.8998
   678.00         26.5045
   678.14         26.0927
   678.28         25.7014
   678.42         25.3656
   678.56         25.1159
   678.70         24.9752
   678.84         24.9554
   678.98         25.0560
   679.12         25.2647
   679.26         25.5592
   679.40         25.9108
   679.54         26.2924
   679.68         26.6852
   679.82         27.0808
   679.96         27.4765
   680.10         27.8675
   680.24         28.2444
   680.38         28.5957
   680.52         28.9113
   680.66         29.1855
   680.80         29.4171
   680.94         29.6090
   681.08         29.7666
   681.22         29.8980
   681.36         30.0149
   681.50         30.1303
   681.64         30.2570
   681.78         30.4065
   681.92         30.5875
   682.06         30.8064
   682.20         31.0659
   682.34         31.3622
   682.48         31.6852
   682.62         32.0215
   682.76         32.3586
   682.90         32.6894
   683.04         33.0139
   683.18         33.3384
   683.32         33.6710
   683.46         34.0170
   683.60         34.3739
   683.74         34.7300
   683.88         35.0663
   684.02         35.3599
   684.16         35.5891
   684.30         35.7372
   684.44         35.7951
   684.58         35.7628
   684.72         35.6504
   684.86         35.4758
   685.00         35.2644
   685.14         35.0458
   685.28         34.8483
   685.42         34.6898
   685.56         34.5687
   685.70         34.4665
   685.84         34.3572
   685.98         34.2172
   686.12         34.0304
   686.26         33.7915
   686.40         33.5102
   686.54         33.2126
   686.68         32.9399
   686.82         32.7442
   686.96         32.6757
   687.10         32.7710
   687.24         33.0467
   687.38         33.4971
   687.52         34.0955
   687.66         34.7976
   687.80         35.5460
   687.94         36.2778
   688.08         36.9378
   688.22         37.4923
   688.36         37.9371
   688.50         38.2928
   688.64         38.5951
   688.78         38.8853
   688.92         39.2031
   689.06         39.5851
   689.20         40.0603
   689.34         40.6482
   689.48         41.3560
   689.62         42.1736
   689.76         43.0761
   689.90         44.0353
   690.04         45.0260
   690.18         46.0257
   690.32         47.0145
   690.46         47.9740
   690.60         48.8815
   690.74         49.7061
   690.88         50.4127
   691.02         50.9670
   691.16         51.3413
   691.30         51.5232
   691.44         51.5193
   691.58         51.3534
   691.72         51.0627
   691.86         50.6918
   692.00         50.2906
   692.14         49.9095
   692.28         49.5936
   692.42         49.3819
   692.56         49.3061
   692.70         49.3835
   692.84         49.6136
   692.98         49.9826
   693.12         50.4663
   693.26         51.0340
   693.40         51.6581
   693.54         52.3237
   693.68         53.0276
   693.82         53.7706
   693.96         54.5517
   694.10         55.3603
   694.24         56.1751
   694.38         56.9701
   694.52         57.7206
   694.66         58.4061
   694.80         59.0151
   694.94         59.5515
   695.08         60.0335
   695.22         60.4877
   695.36         60.9443
   695.50         61.4378
   695.64         62.0046
   695.78         62.6765
   695.92         63.4717
   696.06         64.3914
   696.20         65.4248
   696.34         66.5511
   696.48         67.7385
   696.62         68.9441
   696.76         70.1257
   696.90         71.2554
   697.04         72.3194
   697.18         73.3100
   697.32         74.2247
   697.46         75.0653
   697.60         75.8262
   697.74         76.4829
   697.88         76.9984
   698.02         77.3394
   698.16         77.4859
   698.30         77.4327
   698.44         77.1909
   698.58         76.7886
   698.72         76.2721
   698.86         75.7029
   699.00         75.1483
   699.14         74.6678
   699.28         74.3043
   699.42         74.0884
   699.56         74.0402
   699.70         74.1654
   699.84         74.4559
   699.98         74.8912
   700.12         75.4409
   700.26         76.0682
   700.40         76.7347
   700.54         77.4128
   700.68         78.0899
   700.82         78.7599
   700.96         79.4168
   701.10         80.0468
   701.24         80.6288
   701.38         81.1402
   701.52         81.5620
   701.66         81.8816
   701.80         82.0962
   701.94         82.2194
   702.08         82.2844
   702.22         82.3366
   702.36         82.4140
   702.50         82.5309
   702.64         82.6795
   702.78         82.8423
   702.92         83.0008
   703.06         83.1412
   703.20         83.2580
   703.34         83.3485
   703.48         83.4089
   703.62         83.4352
   703.76         83.4290
   703.90         83.4005
   704.04         83.3469
   704.18         83.2175
   704.32         82.8970
   704.46         82.2247
   704.60         81.0387
   704.74         79.2084
   704.88         76.6528
   705.02         73.3522
   705.16         69.3614
   705.30         64.8147
   705.44         59.9103
   705.58         54.8880
   705.72         49.9995
   705.86         45.4806
   706.00         41.5321
   706.14         38.3011
   706.28         35.8652
   706.42         34.2239
   706.56         33.2985
   706.70         32.9449
   706.84         32.9900
   706.98         33.2790
   707.12         33.7074
   707.26         34.2190
   707.40         34.7746
   707.54         35.3276
   707.68         35.8167
   707.82         36.1737
   707.96         36.3376
   708.10         36.2635
   708.24         35.9264
   708.38         35.3235
   708.52         34.4766
   708.66         33.4311
   708.80         32.2504
   708.94         31.0111
   709.08         29.7967
   709.22         28.6902
   709.36         27.7652
   709.50         27.0773
   709.64         26.6559
   709.78         26.4987
   709.92         26.5751
   710.06         26.8322
   710.20         27.2073
   710.34         27.6448
   710.48         28.1112
   710.62         28.5927
   710.76         29.0844
   710.90         29.5871
   711.04         30.1045
   711.18         30.6352
   711.32         31.1611
   711.46         31.6423
   711.60         32.0243
   711.74         32.2524
   711.88         32.2862
   712.02         32.1037
   712.16         31.6994
   712.30         31.0843
   712.44         30.2874
   712.58         29.3550
   712.72         28.3510
   712.86         27.3501
   713.00         26.4278
   713.14         25.6491
   713.28         25.0587
   713.42         24.6779
   713.56         24.5044
   713.70         24.5116
   713.84         24.6537
   713.98         24.8780
   714.12         25.1400
   714.26         25.4156
   714.40         25.7009
   714.54         26.0010
   714.68         26.3187
   714.82         26.6511
   714.96         26.9948
   715.10         27.3465
   715.24         27.7023
   715.38         28.0569
   715.52         28.3995
   715.66         28.7158
   715.80         28.9934
   715.94         29.2261
   716.08         29.4128
   716.22         29.5544
   716.36         29.6536
   716.50         29.7197
   716.64         29.7678
   716.78         29.8166
   716.92         29.8868
   717.06         29.9962
   717.20         30.1550
   717.34         30.3643
   717.48         30.6164
   717.62         30.8974
   717.76         31.1927
   717.90         31.4922
   718.04         31.7885
   718.18         32.0731
   718.32         32.3382
   718.46         32.5791
   718.60         32.7897
   718.74         32.9597
   718.88         33.0802
   719.02         33.1500
   719.16         33.1753
   719.30         33.1631
   719.44         33.1200
   719.58         33.0519
   719.72         32.9637
   719.86         32.8619
   720.00         32.7600
   720.14         32.6826
   720.28         32.6646
   720.42         32.7429
   720.56         32.9457
   720.70         33.2838
   720.84         33.7546
   720.98         34.3520
   721.12         35.0641
   721.26         35.8690
   721.40         36.7375
   721.54         37.6409
   721.68         38.5528
   721.82         39.4451
   721.96         40.2894
   722.10         41.0611
   722.24         41.7372
   722.38         42.2957
   722.52         42.7224
   722.66         43.0187
   722.80         43.2048
   722.94         43.3111
   723.08         43.3681
   723.22         43.4058
   723.36         43.4540
   723.50         43.5463
   723.64         43.7210
   723.78         44.0158
   723.92         44.4613
   724.06         45.0712
   724.20         45.8350
   724.34         46.7187
   724.48         47.6808
   724.62         48.6870
   724.76         49.7061
   724.90         50.7108
   725.04         51.6889
   725.18         52.6459
   725.32         53.5962
   725.46         54.5474
   725.60         55.4918
   725.74         56.4209
   725.88         57.3368
   726.02         58.2376
   726.16         59.1011
   726.30         59.8905
   726.44         60.5668
   726.58         61.0918
   726.72         61.4312
   726.86         61.5689
   727.00         61.5279
   727.14         61.3687
   727.28         61.1628
   727.42         60.9779
   727.56         60.8817
   727.70         60.9360
   727.84         61.1791
   727.98         61.6231
   728.12         62.2573
   728.26         63.0520
   728.40         63.9627
   728.54         64.9307
   728.68         65.8946
   728.82         66.8136
   728.96         67.6808
   729.10         68.5112
   729.24         69.3226
   729.38         70.1297
   729.52         70.9501
   729.66         71.8132
   729.80         72.7503
   729.94         73.7828
   730.08         74.9208
   730.22         76.1579
   730.36         77.4691
   730.50         78.8217
   730.64         80.1898
   730.78         81.5542
   730.92         82.8992
   731.06         84.2175
   731.20         85.5140
   731.34         86.7981
   731.48         88.0718
   731.62         89.3283
   731.76         90.5608
   731.90         91.7756
   732.04         92.9895
   732.18         94.2145
   732.32         95.4507
   732.46         96.6848
   732.60         97.8983
   732.74         99.0877
   732.88         100.2689
   733.02         101.4665
   733.16         102.7098
   733.30         104.0170
   733.44         105.3723
   733.58         106.7267
   733.72         108.0274
   733.86         109.2351
   734.00         110.3200
   734.14         111.2578
   734.28         112.0353
   734.42         112.6574
   734.56         113.1400
   734.70         113.4922
   734.84         113.7201
   734.98         113.8554
   735.12         113.9648
   735.26         114.1254
   735.40         114.3977
   735.54         114.8110
   735.68         115.3715
   735.82         116.0804
   735.96         116.9337
   736.10         117.9238
   736.24         119.0536
   736.38         120.3313
   736.52         121.7496
   736.66         123.2771
   736.80         124.8678
   736.94         126.4797
   737.08         128.0755
   737.22         129.6145
   737.36         131.0612
   737.50         132.3970
   737.64         133.6171
   737.78         134.7161
   737.92         135.6814
   738.06         136.5031
   738.20         137.1855
   738.34         137.7502
   738.48         138.2326
   738.62         138.6712
   738.76         139.0957
   738.90         139.5244
   739.04         139.9699
   739.18         140.4520
   739.32         140.9994
   739.46         141.6353
   739.60         142.3626
   739.74         143.1609
   739.88         143.9968
   740.02         144.8320
   740.16         145.6242
   740.30         146.3355
   740.44         146.9361
   740.58         147.4057
   740.72         147.7345
   740.86         147.9285
   741.00         148.0104
   741.14         148.0065
   741.28         147.9394
   741.42         147.8329
   741.56         147.7266
   741.70         147.6728
   741.84         147.7090
   741.98         147.8435
   742.12         148.0544
   742.26         148.3053
   742.40         148.5623
   742.54         148.7916
   742.68         148.9606
   742.82         149.0483
   742.96         149.0483
   743.10         148.9606
   743.24         148.7916
   743.38         148.5623
   743.52         148.3053
   743.66         148.0544
   743.80         147.8435
   743.94         147.7090
   744.08         147.6728
   744.22         147.7266
