# File BD+404220
# Wavelength [nm]    Normalized Amplitude
   349.70         17113.5059
   349.84         17193.4963
   349.98         17247.2044
   350.12         17269.6175
   350.26         17264.2193
   350.40         17232.8351
   350.54         17176.7016
   350.68         17105.4004
   350.82         17036.1156
   350.96         16987.6939
   351.10         16970.7728
   351.24         16987.6939
   351.38         17036.1156
   351.52         17105.4004
   351.66         17176.7016
   351.80         17232.8351
   351.94         17264.2193
   352.08         17269.6175
   352.22         17247.2044
   352.36         17193.4963
   352.50         17113.5059
   352.64         17023.4571
   352.78         16944.2534
   352.92         16889.1541
   353.06         16863.0877
   353.20         16871.2486
   353.34         16916.9249
   353.48         16993.9323
   353.62         17084.6750
   353.76         17165.3182
   353.90         17219.1582
   354.04         17239.8480
   354.18         17224.3589
   354.32         17172.0782
   354.46         17085.9698
   354.60         16971.0612
   354.74         16835.5658
   354.88         16686.2130
   355.02         16527.5401
   355.16         16368.2514
   355.30         16222.4466
   355.44         16102.8562
   355.58         16014.3101
   355.72         15957.9384
   355.86         15932.1624
   356.00         15931.1360
   356.14         15947.0306
   356.28         15970.8756
   356.42         15997.1065
   356.56         16027.6830
   356.70         16062.8912
   356.84         16093.4359
   356.98         16106.7588
   357.12         16094.7526
   357.26         16050.5413
   357.40         15967.0488
   357.54         15842.8795
   357.68         15686.9088
   357.82         15517.7812
   357.96         15354.6216
   358.10         15212.9852
   358.24         15104.5830
   358.38         15038.3863
   358.52         15020.2878
   358.66         15045.9655
   358.80         15102.7012
   358.94         15180.8545
   359.08         15275.0021
   359.22         15376.2707
   359.36         15471.1257
   359.50         15545.9016
   359.64         15594.8450
   359.78         15620.1393
   359.92         15625.7692
   360.06         15620.9234
   360.20         15617.2596
   360.34         15620.4960
   360.48         15630.4625
   360.62         15643.4182
   360.76         15654.6199
   360.90         15656.2170
   361.04         15638.5091
   361.18         15593.8814
   361.32         15519.9971
   361.46         15422.4000
   361.60         15306.8259
   361.74         15174.6036
   361.88         15031.9707
   362.02         14895.4096
   362.16         14783.2068
   362.30         14708.2542
   362.44         14676.0043
   362.58         14686.4083
   362.72         14735.6579
   362.86         14817.0724
   363.00         14923.8081
   363.14         15047.9374
   363.28         15181.2009
   363.42         15318.7517
   363.56         15458.7740
   363.70         15596.8852
   363.84         15722.8696
   363.98         15824.9334
   364.12         15892.9391
   364.26         15922.9705
   364.40         15924.9114
   364.54         15910.8808
   364.68         15878.8507
   364.82         15818.4480
   364.96         15723.9613
   365.10         15598.4726
   365.24         15449.3225
   365.38         15285.5556
   365.52         15120.1682
   365.66         14961.5429
   365.80         14810.6221
   365.94         14670.3345
   366.08         14546.2145
   366.22         14441.5530
   366.36         14356.7328
   366.50         14292.4951
   366.64         14251.7997
   366.78         14240.1474
   366.92         14261.8356
   367.06         14313.6157
   367.20         14382.2700
   367.34         14454.1526
   367.48         14521.4929
   367.62         14577.5281
   367.76         14615.7939
   367.90         14634.6984
   368.04         14640.7847
   368.18         14641.8019
   368.32         14637.0877
   368.46         14625.0234
   368.60         14607.8666
   368.74         14584.2869
   368.88         14548.1985
   369.02         14492.6601
   369.16         14413.4173
   369.30         14310.0780
   369.44         14187.0313
   369.58         14053.1895
   369.72         13919.6473
   369.86         13797.6413
   370.00         13698.2090
   370.14         13628.8319
   370.28         13593.4136
   370.42         13596.1552
   370.56         13639.6025
   370.70         13720.1390
   370.84         13827.6298
   370.98         13950.5006
   371.12         14080.3457
   371.26         14211.0136
   371.40         14336.3697
   371.54         14451.8765
   371.68         14556.9214
   371.82         14654.2900
   371.96         14746.9805
   372.10         14835.5861
   372.24         14916.1321
   372.38         14977.7975
   372.52         15009.6516
   372.66         15009.4084
   372.80         14982.2798
   372.94         14938.4096
   373.08         14890.7306
   373.22         14846.6509
   373.36         14803.7800
   373.50         14757.4801
   373.64         14704.3056
   373.78         14638.8898
   373.92         14554.2010
   374.06         14445.9018
   374.20         14317.0560
   374.34         14176.1156
   374.48         14028.9726
   374.62         13875.8856
   374.76         13716.9122
   374.90         13558.6570
   375.04         13415.8281
   375.18         13310.0173
   375.32         13259.0215
   375.46         13266.9516
   375.60         13327.5740
   375.74         13428.1271
   375.88         13551.5489
   376.02         13680.9370
   376.16         13803.3323
   376.30         13907.6839
   376.44         13986.0040
   376.58         14039.1668
   376.72         14076.1129
   376.86         14105.1437
   377.00         14127.6754
   377.14         14142.7015
   377.28         14152.6667
   377.42         14162.5667
   377.56         14177.1098
   377.70         14197.1972
   377.84         14217.9261
   377.98         14228.6532
   378.12         14218.2462
   378.26         14181.8996
   378.40         14119.9409
   378.54         14035.6942
   378.68         13936.6965
   378.82         13835.1345
   378.96         13744.7674
   379.10         13679.7024
   379.24         13652.4753
   379.38         13670.1564
   379.52         13736.0069
   379.66         13853.0272
   379.80         14022.1452
   379.94         14234.9555
   380.08         14472.6090
   380.22         14713.8247
   380.36         14940.6436
   380.50         15139.2327
   380.64         15297.5918
   380.78         15403.4012
   380.92         15445.1042
   381.06         15414.5320
   381.20         15312.1566
   381.34         15150.7645
   381.48         14949.5309
   381.62         14728.6680
   381.76         14509.1346
   381.90         14307.3790
   382.04         14131.4774
   382.18         13981.2244
   382.32         13848.5201
   382.46         13720.9529
   382.60         13587.1990
   382.74         13441.5568
   382.88         13286.1938
   383.02         13128.5848
   383.16         12976.4738
   383.30         12837.6044
   383.44         12722.5604
   383.58         12644.2670
   383.72         12616.0655
   383.86         12649.2818
   384.00         12746.7577
   384.14         12898.5112
   384.28         13087.1425
   384.42         13292.1070
   384.56         13490.3313
   384.70         13661.7021
   384.84         13793.0418
   384.98         13878.2727
   385.12         13917.3477
   385.26         13912.7555
   385.40         13867.9312
   385.54         13790.1013
   385.68         13689.1357
   385.82         13574.3058
   385.96         13455.0165
   386.10         13339.6167
   386.24         13232.4034
   386.38         13135.3065
   386.52         13049.7057
   386.66         12975.4152
   386.80         12912.1698
   386.94         12860.6787
   387.08         12820.6962
   387.22         12790.1651
   387.36         12765.8092
   387.50         12742.4019
   387.64         12713.0331
   387.78         12672.6977
   387.92         12620.1316
   388.06         12558.8406
   388.20         12497.2471
   388.34         12444.6595
   388.48         12409.1131
   388.62         12397.0729
   388.76         12409.6687
   388.90         12441.4093
   389.04         12486.2267
   389.18         12540.6393
   389.32         12602.2330
   389.46         12667.3767
   389.60         12728.9352
   389.74         12778.2641
   389.88         12809.4825
   390.02         12820.6848
   390.16         12812.5853
   390.30         12787.5919
   390.44         12750.1334
   390.58         12706.4215
   390.72         12662.7418
   390.86         12623.2476
   391.00         12589.5045
   391.14         12562.1725
   391.28         12540.7213
   391.42         12521.4754
   391.56         12499.8337
   391.70         12474.4396
   391.84         12446.7021
   391.98         12417.8681
   392.12         12386.7467
   392.26         12350.8536
   392.40         12310.4475
   392.54         12268.8720
   392.68         12229.5359
   392.82         12195.2619
   392.96         12169.4296
   393.10         12156.0602
   393.24         12159.1055
   393.38         12180.5922
   393.52         12219.4203
   393.66         12272.7190
   393.80         12336.6414
   393.94         12405.2731
   394.08         12471.0883
   394.22         12527.8158
   394.36         12572.7415
   394.50         12606.1173
   394.64         12628.7141
   394.78         12640.5958
   394.92         12642.5571
   395.06         12637.0978
   395.20         12626.6612
   395.34         12611.3634
   395.48         12586.6084
   395.62         12542.9262
   395.76         12470.9618
   395.90         12365.7196
   396.04         12226.6360
   396.18         12059.0294
   396.32         11874.6569
   396.46         11688.7028
   396.60         11517.0693
   396.74         11375.0153
   396.88         11276.2504
   397.02         11230.1975
   397.16         11239.5049
   397.30         11300.0801
   397.44         11401.9312
   397.58         11531.5646
   397.72         11674.8713
   397.86         11817.9214
   398.00         11947.1038
   398.14         12051.9266
   398.28         12128.6385
   398.42         12179.7884
   398.56         12209.8889
   398.70         12222.9189
   398.84         12222.6198
   398.98         12210.4646
   399.12         12184.6577
   399.26         12141.9743
   399.40         12080.5480
   399.54         12000.2249
   399.68         11901.7952
   399.82         11789.7302
   399.96         11672.2100
   400.10         11557.3367
   400.24         11452.2436
   400.38         11364.1589
   400.52         11298.9887
   400.66         11258.8298
   400.80         11242.1314
   400.94         11245.0221
   401.08         11261.4190
   401.22         11283.8928
   401.36         11304.6151
   401.50         11316.9568
   401.64         11317.8011
   401.78         11306.2576
   401.92         11281.9881
   402.06         11246.8543
   402.20         11204.9316
   402.34         11161.4005
   402.48         11122.2351
   402.62         11092.1012
   402.76         11072.2111
   402.90         11061.9177
   403.04         11060.9561
   403.18         11068.4905
   403.32         11082.1927
   403.46         11099.4489
   403.60         11117.6156
   403.74         11132.6141
   403.88         11139.9173
   404.02         11136.8281
   404.16         11122.9392
   404.30         11099.1942
   404.44         11066.4001
   404.58         11026.6658
   404.72         10984.3213
   404.86         10943.7072
   405.00         10907.5757
   405.14         10877.2366
   405.28         10853.3104
   405.42         10835.5451
   405.56         10823.6732
   405.70         10817.9756
   405.84         10818.0557
   405.98         10822.6822
   406.12         10829.7869
   406.26         10835.8112
   406.40         10836.4703
   406.54         10828.6161
   406.68         10811.5736
   406.82         10786.7174
   406.96         10756.7254
   407.10         10724.7535
   407.24         10692.5121
   407.38         10659.3397
   407.52         10623.9804
   407.66         10585.5151
   407.80         10543.4755
   407.94         10498.5017
   408.08         10450.8725
   408.22         10399.3404
   408.36         10341.5786
   408.50         10274.2481
   408.64         10193.0276
   408.78         10093.6145
   408.92         9974.6006
   409.06         9839.6115
   409.20         9696.5333
   409.34         9555.9627
   409.48         9429.2517
   409.62         9327.4331
   409.76         9260.3758
   409.90         9233.8364
   410.04         9248.8219
   410.18         9303.2048
   410.32         9392.2245
   410.46         9508.7578
   410.60         9643.4533
   410.74         9785.4264
   410.88         9923.7286
   411.02         10048.6272
   411.16         10152.6488
   411.30         10231.2371
   411.44         10282.8930
   411.58         10308.8640
   411.72         10311.4460
   411.86         10294.0106
   412.00         10261.5631
   412.14         10218.4129
   412.28         10168.0740
   412.42         10114.5172
   412.56         10062.0796
   412.70         10015.6982
   412.84         9980.1091
   412.98         9957.5698
   413.12         9946.7799
   413.26         9944.3908
   413.40         9946.7696
   413.54         9950.0421
   413.68         9950.2026
   413.82         9944.1642
   413.96         9930.1197
   414.10         9907.4739
   414.24         9876.5396
   414.38         9837.7925
   414.52         9792.6100
   414.66         9743.7901
   414.80         9694.5013
   414.94         9647.8382
   415.08         9605.7818
   415.22         9568.7586
   415.36         9536.2594
   415.50         9507.4936
   415.64         9482.3136
   415.78         9461.7623
   415.92         9447.1809
   416.06         9438.7046
   416.20         9435.0317
   416.34         9433.9815
   416.48         9432.2870
   416.62         9425.3006
   416.76         9408.8607
   416.90         9381.5029
   417.04         9344.7134
   417.18         9301.8120
   417.32         9256.9884
   417.46         9213.8300
   417.60         9174.3566
   417.74         9139.8135
   417.88         9111.3504
   418.02         9089.4751
   418.16         9074.0211
   418.30         9064.4603
   418.44         9058.8017
   418.58         9053.5590
   418.72         9045.4767
   418.86         9032.6956
   419.00         9014.2889
   419.14         8989.9856
   419.28         8961.7389
   419.42         8934.3009
   419.56         8912.6992
   419.70         8900.1057
   419.84         8897.4594
   419.98         8903.8129
   420.12         8916.5620
   420.26         8932.0263
   420.40         8947.2458
   420.54         8961.1246
   420.68         8974.0418
   420.82         8986.8985
   420.96         9000.3966
   421.10         9014.5312
   421.24         9028.8072
   421.38         9043.2979
   421.52         9058.7553
   421.66         9075.4701
   421.80         9092.9808
   421.94         9110.6964
   422.08         9127.8739
   422.22         9143.1037
   422.36         9154.5253
   422.50         9159.8631
   422.64         9157.0775
   422.78         9145.7217
   422.92         9127.2718
   423.06         9104.2828
   423.20         9079.3254
   423.34         9054.6886
   423.48         9032.0669
   423.62         9012.1624
   423.76         8994.7405
   423.90         8979.5539
   424.04         8967.1713
   424.18         8957.9313
   424.32         8951.2234
   424.46         8946.6277
   424.60         8944.6207
   424.74         8945.0932
   424.88         8946.1586
   425.02         8945.2874
   425.16         8940.3943
   425.30         8930.1963
   425.44         8914.3872
   425.58         8893.3817
   425.72         8867.4982
   425.86         8836.1749
   426.00         8798.1340
   426.14         8752.5257
   426.28         8700.5374
   426.42         8645.9075
   426.56         8593.2664
   426.70         8546.3941
   426.84         8507.7792
   426.98         8478.9182
   427.12         8460.9993
   427.26         8454.5944
   427.40         8458.4437
   427.54         8469.8309
   427.68         8486.0898
   427.82         8505.3770
   427.96         8526.6069
   428.10         8549.1210
   428.24         8572.0050
   428.38         8593.7187
   428.52         8612.8513
   428.66         8629.1157
   428.80         8643.7732
   428.94         8658.2522
   429.08         8672.0238
   429.22         8682.2887
   429.36         8685.4970
   429.50         8679.2131
   429.64         8662.9801
   429.78         8637.8928
   429.92         8605.6775
   430.06         8568.9323
   430.20         8531.4840
   430.34         8497.8402
   430.48         8472.1727
   430.62         8456.7860
   430.76         8451.8109
   430.90         8455.8306
   431.04         8466.3593
   431.18         8480.9273
   431.32         8497.7709
   431.46         8515.3638
   431.60         8531.7685
   431.74         8545.0536
   431.88         8554.1489
   432.02         8558.7977
   432.16         8559.2254
   432.30         8555.3044
   432.44         8546.0335
   432.58         8530.3721
   432.72         8507.7072
   432.86         8477.2694
   433.00         8438.3527
   433.14         8391.2475
   433.28         8337.6967
   433.42         8281.6304
   433.56         8228.7597
   433.70         8184.6489
   433.84         8153.6282
   433.98         8137.8897
   434.12         8137.5205
   434.26         8152.0403
   434.40         8180.1405
   434.54         8218.5907
   434.68         8262.8049
   434.82         8308.4159
   434.96         8352.2659
   435.10         8392.8302
   435.24         8429.9558
   435.38         8463.5959
   435.52         8493.0396
   435.66         8517.4015
   435.80         8536.1495
   435.94         8548.8994
   436.08         8555.0372
   436.22         8553.7368
   436.36         8543.8873
   436.50         8524.6883
   436.64         8497.1237
   436.78         8464.4103
   436.92         8430.5701
   437.06         8398.8791
   437.20         8372.1702
   437.34         8352.8277
   437.48         8342.0035
   437.62         8339.1690
   437.76         8342.3087
   437.90         8348.4282
   438.04         8353.9160
   438.18         8355.9003
   438.32         8353.5213
   438.46         8346.8625
   438.60         8336.2919
   438.74         8322.7758
   438.88         8307.2553
   439.02         8290.0237
   439.16         8271.6078
   439.30         8253.6488
   439.44         8237.6525
   439.58         8223.6235
   439.72         8210.7571
   439.86         8198.4871
   440.00         8186.0837
   440.14         8172.1647
   440.28         8155.0213
   440.42         8133.8038
   440.56         8108.9812
   440.70         8080.9840
   440.84         8049.8143
   440.98         8014.7548
   441.12         7973.6673
   441.26         7924.2309
   441.40         7865.1789
   441.54         7796.4211
   441.68         7719.0985
   441.82         7635.1100
   441.96         7546.4268
   442.10         7455.5165
   442.24         7365.8674
   442.38         7281.7177
   442.52         7207.0002
   442.66         7144.1613
   442.80         7094.3427
   442.94         7058.7991
   443.08         7039.1060
   443.22         7035.5123
   443.36         7046.1256
   443.50         7068.1281
   443.64         7098.5534
   443.78         7134.6998
   443.92         7174.4877
   444.06         7216.3569
   444.20         7258.7809
   444.34         7300.1667
   444.48         7339.7939
   444.62         7377.9729
   444.76         7414.7865
   444.90         7448.6796
   445.04         7477.9104
   445.18         7501.7808
   445.32         7519.6208
   445.46         7530.7315
   445.60         7534.2774
   445.74         7528.5947
   445.88         7511.5136
   446.02         7481.5003
   446.16         7438.4851
   446.30         7384.6158
   446.44         7324.5608
   446.58         7264.6346
   446.72         7211.9877
   446.86         7173.6360
   447.00         7154.8508
   447.14         7158.3054
   447.28         7184.0655
   447.42         7230.0182
   447.56         7292.7567
   447.70         7368.0804
   447.84         7449.7931
   447.98         7529.9794
   448.12         7601.1793
   448.26         7657.4364
   448.40         7695.1500
   448.54         7713.5824
   448.68         7714.4874
   448.82         7701.6356
   448.96         7680.4061
   449.10         7656.4597
   449.24         7634.0295
   449.38         7615.9279
   449.52         7604.2622
   449.66         7600.1472
   449.80         7603.4988
   449.94         7613.2670
   450.08         7627.5878
   450.22         7643.8797
   450.36         7658.8252
   450.50         7668.8274
   450.64         7671.0156
   450.78         7663.6827
   450.92         7646.1516
   451.06         7619.0251
   451.20         7583.8865
   451.34         7543.3140
   451.48         7501.2817
   451.62         7462.0654
   451.76         7428.6939
   451.90         7402.7893
   452.04         7385.4582
   452.18         7377.0120
   452.32         7376.6721
   452.46         7382.6756
   452.60         7392.1662
   452.74         7401.6700
   452.88         7407.7237
   453.02         7407.4662
   453.16         7399.7238
   453.30         7385.3789
   453.44         7366.2911
   453.58         7344.6835
   453.72         7323.3688
   453.86         7305.7181
   454.00         7295.4928
   454.14         7295.6932
   454.28         7307.0851
   454.42         7328.4043
   454.56         7357.8476
   454.70         7393.7640
   454.84         7433.8832
   454.98         7475.1665
   455.12         7514.3093
   455.26         7548.4786
   455.40         7575.6608
   455.54         7594.6929
   455.68         7605.0382
   455.82         7606.4427
   455.96         7599.1066
   456.10         7584.0001
   456.24         7563.2699
   456.38         7539.6844
   456.52         7515.3614
   456.66         7491.0250
   456.80         7466.3974
   456.94         7441.0873
   457.08         7415.0957
   457.22         7389.2171
   457.36         7364.2961
   457.50         7340.2662
   457.64         7316.6704
   457.78         7293.0481
   457.92         7268.6747
   458.06         7243.0361
   458.20         7216.3393
   458.34         7189.2764
   458.48         7163.1287
   458.62         7139.5330
   458.76         7119.7174
   458.90         7104.1924
   459.04         7092.4638
   459.18         7083.0953
   459.32         7074.9117
   459.46         7067.7181
   459.60         7061.9665
   459.74         7058.2176
   459.88         7056.5446
   460.02         7056.4750
   460.16         7057.6437
   460.30         7060.1589
   460.44         7064.7583
   460.58         7073.1108
   460.72         7087.0663
   460.86         7107.5982
   461.00         7135.2540
   461.14         7170.4198
   461.28         7212.6119
   461.42         7260.4901
   461.56         7311.5066
   461.70         7362.3290
   461.84         7410.8189
   461.98         7456.7326
   462.12         7500.9887
   462.26         7545.1457
   462.40         7590.9035
   462.54         7639.9646
   462.68         7694.4668
   462.82         7756.3432
   462.96         7826.6777
   463.10         7906.1619
   463.24         7994.4596
   463.38         8088.5880
   463.52         8182.8302
   463.66         8270.0411
   463.80         8343.0813
   463.94         8395.9733
   464.08         8424.5846
   464.22         8426.8658
   464.36         8403.3352
   464.50         8356.7071
   464.64         8290.8655
   464.78         8211.2057
   464.92         8124.7152
   465.06         8038.5732
   465.20         7958.9238
   465.34         7890.4140
   465.48         7835.8125
   465.62         7796.0838
   465.76         7770.3569
   465.90         7755.4483
   466.04         7746.6872
   466.18         7739.3981
   466.32         7730.3056
   466.46         7717.8770
   466.60         7701.4227
   466.74         7680.8940
   466.88         7657.2409
   467.02         7632.6563
   467.16         7611.2622
   467.30         7599.5919
   467.44         7605.1310
   467.58         7633.9935
   467.72         7690.0913
   467.86         7774.5967
   468.00         7884.6485
   468.14         8013.1398
   468.28         8149.8302
   468.42         8282.3183
   468.56         8397.1189
   468.70         8481.8027
   468.84         8526.9252
   468.98         8527.3819
   469.12         8482.5847
   469.26         8395.8935
   469.40         8274.3037
   469.54         8127.8502
   469.68         7968.6348
   469.82         7809.8637
   469.96         7664.0148
   470.10         7539.8416
   470.24         7440.9485
   470.38         7366.7451
   470.52         7313.1106
   470.66         7273.4803
   470.80         7241.2938
   470.94         7211.4890
   471.08         7180.7064
   471.22         7147.3952
   471.36         7111.7499
   471.50         7074.5825
   471.64         7036.1222
   471.78         6996.1768
   471.92         6955.4995
   472.06         6916.2098
   472.20         6880.9398
   472.34         6851.9674
   472.48         6830.5502
   472.62         6816.6115
   472.76         6808.6918
   472.90         6804.7935
   473.04         6803.5658
   473.18         6804.4631
   473.32         6807.3830
   473.46         6812.3870
   473.60         6819.5091
   473.74         6828.2186
   473.88         6837.0682
   474.02         6843.9607
   474.16         6846.7066
   474.30         6843.9066
   474.44         6835.8959
   474.58         6824.6236
   474.72         6811.8586
   474.86         6798.2411
   475.00         6783.2810
   475.14         6766.1571
   475.28         6746.9939
   475.42         6726.6224
   475.56         6706.0628
   475.70         6686.0256
   475.84         6667.1116
   475.98         6649.9927
   476.12         6634.8322
   476.26         6621.3376
   476.40         6608.9356
   476.54         6596.9559
   476.68         6585.0858
   476.82         6573.9977
   476.96         6565.3057
   477.10         6560.4086
   477.24         6559.1350
   477.38         6559.5734
   477.52         6559.7085
   477.66         6558.5898
   477.80         6556.3000
   477.94         6553.3396
   478.08         6549.9837
   478.22         6546.1009
   478.36         6541.4545
   478.50         6537.0499
   478.64         6534.7010
   478.78         6535.7266
   478.92         6540.8951
   479.06         6549.9061
   479.20         6561.3760
   479.34         6573.7855
   479.48         6585.9125
   479.62         6596.4819
   479.76         6604.2291
   479.90         6608.7455
   480.04         6610.9572
   480.18         6612.3900
   480.32         6613.4077
   480.46         6612.8169
   480.60         6609.5154
   480.74         6603.1632
   480.88         6593.8438
   481.02         6582.1536
   481.16         6568.9141
   481.30         6554.2171
   481.44         6537.4995
   481.58         6518.3690
   481.72         6497.0318
   481.86         6474.8692
   482.00         6454.3958
   482.14         6438.4818
   482.28         6429.5930
   482.42         6428.6484
   482.56         6434.5952
   482.70         6445.1114
   482.84         6457.5475
   482.98         6469.5360
   483.12         6479.5681
   483.26         6487.3911
   483.40         6493.1960
   483.54         6496.9286
   483.68         6498.3703
   483.82         6497.2478
   483.96         6493.2403
   484.10         6486.1992
   484.24         6476.4566
   484.38         6464.9171
   484.52         6452.4728
   484.66         6439.1161
   484.80         6423.7535
   484.94         6404.5166
   485.08         6379.6154
   485.22         6348.8860
   485.36         6314.0761
   485.50         6277.5897
   485.64         6241.6819
   485.78         6208.4799
   485.92         6179.8758
   486.06         6157.0150
   486.20         6140.2634
   486.34         6129.2712
   486.48         6122.7380
   486.62         6118.9053
   486.76         6116.3299
   486.90         6113.3380
   487.04         6107.3030
   487.18         6094.7264
   487.32         6072.5861
   487.46         6040.2131
   487.60         5999.6016
   487.74         5954.8640
   487.88         5911.1235
   488.02         5872.6740
   488.16         5841.7324
   488.30         5818.9393
   488.44         5804.3134
   488.58         5797.2847
   488.72         5796.4635
   488.86         5799.7962
   489.00         5805.3025
   489.14         5811.7140
   489.28         5818.5083
   489.42         5825.3115
   489.56         5831.6145
   489.70         5837.5220
   489.84         5844.0587
   489.98         5852.6943
   490.12         5864.3820
   490.26         5878.9005
   490.40         5895.2689
   490.54         5911.9512
   490.68         5927.0525
   490.82         5939.0040
   490.96         5947.0593
   491.10         5950.8653
   491.24         5950.2405
   491.38         5945.9703
   491.52         5940.0144
   491.66         5934.7815
   491.80         5932.1151
   491.94         5932.7264
   492.08         5936.2374
   492.22         5941.7662
   492.36         5948.4460
   492.50         5955.1947
   492.64         5960.9088
   492.78         5964.9799
   492.92         5967.4697
   493.06         5968.8343
   493.20         5969.6181
   493.34         5970.5444
   493.48         5971.9509
   493.62         5973.4332
   493.76         5974.6480
   493.90         5975.7063
   494.04         5976.4851
   494.18         5976.0784
   494.32         5973.2193
   494.46         5966.5309
   494.60         5954.5170
   494.74         5936.4176
   494.88         5913.0087
   495.02         5886.1018
   495.16         5857.3521
   495.30         5828.2620
   495.44         5800.1251
   495.58         5773.4982
   495.72         5748.7483
   495.86         5726.4043
   496.00         5706.4825
   496.14         5688.0160
   496.28         5669.8881
   496.42         5651.7003
   496.56         5633.5539
   496.70         5615.8061
   496.84         5599.0660
   496.98         5583.7020
   497.12         5569.3436
   497.26         5555.2526
   497.40         5540.8873
   497.54         5526.0386
   497.68         5510.5083
   497.82         5494.0669
   497.96         5477.2591
   498.10         5461.5640
   498.24         5449.1589
   498.38         5442.4695
   498.52         5442.6548
   498.66         5449.2610
   498.80         5461.4041
   498.94         5478.1964
   499.08         5498.4445
   499.22         5520.4086
   499.36         5542.1369
   499.50         5562.0507
   499.64         5578.8638
   499.78         5591.2536
   499.92         5598.1124
   500.06         5599.2411
   500.20         5595.4690
   500.34         5587.7331
   500.48         5576.7074
   500.62         5563.7820
   500.76         5551.4432
   500.90         5542.0318
   501.04         5536.5892
   501.18         5534.8673
   501.32         5536.1096
   501.46         5539.2452
   501.60         5542.5036
   501.74         5543.6374
   501.88         5540.6295
   502.02         5532.2544
   502.16         5518.0596
   502.30         5498.0346
   502.44         5472.7571
   502.58         5443.8105
   502.72         5413.2649
   502.86         5382.8965
   503.00         5354.4275
   503.14         5330.0474
   503.28         5312.1844
   503.42         5302.3105
   503.56         5300.2568
   503.70         5304.7094
   503.84         5313.9258
   503.98         5325.8829
   504.12         5338.4314
   504.26         5349.9540
   504.40         5359.5111
   504.54         5366.8010
   504.68         5371.8590
   504.82         5374.7259
   504.96         5375.2361
   505.10         5372.8575
   505.24         5366.9885
   505.38         5357.5821
   505.52         5345.7742
   505.66         5333.5945
   505.80         5322.8298
   505.94         5314.2254
   506.08         5307.7109
   506.22         5302.9696
   506.36         5299.3520
   506.50         5295.9618
   506.64         5291.8632
   506.78         5286.4859
   506.92         5279.8620
   507.06         5272.0157
   507.20         5262.8855
   507.34         5252.5161
   507.48         5241.0561
   507.62         5228.7292
   507.76         5215.8317
   507.90         5202.8014
   508.04         5190.1478
   508.18         5178.1087
   508.32         5166.2767
   508.46         5153.8450
   508.60         5140.3395
   508.74         5125.9908
   508.88         5111.4202
   509.02         5097.0484
   509.16         5083.1221
   509.30         5070.1529
   509.44         5058.8573
   509.58         5049.7708
   509.72         5043.1588
   509.86         5039.3112
   510.00         5038.3625
   510.14         5039.7275
   510.28         5042.2156
   510.42         5044.6458
   510.56         5046.1441
   510.70         5046.2824
   510.84         5045.1351
   510.98         5042.9909
   511.12         5040.3042
   511.26         5037.7298
   511.40         5035.8376
   511.54         5034.8203
   511.68         5034.3589
   511.82         5034.0803
   511.96         5033.8573
   512.10         5033.4844
   512.24         5032.4915
   512.38         5030.2880
   512.52         5026.3164
   512.66         5020.0110
   512.80         5011.1472
   512.94         5000.4264
   513.08         4988.8855
   513.22         4977.2164
   513.36         4966.0205
   513.50         4955.7671
   513.64         4946.3833
   513.78         4937.5125
   513.92         4928.9611
   514.06         4920.5628
   514.20         4912.1535
   514.34         4903.8955
   514.48         4896.2057
   514.62         4889.1859
   514.76         4882.5027
   514.90         4875.5599
   515.04         4867.7816
   515.18         4858.9993
   515.32         4849.6836
   515.46         4840.6191
   515.60         4832.2600
   515.74         4824.5215
   515.88         4817.2214
   516.02         4810.1125
   516.16         4802.8824
   516.30         4795.5758
   516.44         4788.8883
   516.58         4784.0421
   516.72         4782.0404
   516.86         4783.4436
   517.00         4788.5549
   517.14         4797.1309
   517.28         4808.2808
   517.42         4820.6439
   517.56         4832.7017
   517.70         4843.1515
   517.84         4850.9583
   517.98         4855.2574
   518.12         4855.0897
   518.26         4849.6274
   518.40         4838.5607
   518.54         4822.0701
   518.68         4801.0233
   518.82         4777.2114
   518.96         4752.7939
   519.10         4729.6275
   519.24         4708.9913
   519.38         4691.5641
   519.52         4677.5665
   519.66         4666.5700
   519.80         4657.4436
   519.94         4648.8366
   520.08         4639.7660
   520.22         4629.8960
   520.36         4619.1870
   520.50         4607.7256
   520.64         4595.7625
   520.78         4583.3380
   520.92         4570.2736
   521.06         4556.5412
   521.20         4542.4843
   521.34         4528.8889
   521.48         4516.8681
   521.62         4507.4788
   521.76         4501.1847
   521.90         4497.8410
   522.04         4496.8058
   522.18         4496.7490
   522.32         4496.3741
   522.46         4495.0743
   522.60         4492.6072
   522.74         4488.7886
   522.88         4483.2238
   523.02         4475.7382
   523.16         4466.7657
   523.30         4456.9182
   523.44         4446.8216
   523.58         4437.2981
   523.72         4429.1427
   523.86         4422.6985
   524.00         4418.0826
   524.14         4415.2842
   524.28         4413.7868
   524.42         4412.6773
   524.56         4411.2837
   524.70         4409.2261
   524.84         4406.1871
   524.98         4401.9869
   525.12         4396.3491
   525.26         4388.9763
   525.40         4379.9760
   525.54         4369.9453
   525.68         4360.0057
   525.82         4351.1888
   525.96         4343.8828
   526.10         4338.1717
   526.24         4334.2644
   526.38         4332.1740
   526.52         4331.5960
   526.66         4332.3032
   526.80         4333.9474
   526.94         4336.0004
   527.08         4338.0045
   527.22         4339.4820
   527.36         4339.7304
   527.50         4338.0425
   527.64         4333.9864
   527.78         4327.5971
   527.92         4319.3776
   528.06         4309.9930
   528.20         4299.9067
   528.34         4289.2276
   528.48         4277.9094
   528.62         4265.9052
   528.76         4253.3792
   528.90         4240.9849
   529.04         4229.5196
   529.18         4219.7948
   529.32         4212.8333
   529.46         4209.5491
   529.60         4210.3543
   529.74         4215.0500
   529.88         4222.8707
   530.02         4232.8063
   530.16         4243.9501
   530.30         4255.2824
   530.44         4265.6252
   530.58         4273.8048
   530.72         4278.6753
   530.86         4279.4223
   531.00         4275.8649
   531.14         4268.4886
   531.28         4258.3358
   531.42         4246.8041
   531.56         4235.4654
   531.70         4225.4663
   531.84         4217.1614
   531.98         4210.6713
   532.12         4206.1637
   532.26         4203.7153
   532.40         4203.2011
   532.54         4204.1379
   532.68         4205.8615
   532.82         4207.7186
   532.96         4208.9890
   533.10         4209.0246
   533.24         4207.1955
   533.38         4202.9540
   533.52         4196.2257
   533.66         4187.4246
   533.80         4177.3045
   533.94         4166.6848
   534.08         4156.0665
   534.22         4145.6938
   534.36         4135.5297
   534.50         4125.3994
   534.64         4115.4625
   534.78         4105.9991
   534.92         4097.0130
   535.06         4088.2435
   535.20         4079.3815
   535.34         4070.2816
   535.48         4060.7846
   535.62         4050.5671
   535.76         4039.3790
   535.90         4027.2996
   536.04         4014.8752
   536.18         4002.7470
   536.32         3991.2773
   536.46         3980.7422
   536.60         3971.2014
   536.74         3962.5341
   536.88         3954.8057
   537.02         3948.1510
   537.16         3942.5827
   537.30         3937.9094
   537.44         3933.8323
   537.58         3930.2022
   537.72         3927.0541
   537.86         3924.4782
   538.00         3922.5455
   538.14         3921.1836
   538.28         3920.2000
   538.42         3919.2655
   538.56         3917.8400
   538.70         3915.2922
   538.84         3911.1373
   538.98         3905.3270
   539.12         3898.1681
   539.26         3889.9135
   539.40         3880.8134
   539.54         3871.0781
   539.68         3860.5545
   539.82         3848.7286
   539.96         3834.9372
   540.10         3818.7513
   540.24         3800.2185
   540.38         3780.0173
   540.52         3759.4840
   540.66         3740.1050
   540.80         3722.8936
   540.94         3708.4604
   541.08         3697.3690
   541.22         3690.2916
   541.36         3687.9283
   541.50         3690.5618
   541.64         3697.8364
   541.78         3708.8075
   541.92         3722.0489
   542.06         3735.8607
   542.20         3748.4893
   542.34         3758.5324
   542.48         3765.2735
   542.62         3768.7331
   542.76         3769.6199
   542.90         3769.1343
   543.04         3768.4325
   543.18         3767.8621
   543.32         3766.7106
   543.46         3763.9428
   543.60         3759.0810
   543.74         3752.1336
   543.88         3743.2839
   544.02         3732.8304
   544.16         3721.0574
   544.30         3708.3537
   544.44         3695.2337
   544.58         3682.2425
   544.72         3669.8809
   544.86         3658.5735
   545.00         3648.7321
   545.14         3640.5247
   545.28         3633.7392
   545.42         3627.9801
   545.56         3622.9130
   545.70         3618.3145
   545.84         3613.9349
   545.98         3609.5836
   546.12         3605.4811
   546.26         3602.1733
   546.40         3600.1432
   546.54         3599.7924
   546.68         3601.2289
   546.82         3604.0280
   546.96         3607.4851
   547.10         3610.9046
   547.24         3613.7118
   547.38         3615.3383
   547.52         3615.1648
   547.66         3612.6161
   547.80         3607.1806
   547.94         3598.5413
   548.08         3586.8291
   548.22         3572.7354
   548.36         3557.2042
   548.50         3541.1441
   548.64         3525.5665
   548.78         3511.5463
   548.92         3499.8512
   549.06         3490.8625
   549.20         3484.7261
   549.34         3481.2912
   549.48         3480.1404
   549.62         3480.6742
   549.76         3482.0058
   549.90         3483.0824
   550.04         3482.9616
   550.18         3480.9724
   550.32         3476.9181
   550.46         3471.2224
   550.60         3464.7561
   550.74         3458.5364
   550.88         3453.3923
   551.02         3449.7026
   551.16         3447.3806
   551.30         3446.0369
   551.44         3445.1326
   551.58         3444.1222
   551.72         3442.6130
   551.86         3440.2826
   552.00         3436.7328
   552.14         3431.6063
   552.28         3424.8616
   552.42         3416.8358
   552.56         3408.0382
   552.70         3398.8673
   552.84         3389.4915
   552.98         3379.9478
   553.12         3370.1473
   553.26         3359.8234
   553.40         3348.7117
   553.54         3336.7569
   553.68         3324.2656
   553.82         3311.9294
   553.96         3300.8041
   554.10         3292.0570
   554.24         3286.5836
   554.38         3284.9391
   554.52         3287.1990
   554.66         3292.9389
   554.80         3301.5308
   554.94         3312.1826
   555.08         3323.7612
   555.22         3334.8517
   555.36         3344.0675
   555.50         3350.4184
   555.64         3353.2974
   555.78         3352.4178
   555.92         3347.9929
   556.06         3340.6933
   556.20         3331.6080
   556.34         3322.0862
   556.48         3313.2951
   556.62         3306.0388
   556.76         3300.7169
   556.90         3297.4660
   557.04         3296.2717
   557.18         3296.7002
   557.32         3298.0048
   557.46         3299.5658
   557.60         3300.9173
   557.74         3301.6039
   557.88         3301.1277
   558.02         3298.9945
   558.16         3294.9311
   558.30         3288.8505
   558.44         3280.8562
   558.58         3271.3710
   558.72         3261.1007
   558.86         3250.9795
   559.00         3241.8294
   559.14         3234.2427
   559.28         3228.8224
   559.42         3226.0526
   559.56         3226.1752
   559.70         3229.0361
   559.84         3233.9687
   559.98         3240.1989
   560.12         3246.9701
   560.26         3253.3061
   560.40         3258.0802
   560.54         3260.3235
   560.68         3259.7110
   560.82         3256.7580
   560.96         3252.5243
   561.10         3248.2466
   561.24         3245.0485
   561.38         3243.7153
   561.52         3244.4753
   561.66         3246.9312
   561.80         3250.4363
   561.94         3254.3637
   562.08         3257.9619
   562.22         3260.4380
   562.36         3261.0604
   562.50         3259.2297
   562.64         3254.6650
   562.78         3247.4828
   562.92         3238.3373
   563.06         3228.3242
   563.20         3218.5853
   563.34         3210.1399
   563.48         3203.7145
   563.62         3199.6075
   563.76         3197.7782
   563.90         3197.9650
   564.04         3199.8780
   564.18         3203.0828
   564.32         3206.8963
   564.46         3210.8177
   564.60         3214.4120
   564.74         3217.0335
   564.88         3218.1517
   565.02         3217.5444
   565.16         3215.2027
   565.30         3211.3532
   565.44         3206.5270
   565.58         3201.2747
   565.72         3195.8586
   565.86         3190.3094
   566.00         3184.7545
   566.14         3179.5417
   566.28         3175.0443
   566.42         3171.3721
   566.56         3168.3683
   566.70         3165.8473
   566.84         3163.5101
   566.98         3161.1718
   567.12         3159.1105
   567.26         3157.5938
   567.40         3156.7042
   567.54         3156.5263
   567.68         3157.0629
   567.82         3158.2222
   567.96         3159.9520
   568.10         3162.2934
   568.24         3165.5066
   568.38         3170.3050
   568.52         3177.4204
   568.66         3187.0054
   568.80         3198.4888
   568.94         3210.6953
   569.08         3222.0727
   569.22         3230.9664
   569.36         3235.8720
   569.50         3235.6242
   569.64         3229.7039
   569.78         3218.2527
   569.92         3201.8774
   570.06         3181.6280
   570.20         3158.9581
   570.34         3135.6389
   570.48         3113.5370
   570.62         3094.3216
   570.76         3079.3132
   570.90         3069.3056
   571.04         3064.3435
   571.18         3063.5153
   571.32         3065.2698
   571.46         3068.0698
   571.60         3070.6353
   571.74         3071.9078
   571.88         3071.1825
   572.02         3068.5062
   572.16         3064.6717
   572.30         3060.5684
   572.44         3056.5195
   572.58         3052.4516
   572.72         3048.1976
   572.86         3043.5620
   573.00         3038.5068
   573.14         3033.0667
   573.28         3027.3142
   573.42         3021.3670
   573.56         3015.2688
   573.70         3009.0734
   573.84         3002.7533
   573.98         2996.1221
   574.12         2989.1510
   574.26         2982.0746
   574.40         2975.1964
   574.54         2968.8276
   574.68         2963.3518
   574.82         2959.0186
   574.96         2955.6797
   575.10         2953.0695
   575.24         2951.2698
   575.38         2950.5205
   575.52         2950.9561
   575.66         2952.4165
   575.80         2954.3132
   575.94         2955.8098
   576.08         2955.8788
   576.22         2953.5369
   576.36         2948.1324
   576.50         2939.2155
   576.64         2926.2739
   576.78         2908.5874
   576.92         2885.3690
   577.06         2856.3343
   577.20         2822.3774
   577.34         2785.6232
   577.48         2748.7052
   577.62         2714.1824
   577.76         2684.3159
   577.90         2660.7763
   578.04         2644.5878
   578.18         2636.1360
   578.32         2635.0418
   578.46         2640.3062
   578.60         2650.3199
   578.74         2662.9012
   578.88         2675.7467
   579.02         2686.7498
   579.16         2694.2045
   579.30         2697.0165
   579.44         2695.1429
   579.58         2689.9224
   579.72         2683.5054
   579.86         2677.7217
   580.00         2673.3185
   580.14         2670.2546
   580.28         2668.4627
   580.42         2668.1013
   580.56         2669.4551
   580.70         2672.8837
   580.84         2678.5970
   580.98         2686.5131
   581.12         2696.2780
   581.26         2707.4033
   581.40         2719.5217
   581.54         2732.2817
   581.68         2745.2171
   581.82         2757.8059
   581.96         2769.4348
   582.10         2779.4769
   582.24         2787.2773
   582.38         2792.1335
   582.52         2793.6484
   582.66         2792.1511
   582.80         2788.6323
   582.94         2784.1926
   583.08         2779.5774
   583.22         2775.1211
   583.36         2770.8707
   583.50         2766.8386
   583.64         2763.0449
   583.78         2759.3496
   583.92         2755.5516
   584.06         2751.4647
   584.20         2746.8477
   584.34         2741.4723
   584.48         2735.1575
   584.62         2727.6942
   584.76         2718.9369
   584.90         2709.0039
   585.04         2698.3069
   585.18         2687.5162
   585.32         2677.6466
   585.46         2669.9602
   585.60         2665.8456
   585.74         2666.4692
   585.88         2672.1786
   586.02         2682.3488
   586.16         2695.5684
   586.30         2709.6867
   586.44         2722.3918
   586.58         2732.5037
   586.72         2740.4838
   586.86         2747.9075
   587.00         2756.7964
   587.14         2769.0284
   587.28         2785.8338
   587.42         2807.5377
   587.56         2833.2316
   587.70         2860.3565
   587.84         2884.8525
   587.98         2902.3689
   588.12         2909.5001
   588.26         2903.6564
   588.40         2882.6004
   588.54         2845.0798
   588.68         2792.1757
   588.82         2727.7259
   588.96         2657.5789
   589.10         2588.7604
   589.24         2528.3689
   589.38         2482.0126
   589.52         2452.7412
   589.66         2440.9239
   589.80         2444.7172
   589.94         2460.7888
   590.08         2485.0644
   590.22         2513.2834
   590.36         2541.6289
   590.50         2567.4265
   590.64         2589.3818
   590.78         2606.8998
   590.92         2619.2078
   591.06         2625.7568
   591.20         2627.0608
   591.34         2624.6294
   591.48         2620.1028
   591.62         2614.6484
   591.76         2609.0816
   591.90         2603.9498
   592.04         2599.5546
   592.18         2596.0399
   592.32         2593.5173
   592.46         2592.1114
   592.60         2591.7689
   592.74         2592.4107
   592.88         2593.9056
   593.02         2595.8771
   593.16         2597.8068
   593.30         2598.9748
   593.44         2598.6035
   593.58         2596.0588
   593.72         2590.9143
   593.86         2582.9933
   594.00         2572.3150
   594.14         2559.1343
   594.28         2543.9092
   594.42         2527.2296
   594.56         2509.8742
   594.70         2492.8491
   594.84         2477.3292
   594.98         2464.3858
   595.12         2454.6936
   595.26         2448.5259
   595.40         2445.9653
   595.54         2446.7950
   595.68         2450.5495
   595.82         2456.7390
   595.96         2464.6378
   596.10         2473.2498
   596.24         2481.5952
   596.38         2488.8177
   596.52         2494.2252
   596.66         2497.5354
   596.80         2498.9064
   596.94         2498.6030
   597.08         2496.8896
   597.22         2494.1055
   597.36         2490.5866
   597.50         2486.6384
   597.64         2482.5444
   597.78         2478.5440
   597.92         2474.8623
   598.06         2471.6787
   598.20         2469.0477
   598.34         2466.9088
   598.48         2464.9013
   598.62         2462.3332
   598.76         2458.5970
   598.90         2453.5469
   599.04         2447.3054
   599.18         2440.0013
   599.32         2431.7696
   599.46         2422.7553
   599.60         2413.2437
   599.74         2403.7107
   599.88         2394.7297
   600.02         2386.8226
   600.16         2380.3473
   600.30         2375.5388
   600.44         2372.5105
   600.58         2371.1795
   600.72         2371.2894
   600.86         2372.4404
   601.00         2374.1259
   601.14         2375.7794
   601.28         2376.9113
   601.42         2377.1978
   601.56         2376.5178
   601.70         2374.9013
   601.84         2372.4233
   601.98         2369.3557
   602.12         2366.2287
   602.26         2363.6325
   602.40         2361.9874
   602.54         2361.4522
   602.68         2361.9519
   602.82         2363.1391
   602.96         2364.3200
   603.10         2364.6522
   603.24         2363.3299
   603.38         2359.7313
   603.52         2353.5968
   603.66         2345.0496
   603.80         2334.5742
   603.94         2322.9364
   604.08         2311.1164
   604.22         2300.1342
   604.36         2290.7882
   604.50         2283.5896
   604.64         2278.8808
   604.78         2276.7776
   604.92         2277.0259
   605.06         2279.0116
   605.20         2281.8601
   605.34         2284.6219
   605.48         2286.4736
   605.62         2286.9257
   605.76         2286.0269
   605.90         2284.1564
   606.04         2281.7934
   606.18         2279.4701
   606.32         2277.5854
   606.46         2276.3849
   606.60         2276.0081
   606.74         2276.4308
   606.88         2277.4866
   607.02         2279.0088
   607.16         2280.8654
   607.30         2282.8991
   607.44         2284.8864
   607.58         2286.5544
   607.72         2287.7179
   607.86         2288.4123
   608.00         2288.8803
   608.14         2289.4040
   608.28         2290.1281
   608.42         2291.0158
   608.56         2291.8726
   608.70         2292.4163
   608.84         2292.3761
   608.98         2291.5453
   609.12         2289.8487
   609.26         2287.3422
   609.40         2284.1733
   609.54         2280.6130
   609.68         2276.9706
   609.82         2273.4706
   609.96         2270.2941
   610.10         2267.5807
   610.24         2265.3268
   610.38         2263.4153
   610.52         2261.7103
   610.66         2260.0778
   610.80         2258.3788
   610.94         2256.4911
   611.08         2254.3889
   611.22         2252.1801
   611.36         2250.0418
   611.50         2248.1367
   611.64         2246.5658
   611.78         2245.3457
   611.92         2244.4834
   612.06         2244.0288
   612.20         2243.9655
   612.34         2244.1209
   612.48         2244.2473
   612.62         2244.1880
   612.76         2243.8387
   612.90         2243.0695
   613.04         2241.8580
   613.18         2240.2884
   613.32         2238.4140
   613.46         2236.2177
   613.60         2233.6966
   613.74         2230.9825
   613.88         2228.2628
   614.02         2225.6814
   614.16         2223.3807
   614.30         2221.4637
   614.44         2220.0029
   614.58         2219.0974
   614.72         2218.7403
   614.86         2218.7684
   615.00         2218.9806
   615.14         2219.1948
   615.28         2219.1720
   615.42         2218.4913
   615.56         2216.6270
   615.70         2213.0837
   615.84         2207.4399
   615.98         2199.5115
   616.12         2189.4430
   616.26         2177.5864
   616.40         2164.3582
   616.54         2150.1749
   616.68         2135.5388
   616.82         2121.0971
   616.96         2107.4853
   617.10         2095.2258
   617.24         2084.7037
   617.38         2076.1708
   617.52         2069.7918
   617.66         2065.6185
   617.80         2063.5578
   617.94         2063.3928
   618.08         2064.9074
   618.22         2067.9360
   618.36         2072.2262
   618.50         2077.4708
   618.64         2083.4327
   618.78         2089.8100
   618.92         2096.0981
   619.06         2101.6695
   619.20         2105.9370
   619.34         2108.5221
   619.48         2109.3896
   619.62         2108.8388
   619.76         2107.4252
   619.90         2105.8452
   620.04         2104.6939
   620.18         2104.2871
   620.32         2104.7357
   620.46         2106.0666
   620.60         2108.2525
   620.74         2111.2432
   620.88         2114.9345
   621.02         2119.1093
   621.16         2123.5231
   621.30         2127.9445
   621.44         2132.0678
   621.58         2135.5433
   621.72         2138.0651
   621.86         2139.4768
   622.00         2139.8336
   622.14         2139.3037
   622.28         2137.9830
   622.42         2135.8540
   622.56         2132.9047
   622.70         2129.2429
   622.84         2125.2073
   622.98         2121.3668
   623.12         2118.3396
   623.26         2116.6202
   623.40         2116.5066
   623.54         2118.0882
   623.68         2121.2494
   623.82         2125.6710
   623.96         2130.8540
   624.10         2136.2006
   624.24         2141.1532
   624.38         2145.3125
   624.52         2148.5285
   624.66         2150.8460
   624.80         2152.3098
   624.94         2152.8721
   625.08         2152.4020
   625.22         2150.7326
   625.36         2147.8021
   625.50         2143.7237
   625.64         2138.6201
   625.78         2132.4744
   625.92         2125.2325
   626.06         2116.9473
   626.20         2107.7839
   626.34         2097.9172
   626.48         2087.4029
   626.62         2076.1100
   626.76         2063.7247
   626.90         2049.7439
   627.04         2033.4413
   627.18         2013.9289
   627.32         1990.4957
   627.46         1963.1230
   627.60         1932.7992
   627.74         1901.4452
   627.88         1871.5698
   628.02         1845.8477
   628.16         1826.6354
   628.30         1815.6494
   628.44         1813.9579
   628.58         1821.9980
   628.72         1839.4330
   628.86         1865.0114
   629.00         1896.6552
   629.14         1931.7295
   629.28         1967.3539
   629.42         2000.7437
   629.56         2029.5359
   629.70         2052.0671
   629.84         2067.6173
   629.98         2076.5071
   630.12         2079.8190
   630.26         2078.8686
   630.40         2074.8549
   630.54         2068.7876
   630.68         2061.5468
   630.82         2053.9197
   630.96         2046.6088
   631.10         2040.2245
   631.24         2035.2572
   631.38         2032.0609
   631.52         2030.8213
   631.66         2031.5472
   631.80         2034.0181
   631.94         2037.7672
   632.08         2042.2707
   632.22         2047.1589
   632.36         2052.2248
   632.50         2057.3397
   632.64         2062.4018
   632.78         2067.2337
   632.92         2071.5508
   633.06         2075.0455
   633.20         2077.4713
   633.34         2078.7082
   633.48         2078.7157
   633.62         2077.4737
   633.76         2075.0277
   633.90         2071.5439
   634.04         2067.2581
   634.18         2062.3939
   634.32         2057.1926
   634.46         2051.9553
   634.60         2047.0429
   634.74         2042.8410
   634.88         2039.6408
   635.02         2037.5134
   635.16         2036.3366
   635.30         2035.8879
   635.44         2035.8247
   635.58         2035.7517
   635.72         2035.3848
   635.86         2034.6132
   636.00         2033.4390
   636.14         2031.8743
   636.28         2029.9475
   636.42         2027.7248
   636.56         2025.2526
   636.70         2022.5133
   636.84         2019.4742
   636.98         2016.1953
   637.12         2012.8019
   637.26         2009.3936
   637.40         2006.0716
   637.54         2002.9726
   637.68         2000.2630
   637.82         1998.1614
   637.96         1996.9103
   638.10         1996.6983
   638.24         1997.6708
   638.38         1999.9359
   638.52         2003.4504
   638.66         2007.9560
   638.80         2013.0385
   638.94         2018.2054
   639.08         2022.9753
   639.22         2026.9743
   639.36         2029.9651
   639.50         2031.8434
   639.64         2032.6236
   639.78         2032.3419
   639.92         2030.9964
   640.06         2028.5892
   640.20         2025.1553
   640.34         2020.8031
   640.48         2015.7752
   640.62         2010.4365
   640.76         2005.2142
   640.90         2000.5410
   641.04         1996.8012
   641.18         1994.2407
   641.32         1992.9170
   641.46         1992.7075
   641.60         1993.3562
   641.74         1994.6039
   641.88         1996.2722
   642.02         1998.2441
   642.16         2000.4222
   642.30         2002.6666
   642.44         2004.7700
   642.58         2006.5287
   642.72         2007.8222
   642.86         2008.6313
   643.00         2009.0532
   643.14         2009.2692
   643.28         2009.3733
   643.42         2009.2401
   643.56         2008.5964
   643.70         2007.1822
   643.84         2004.8545
   643.98         2001.6479
   644.12         1997.7831
   644.26         1993.6166
   644.40         1989.5145
   644.54         1985.6900
   644.68         1982.1968
   644.82         1978.9927
   644.96         1975.9655
   645.10         1972.9662
   645.24         1969.8674
   645.38         1966.6567
   645.52         1963.4773
   645.66         1960.5766
   645.80         1958.1969
   645.94         1956.5102
   646.08         1955.6544
   646.22         1955.7747
   646.36         1957.0378
   646.50         1959.5771
   646.64         1963.3031
   646.78         1967.8706
   646.92         1972.7933
   647.06         1977.5161
   647.20         1981.5741
   647.34         1984.7340
   647.48         1986.9167
   647.62         1988.0601
   647.76         1988.1136
   647.90         1987.1281
   648.04         1985.2711
   648.18         1982.7317
   648.32         1979.6851
   648.46         1976.3194
   648.60         1972.8515
   648.74         1969.5376
   648.88         1966.6678
   649.02         1964.5231
   649.16         1963.3208
   649.30         1963.1368
   649.44         1963.9380
   649.58         1965.6115
   649.72         1967.9471
   649.86         1970.7014
   650.00         1973.5975
   650.14         1976.2736
   650.28         1978.3528
   650.42         1979.5751
   650.56         1979.8847
   650.70         1979.3931
   650.84         1978.2659
   650.98         1976.6354
   651.12         1974.5855
   651.26         1972.1577
   651.40         1969.3131
   651.54         1965.9411
   651.68         1961.9484
   651.82         1957.3342
   651.96         1952.1612
   652.10         1946.5735
   652.24         1940.8783
   652.38         1935.5279
   652.52         1931.0483
   652.66         1927.9956
   652.80         1926.9304
   652.94         1928.3535
   653.08         1932.6419
   653.22         1940.0610
   653.36         1950.7313
   653.50         1964.5897
   653.64         1981.4738
   653.78         2001.2750
   653.92         2023.9541
   654.06         2049.5352
   654.20         2078.2232
   654.34         2110.4059
   654.48         2146.5842
   654.62         2187.2768
   654.76         2232.8561
   654.90         2283.4320
   655.04         2338.8256
   655.18         2398.6486
   655.32         2462.4313
   655.46         2529.5635
   655.60         2599.1073
   655.74         2669.6758
   655.88         2739.3657
   656.02         2805.7650
   656.16         2866.1110
   656.30         2917.6142
   656.44         2957.7319
   656.58         2984.2499
   656.72         2995.4339
   656.86         2990.2650
   657.00         2968.5763
   657.14         2931.0787
   657.28         2879.2696
   657.42         2815.3255
   657.56         2742.0136
   657.70         2662.5506
   657.84         2580.3810
   657.98         2498.8226
   658.12         2420.6513
   658.26         2347.8686
   658.40         2281.7036
   658.54         2222.8186
   658.68         2171.5499
   658.82         2127.9726
   658.96         2091.8791
   659.10         2062.7522
   659.24         2039.8018
   659.38         2022.1053
   659.52         2008.7324
   659.66         1998.7996
   659.80         1991.4607
   659.94         1985.8119
   660.08         1980.8372
   660.22         1975.5580
   660.36         1969.3284
   660.50         1961.9680
   660.64         1953.6171
   660.78         1944.6233
   660.92         1935.4903
   661.06         1926.8085
   661.20         1919.2001
   661.34         1913.1898
   661.48         1909.0794
   661.62         1906.9558
   661.76         1906.7036
   661.90         1907.9806
   662.04         1910.2555
   662.18         1912.9165
   662.32         1915.3850
   662.46         1917.1184
   662.60         1917.6264
   662.74         1916.6439
   662.88         1914.2745
   663.02         1910.9629
   663.16         1907.2243
   663.30         1903.3512
   663.44         1899.4070
   663.58         1895.3519
   663.72         1891.1377
   663.86         1886.7460
   664.00         1882.1809
   664.14         1877.4806
   664.28         1872.6820
   664.42         1867.7578
   664.56         1862.6738
   664.70         1857.4749
   664.84         1852.3152
   664.98         1847.4427
   665.12         1843.1363
   665.26         1839.6901
   665.40         1837.3756
   665.54         1836.3677
   665.68         1836.7848
   665.82         1838.6791
   665.96         1841.9899
   666.10         1846.5864
   666.24         1852.2708
   666.38         1858.7656
   666.52         1865.7068
   666.66         1872.6619
   666.80         1879.2757
   666.94         1885.3658
   667.08         1890.9429
   667.22         1896.1976
   667.36         1901.3596
   667.50         1906.5989
   667.64         1911.9656
   667.78         1917.3479
   667.92         1922.5028
   668.06         1927.0971
   668.20         1930.8057
   668.34         1933.3783
   668.48         1934.5361
   668.62         1933.9700
   668.76         1931.4810
   668.90         1927.0678
   669.04         1920.9937
   669.18         1913.7481
   669.32         1906.0034
   669.46         1898.5520
   669.60         1892.0671
   669.74         1886.9142
   669.88         1883.0985
   670.02         1880.3157
   670.16         1878.1382
   670.30         1876.1161
   670.44         1873.8624
   670.58         1871.1400
   670.72         1867.8288
   670.86         1863.9104
   671.00         1859.4403
   671.14         1854.5430
   671.28         1849.4921
   671.42         1844.6427
   671.56         1840.2492
   671.70         1836.4161
   671.84         1833.1713
   671.98         1830.5092
   672.12         1828.3406
   672.26         1826.4886
   672.40         1824.7845
   672.54         1823.1162
   672.68         1821.4145
   672.82         1819.6355
   672.96         1817.7429
   673.10         1815.7434
   673.24         1813.6857
   673.38         1811.6001
   673.52         1809.4558
   673.66         1807.1273
   673.80         1804.4585
   673.94         1801.3654
   674.08         1797.8328
   674.22         1793.9079
   674.36         1789.7694
   674.50         1785.7292
   674.64         1782.0826
   674.78         1779.0080
   674.92         1776.5712
   675.06         1774.7271
   675.20         1773.3208
   675.34         1772.1376
   675.48         1770.9800
   675.62         1769.6972
   675.76         1768.1626
   675.90         1766.2646
   676.04         1763.9491
   676.18         1761.2471
   676.32         1758.2762
   676.46         1755.2806
   676.60         1752.5929
   676.74         1750.4712
   676.88         1749.0179
   677.02         1748.2162
   677.16         1747.9465
   677.30         1748.0050
   677.44         1748.1927
   677.58         1748.3714
   677.72         1748.4476
   677.86         1748.3381
   678.00         1747.9434
   678.14         1747.1823
   678.28         1746.0387
   678.42         1744.5659
   678.56         1742.9006
   678.70         1741.2695
   678.84         1739.8984
   678.98         1738.8896
   679.12         1738.2171
   679.26         1737.7876
   679.40         1737.4890
   679.54         1737.2405
   679.68         1737.0051
   679.82         1736.7448
   679.96         1736.4213
   680.10         1736.0126
   680.24         1735.4680
   680.38         1734.6721
   680.52         1733.4604
   680.66         1731.7264
   680.80         1729.4858
   680.94         1726.8256
   681.08         1723.8595
   681.22         1720.7334
   681.36         1717.6040
   681.50         1714.5550
   681.64         1711.6229
   681.78         1708.9089
   681.92         1706.5488
   682.06         1704.6171
   682.20         1703.1096
   682.34         1701.9535
   682.48         1701.0124
   682.62         1700.1068
   682.76         1699.0390
   682.90         1697.6297
   683.04         1695.7501
   683.18         1693.3370
   683.32         1690.4357
   683.46         1687.1761
   683.60         1683.7378
   683.74         1680.3446
   683.88         1677.2139
   684.02         1674.5027
   684.16         1672.2807
   684.30         1670.5598
   684.44         1669.2833
   684.58         1668.2948
   684.72         1667.3973
   684.86         1666.3998
   685.00         1665.0915
   685.14         1663.2383
   685.28         1660.5542
   685.42         1656.5433
   685.56         1650.2768
   685.70         1640.4054
   685.84         1625.5731
   685.98         1604.9142
   686.12         1578.2902
   686.26         1546.2932
   686.40         1510.1953
   686.54         1471.8661
   686.68         1433.6356
   686.82         1398.1425
   686.96         1368.1147
   687.10         1345.9335
   687.24         1333.1021
   687.38         1329.9344
   687.52         1335.5928
   687.66         1348.2997
   687.80         1365.5829
   687.94         1384.5930
   688.08         1402.4927
   688.22         1416.9843
   688.36         1426.7960
   688.50         1431.8287
   688.64         1432.8697
   688.78         1431.1215
   688.92         1427.9518
   689.06         1424.8064
   689.20         1423.0185
   689.34         1423.6051
   689.48         1427.1669
   689.62         1433.7616
   689.76         1442.8292
   689.90         1453.4357
   690.04         1464.6407
   690.18         1475.7316
   690.32         1486.3030
   690.46         1496.1841
   690.60         1505.2860
   690.74         1513.5280
   690.88         1520.8886
   691.02         1527.3694
   691.16         1532.9477
   691.30         1537.6380
   691.44         1541.5512
   691.58         1544.8696
   691.72         1547.7309
   691.86         1550.1659
   692.00         1552.1416
   692.14         1553.6092
   692.28         1554.5179
   692.42         1554.8572
   692.56         1554.6940
   692.70         1554.1252
   692.84         1553.2701
   692.98         1552.3004
   693.12         1551.3674
   693.26         1550.5330
   693.40         1549.8227
   693.54         1549.2471
   693.68         1548.7478
   693.82         1548.2657
   693.96         1547.8800
   694.10         1547.7630
   694.24         1548.0265
   694.38         1548.6863
   694.52         1549.6974
   694.66         1550.9950
   694.80         1552.5330
   694.94         1554.2879
   695.08         1556.2570
   695.22         1558.4334
   695.36         1560.7851
   695.50         1563.2656
   695.64         1565.7910
   695.78         1568.2439
   695.92         1570.5090
   696.06         1572.4942
   696.20         1574.1545
   696.34         1575.5256
   696.48         1576.7180
   696.62         1577.8254
   696.76         1578.8520
   696.90         1579.7561
   697.04         1580.5397
   697.18         1581.2680
   697.32         1582.0385
   697.46         1582.9277
   697.60         1583.9316
   697.74         1584.9594
   697.88         1585.8198
   698.02         1586.2182
   698.16         1585.8269
   698.30         1584.3977
   698.44         1581.9018
   698.58         1578.5199
   698.72         1574.5046
   698.86         1570.1439
   699.00         1565.7861
   699.14         1561.7822
   699.28         1558.4040
   699.42         1555.8770
   699.56         1554.4217
   699.70         1554.1928
   699.84         1555.2004
   699.98         1557.3263
   700.12         1560.3649
   700.26         1563.9966
   700.40         1567.7878
   700.54         1571.3037
   700.68         1574.2563
   700.82         1576.5354
   700.96         1578.1478
   701.10         1579.1290
   701.24         1579.4296
   701.38         1578.8952
   701.52         1577.3726
   701.66         1574.8102
   701.80         1571.2973
   701.94         1567.0456
   702.08         1562.4151
   702.22         1557.8883
   702.36         1553.9475
   702.50         1550.9736
   702.64         1549.1157
   702.78         1548.2890
   702.92         1548.2955
   703.06         1548.9288
   703.20         1550.0268
   703.34         1551.4157
   703.48         1552.8301
   703.62         1553.9380
   703.76         1554.4329
   703.90         1554.0583
   704.04         1552.6599
   704.18         1550.2964
   704.32         1547.2554
   704.46         1543.9104
   704.60         1540.5619
   704.74         1537.4227
   704.88         1534.5627
   705.02         1531.8312
   705.16         1528.9351
   705.30         1525.6122
   705.44         1521.8183
   705.58         1517.7534
   705.72         1513.7933
   705.86         1510.4604
   706.00         1508.3550
   706.14         1508.0282
   706.28         1509.8766
   706.42         1514.0741
   706.56         1520.4938
   706.70         1528.7103
   706.84         1538.1028
   706.98         1547.9356
   707.12         1557.3807
   707.26         1565.5796
   707.40         1571.7347
   707.54         1575.2190
   707.68         1575.7623
   707.82         1573.5416
   707.96         1569.0605
   708.10         1562.9804
   708.24         1556.0530
   708.38         1549.0691
   708.52         1542.7244
   708.66         1537.4859
   708.80         1533.5458
   708.94         1530.8664
   709.08         1529.2524
   709.22         1528.4432
   709.36         1528.2147
   709.50         1528.4081
   709.64         1528.8626
   709.78         1529.3525
   709.92         1529.6513
   710.06         1529.6686
   710.20         1529.4834
   710.34         1529.2606
   710.48         1529.1469
   710.62         1529.2269
   710.76         1529.5318
   710.90         1530.0734
   711.04         1530.8158
   711.18         1531.6571
   711.32         1532.5123
   711.46         1533.3443
   711.60         1534.1499
   711.74         1534.9556
   711.88         1535.7974
   712.02         1536.6761
   712.16         1537.5279
   712.30         1538.2447
   712.44         1538.7174
   712.58         1538.8727
   712.72         1538.6782
   712.86         1538.1335
   713.00         1537.2796
   713.14         1536.1953
   713.28         1534.9719
   713.42         1533.6974
   713.56         1532.4525
   713.70         1531.2686
   713.84         1530.1440
   713.98         1529.1008
   714.12         1528.1529
   714.26         1527.2782
   714.40         1526.4399
   714.54         1525.5903
   714.68         1524.6462
   714.82         1523.5287
   714.96         1522.2176
   715.10         1520.7701
   715.24         1519.2864
   715.38         1517.8090
   715.52         1516.2548
   715.66         1514.3746
   715.80         1511.7873
   715.94         1508.0534
   716.08         1502.7408
   716.22         1495.5375
   716.36         1486.3238
   716.50         1475.2038
   716.64         1462.5467
   716.78         1448.9428
   716.92         1435.0729
   717.06         1421.6094
   717.20         1409.0799
   717.34         1397.7489
   717.48         1387.7714
   717.62         1379.3922
   717.76         1372.8589
   717.90         1368.1871
   718.04         1365.1268
   718.18         1363.3829
   718.32         1362.7859
   718.46         1363.2769
   718.60         1364.7832
   718.74         1367.1233
   718.88         1370.0288
   719.02         1373.2104
   719.16         1376.3984
   719.30         1379.3590
   719.44         1381.9344
   719.58         1384.1174
   719.72         1386.0736
   719.86         1388.1033
   720.00         1390.6711
   720.14         1394.4261
   720.28         1399.9576
   720.42         1407.4682
   720.56         1416.7684
   720.70         1427.4958
   720.84         1439.2173
   720.98         1451.2601
   721.12         1462.5090
   721.26         1471.6475
   721.40         1477.6662
   721.54         1480.1544
   721.68         1479.2725
   721.82         1475.5154
   721.96         1469.5078
   722.10         1461.9088
   722.24         1453.3618
   722.38         1444.4663
   722.52         1435.7698
   722.66         1427.7076
   722.80         1420.4938
   722.94         1414.1617
   723.08         1408.6580
   723.22         1403.8998
   723.36         1399.8735
   723.50         1396.6108
   723.64         1394.1227
   723.78         1392.4450
   723.92         1391.6952
   724.06         1391.9590
   724.20         1393.1616
   724.34         1395.1217
   724.48         1397.5618
   724.62         1400.1916
   724.76         1402.8981
   724.90         1405.7321
   725.04         1408.6975
   725.18         1411.5554
   725.32         1413.8671
   725.46         1415.2693
   725.60         1415.6686
   725.74         1415.1215
   725.88         1413.6987
   726.02         1411.4562
   726.16         1408.3517
   726.30         1404.2559
   726.44         1399.0192
   726.58         1392.6353
   726.72         1385.4672
   726.86         1378.2266
   727.00         1371.7175
   727.14         1366.6089
   727.28         1363.4205
   727.42         1362.4178
   727.56         1363.4054
   727.70         1365.8339
   727.84         1369.0764
   727.98         1372.5806
   728.12         1375.9105
   728.26         1378.6643
   728.40         1380.4207
   728.54         1380.8463
   728.68         1379.7476
   728.82         1377.0879
   728.96         1372.9977
   729.10         1367.7821
   729.24         1361.9516
   729.38         1356.0768
   729.52         1350.5788
   729.66         1345.6505
   729.80         1341.3095
   729.94         1337.4913
   730.08         1334.0777
   730.22         1330.9747
   730.36         1328.2045
   730.50         1325.8425
   730.64         1323.8973
   730.78         1322.3292
   730.92         1321.0886
   731.06         1320.1086
   731.20         1319.3161
   731.34         1318.6199
   731.48         1317.9267
   731.62         1317.1452
   731.76         1316.1929
   731.90         1315.0211
   732.04         1313.5486
   732.18         1311.6186
   732.32         1309.0995
   732.46         1306.0298
   732.60         1302.6048
   732.74         1299.0350
   732.88         1295.4837
   733.02         1292.0883
   733.16         1289.0023
   733.30         1286.4128
   733.44         1284.5343
   733.58         1283.5578
   733.72         1283.5350
   733.86         1284.3383
   734.00         1285.7130
   734.14         1287.3238
   734.28         1288.7976
   734.42         1289.7700
   734.56         1289.9256
   734.70         1289.0312
   734.84         1286.9763
   734.98         1283.8347
   735.12         1279.8479
   735.26         1275.3009
   735.40         1270.4356
   735.54         1265.4446
   735.68         1260.5103
   735.82         1255.8271
   735.96         1251.5915
   736.10         1248.0126
   736.24         1245.2645
   736.38         1243.4106
   736.52         1242.4196
   736.66         1242.1852
   736.80         1242.5030
   736.94         1243.1018
   737.08         1243.7152
   737.22         1244.1142
   737.36         1244.1055
   737.50         1243.5359
   737.64         1242.3217
   737.78         1240.4421
   737.92         1237.9148
   738.06         1234.7938
   738.20         1231.2012
   738.34         1227.3441
   738.48         1223.4754
   738.62         1219.8587
   738.76         1216.7012
   738.90         1214.0820
   739.04         1211.9955
   739.18         1210.4014
   739.32         1209.1914
   739.46         1208.1829
   739.60         1207.1662
   739.74         1205.9327
   739.88         1204.2994
   740.02         1202.1744
   740.16         1199.6187
   740.30         1196.8116
   740.44         1193.9470
   740.58         1191.1929
   740.72         1188.6989
   740.86         1186.6136
   741.00         1185.0605
   741.14         1184.0717
   741.28         1183.5408
   741.42         1183.2188
   741.56         1182.8118
   741.70         1182.0659
   741.84         1180.7532
   741.98         1178.7158
   742.12         1175.9794
   742.26         1172.7874
   742.40         1169.5256
   742.54         1166.6187
   742.68         1164.4465
   742.82         1163.2878
   742.96         1163.2878
   743.10         1164.4465
   743.24         1166.6187
   743.38         1169.5256
   743.52         1172.7874
   743.66         1175.9794
   743.80         1178.7158
   743.94         1180.7532
   744.08         1182.0659
   744.22         1182.8118
