# File BD+5684
# Wavelength [nm]    Normalized Amplitude
   349.70         4.6298
   349.84         4.6411
   349.98         4.6603
   350.12         4.6824
   350.26         4.7041
   350.40         4.7240
   350.54         4.7413
   350.68         4.7565
   350.82         4.7703
   350.96         4.7809
   351.10         4.7849
   351.24         4.7809
   351.38         4.7703
   351.52         4.7565
   351.66         4.7413
   351.80         4.7240
   351.94         4.7041
   352.08         4.6824
   352.22         4.6603
   352.36         4.6411
   352.50         4.6298
   352.64         4.6316
   352.78         4.6503
   352.92         4.6876
   353.06         4.7431
   353.20         4.8138
   353.34         4.8951
   353.48         4.9817
   353.62         5.0675
   353.76         5.1475
   353.90         5.2178
   354.04         5.2750
   354.18         5.3161
   354.32         5.3395
   354.46         5.3467
   354.60         5.3414
   354.74         5.3269
   354.88         5.3068
   355.02         5.2859
   355.16         5.2680
   355.30         5.2533
   355.44         5.2397
   355.58         5.2257
   355.72         5.2092
   355.86         5.1860
   356.00         5.1512
   356.14         5.1009
   356.28         5.0334
   356.42         4.9516
   356.56         4.8627
   356.70         4.7760
   356.84         4.6994
   356.98         4.6386
   357.12         4.5946
   357.26         4.5633
   357.40         4.5391
   357.54         4.5186
   357.68         4.4995
   357.82         4.4805
   357.96         4.4622
   358.10         4.4474
   358.24         4.4410
   358.38         4.4502
   358.52         4.4824
   358.66         4.5433
   358.80         4.6337
   358.94         4.7496
   359.08         4.8837
   359.22         5.0259
   359.36         5.1627
   359.50         5.2792
   359.64         5.3624
   359.78         5.4030
   359.92         5.3987
   360.06         5.3548
   360.20         5.2825
   360.34         5.1957
   360.48         5.1072
   360.62         5.0270
   360.76         4.9636
   360.90         4.9249
   361.04         4.9160
   361.18         4.9373
   361.32         4.9850
   361.46         5.0544
   361.60         5.1401
   361.74         5.2350
   361.88         5.3292
   362.02         5.4116
   362.16         5.4722
   362.30         5.5049
   362.44         5.5103
   362.58         5.4944
   362.72         5.4669
   362.86         5.4375
   363.00         5.4132
   363.14         5.3957
   363.28         5.3853
   363.42         5.3831
   363.56         5.3897
   363.70         5.4043
   363.84         5.4258
   363.98         5.4532
   364.12         5.4844
   364.26         5.5175
   364.40         5.5530
   364.54         5.5939
   364.68         5.6451
   364.82         5.7104
   364.96         5.7920
   365.10         5.8896
   365.24         5.9985
   365.38         6.1106
   365.52         6.2157
   365.66         6.3043
   365.80         6.3695
   365.94         6.4095
   366.08         6.4274
   366.22         6.4296
   366.36         6.4231
   366.50         6.4132
   366.64         6.4041
   366.78         6.3987
   366.92         6.3991
   367.06         6.4063
   367.20         6.4192
   367.34         6.4351
   367.48         6.4499
   367.62         6.4627
   367.76         6.4769
   367.90         6.4984
   368.04         6.5321
   368.18         6.5812
   368.32         6.6472
   368.46         6.7306
   368.60         6.8311
   368.74         6.9490
   368.88         7.0821
   369.02         7.2248
   369.16         7.3675
   369.30         7.4991
   369.44         7.6094
   369.58         7.6901
   369.72         7.7361
   369.86         7.7464
   370.00         7.7264
   370.14         7.6889
   370.28         7.6526
   370.42         7.6360
   370.56         7.6525
   370.70         7.7068
   370.84         7.7947
   370.98         7.9075
   371.12         8.0357
   371.26         8.1707
   371.40         8.3039
   371.54         8.4249
   371.68         8.5222
   371.82         8.5862
   371.96         8.6103
   372.10         8.5909
   372.24         8.5280
   372.38         8.4271
   372.52         8.3008
   372.66         8.1675
   372.80         8.0476
   372.94         7.9577
   373.08         7.9072
   373.22         7.8968
   373.36         7.9184
   373.50         7.9593
   373.64         8.0067
   373.78         8.0494
   373.92         8.0794
   374.06         8.0939
   374.20         8.0954
   374.34         8.0889
   374.48         8.0779
   374.62         8.0624
   374.76         8.0430
   374.90         8.0263
   375.04         8.0261
   375.18         8.0561
   375.32         8.1230
   375.46         8.2229
   375.60         8.3411
   375.74         8.4573
   375.88         8.5538
   376.02         8.6217
   376.16         8.6616
   376.30         8.6822
   376.44         8.6990
   376.58         8.7326
   376.72         8.8014
   376.86         8.9152
   377.00         9.0743
   377.14         9.2739
   377.28         9.5056
   377.42         9.7566
   377.56         10.0112
   377.70         10.2509
   377.84         10.4548
   377.98         10.6034
   378.12         10.6817
   378.26         10.6805
   378.40         10.5988
   378.54         10.4441
   378.68         10.2324
   378.82         9.9884
   378.96         9.7440
   379.10         9.5356
   379.24         9.3956
   379.38         9.3443
   379.52         9.3878
   379.66         9.5247
   379.80         9.7481
   379.94         10.0415
   380.08         10.3783
   380.22         10.7282
   380.36         11.0644
   380.50         11.3649
   380.64         11.6117
   380.78         11.7906
   380.92         11.8946
   381.06         11.9253
   381.20         11.8908
   381.34         11.8043
   381.48         11.6818
   381.62         11.5359
   381.76         11.3727
   381.90         11.1914
   382.04         10.9868
   382.18         10.7539
   382.32         10.4925
   382.46         10.2053
   382.60         9.8960
   382.74         9.5735
   382.88         9.2573
   383.02         8.9756
   383.16         8.7565
   383.30         8.6207
   383.44         8.5800
   383.58         8.6374
   383.72         8.7857
   383.86         9.0103
   384.00         9.2941
   384.14         9.6195
   384.28         9.9666
   384.42         10.3137
   384.56         10.6409
   384.70         10.9331
   384.84         11.1839
   384.98         11.3972
   385.12         11.5827
   385.26         11.7504
   385.40         11.9087
   385.54         12.0648
   385.68         12.2222
   385.82         12.3776
   385.96         12.5197
   386.10         12.6352
   386.24         12.7146
   386.38         12.7536
   386.52         12.7523
   386.66         12.7137
   386.80         12.6420
   386.94         12.5411
   387.08         12.4131
   387.22         12.2588
   387.36         12.0795
   387.50         11.8769
   387.64         11.6521
   387.78         11.4060
   387.92         11.1430
   388.06         10.8732
   388.20         10.6101
   388.34         10.3671
   388.48         10.1541
   388.62         9.9816
   388.76         9.8635
   388.90         9.8128
   389.04         9.8359
   389.18         9.9277
   389.32         10.0744
   389.46         10.2575
   389.60         10.4577
   389.74         10.6597
   389.88         10.8524
   390.02         11.0262
   390.16         11.1713
   390.30         11.2795
   390.44         11.3456
   390.58         11.3667
   390.72         11.3393
   390.86         11.2601
   391.00         11.1279
   391.14         10.9452
   391.28         10.7164
   391.42         10.4448
   391.56         10.1292
   391.70         9.7634
   391.84         9.3394
   391.98         8.8529
   392.12         8.3070
   392.26         7.7122
   392.40         7.0849
   392.54         6.4444
   392.68         5.8146
   392.82         5.2261
   392.96         4.7152
   393.10         4.3191
   393.24         4.0714
   393.38         3.9960
   393.52         4.1010
   393.66         4.3772
   393.80         4.8000
   393.94         5.3338
   394.08         5.9385
   394.22         6.5736
   394.36         7.2012
   394.50         7.7887
   394.64         8.3113
   394.78         8.7513
   394.92         9.0957
   395.06         9.3342
   395.20         9.4562
   395.34         9.4515
   395.48         9.3126
   395.62         9.0385
   395.76         8.6382
   395.90         8.1329
   396.04         7.5549
   396.18         6.9477
   396.32         6.3650
   396.46         5.8660
   396.60         5.5084
   396.74         5.3387
   396.88         5.3835
   397.02         5.6477
   397.16         6.1180
   397.30         6.7653
   397.44         7.5463
   397.58         8.4072
   397.72         9.2911
   397.86         10.1465
   398.00         10.9337
   398.14         11.6256
   398.28         12.2057
   398.42         12.6679
   398.56         13.0170
   398.70         13.2686
   398.84         13.4456
   398.98         13.5712
   399.12         13.6646
   399.26         13.7388
   399.40         13.8020
   399.54         13.8615
   399.68         13.9279
   399.82         14.0132
   399.96         14.1253
   400.10         14.2669
   400.24         14.4369
   400.38         14.6325
   400.52         14.8493
   400.66         15.0794
   400.80         15.3107
   400.94         15.5304
   401.08         15.7286
   401.22         15.9014
   401.36         16.0509
   401.50         16.1798
   401.64         16.2855
   401.78         16.3598
   401.92         16.3953
   402.06         16.3901
   402.20         16.3502
   402.34         16.2877
   402.48         16.2171
   402.62         16.1509
   402.76         16.0991
   402.90         16.0677
   403.04         16.0573
   403.18         16.0639
   403.32         16.0813
   403.46         16.1037
   403.60         16.1278
   403.74         16.1524
   403.88         16.1765
   404.02         16.1960
   404.16         16.2017
   404.30         16.1840
   404.44         16.1417
   404.58         16.0865
   404.72         16.0359
   404.86         16.0049
   405.00         15.9999
   405.14         16.0181
   405.28         16.0515
   405.42         16.0904
   405.56         16.1270
   405.70         16.1562
   405.84         16.1758
   405.98         16.1837
   406.12         16.1763
   406.26         16.1452
   406.40         16.0779
   406.54         15.9653
   406.68         15.8090
   406.82         15.6239
   406.96         15.4326
   407.10         15.2564
   407.24         15.1111
   407.38         15.0079
   407.52         14.9567
   407.66         14.9691
   407.80         15.0556
   407.94         15.2203
   408.08         15.4584
   408.22         15.7541
   408.36         16.0801
   408.50         16.4001
   408.64         16.6736
   408.78         16.8608
   408.92         16.9312
   409.06         16.8747
   409.20         16.7043
   409.34         16.4491
   409.48         16.1407
   409.62         15.8069
   409.76         15.4736
   409.90         15.1717
   410.04         14.9351
   410.18         14.7939
   410.32         14.7661
   410.46         14.8514
   410.60         15.0314
   410.74         15.2756
   410.88         15.5468
   411.02         15.8078
   411.16         16.0282
   411.30         16.1877
   411.44         16.2753
   411.58         16.2917
   411.72         16.2453
   411.86         16.1477
   412.00         16.0106
   412.14         15.8476
   412.28         15.6792
   412.42         15.5339
   412.56         15.4429
   412.70         15.4319
   412.84         15.5116
   412.98         15.6737
   413.12         15.8967
   413.26         16.1565
   413.40         16.4331
   413.54         16.7084
   413.68         16.9645
   413.82         17.1857
   413.96         17.3590
   414.10         17.4739
   414.24         17.5252
   414.38         17.5161
   414.52         17.4591
   414.66         17.3731
   414.80         17.2803
   414.94         17.2025
   415.08         17.1580
   415.22         17.1583
   415.36         17.2060
   415.50         17.2952
   415.64         17.4172
   415.78         17.5608
   415.92         17.7073
   416.06         17.8293
   416.20         17.8964
   416.34         17.8845
   416.48         17.7805
   416.62         17.5824
   416.76         17.3022
   416.90         16.9656
   417.04         16.6069
   417.18         16.2615
   417.32         15.9603
   417.46         15.7276
   417.60         15.5808
   417.74         15.5293
   417.88         15.5735
   418.02         15.7047
   418.16         15.9063
   418.30         16.1522
   418.44         16.4086
   418.58         16.6429
   418.72         16.8347
   418.86         16.9765
   419.00         17.0658
   419.14         17.1013
   419.28         17.0850
   419.42         17.0250
   419.56         16.9334
   419.70         16.8252
   419.84         16.7191
   419.98         16.6370
   420.12         16.5983
   420.26         16.6154
   420.40         16.6930
   420.54         16.8292
   420.68         17.0159
   420.82         17.2377
   420.96         17.4725
   421.10         17.6943
   421.24         17.8770
   421.38         17.9979
   421.52         18.0429
   421.66         18.0125
   421.80         17.9226
   421.94         17.7966
   422.08         17.6564
   422.22         17.5182
   422.36         17.3938
   422.50         17.2916
   422.64         17.2158
   422.78         17.1677
   422.92         17.1499
   423.06         17.1665
   423.20         17.2182
   423.34         17.2961
   423.48         17.3837
   423.62         17.4634
   423.76         17.5223
   423.90         17.5567
   424.04         17.5734
   424.18         17.5865
   424.32         17.6095
   424.46         17.6467
   424.60         17.6934
   424.74         17.7437
   424.88         17.7972
   425.02         17.8608
   425.16         17.9449
   425.30         18.0594
   425.44         18.2094
   425.58         18.3903
   425.72         18.5846
   425.86         18.7661
   426.00         18.9089
   426.14         18.9967
   426.28         19.0249
   426.42         18.9991
   426.56         18.9315
   426.70         18.8369
   426.84         18.7290
   426.98         18.6184
   427.12         18.5132
   427.26         18.4199
   427.40         18.3429
   427.54         18.2808
   427.68         18.2252
   427.82         18.1643
   427.96         18.0865
   428.10         17.9829
   428.24         17.8485
   428.38         17.6823
   428.52         17.4880
   428.66         17.2726
   428.80         17.0424
   428.94         16.8022
   429.08         16.5561
   429.22         16.3079
   429.36         16.0623
   429.50         15.8267
   429.64         15.6131
   429.78         15.4374
   429.92         15.3163
   430.06         15.2604
   430.20         15.2750
   430.34         15.3663
   430.48         15.5436
   430.62         15.8108
   430.76         16.1594
   430.90         16.5679
   431.04         17.0076
   431.18         17.4470
   431.32         17.8572
   431.46         18.2190
   431.60         18.5256
   431.74         18.7776
   431.88         18.9771
   432.02         19.1270
   432.16         19.2311
   432.30         19.2914
   432.44         19.3022
   432.58         19.2470
   432.72         19.1048
   432.86         18.8636
   433.00         18.5279
   433.14         18.1164
   433.28         17.6566
   433.42         17.1838
   433.56         16.7393
   433.70         16.3627
   433.84         16.0846
   433.98         15.9260
   434.12         15.9011
   434.26         16.0165
   434.40         16.2662
   434.54         16.6319
   434.68         17.0860
   434.82         17.5942
   434.96         18.1219
   435.10         18.6414
   435.24         19.1353
   435.38         19.5953
   435.52         20.0175
   435.66         20.3982
   435.80         20.7326
   435.94         21.0136
   436.08         21.2294
   436.22         21.3641
   436.36         21.4063
   436.50         21.3595
   436.64         21.2448
   436.78         21.0925
   436.92         20.9289
   437.06         20.7659
   437.20         20.6017
   437.34         20.4321
   437.48         20.2588
   437.62         20.0877
   437.76         19.9224
   437.90         19.7613
   438.04         19.5995
   438.18         19.4344
   438.32         19.2694
   438.46         19.1128
   438.60         18.9700
   438.74         18.8422
   438.88         18.7344
   439.02         18.6588
   439.16         18.6267
   439.30         18.6397
   439.44         18.6878
   439.58         18.7530
   439.72         18.8172
   439.86         18.8728
   440.00         18.9247
   440.14         18.9769
   440.28         19.0236
   440.42         19.0507
   440.56         19.0447
   440.70         19.0001
   440.84         18.9193
   440.98         18.8106
   441.12         18.6862
   441.26         18.5621
   441.40         18.4571
   441.54         18.3894
   441.68         18.3693
   441.82         18.3966
   441.96         18.4615
   442.10         18.5491
   442.24         18.6442
   442.38         18.7391
   442.52         18.8360
   442.66         18.9381
   442.80         19.0418
   442.94         19.1353
   443.08         19.2073
   443.22         19.2562
   443.36         19.2885
   443.50         19.3121
   443.64         19.3317
   443.78         19.3510
   443.92         19.3731
   444.06         19.3970
   444.20         19.4183
   444.34         19.4323
   444.48         19.4362
   444.62         19.4280
   444.76         19.4066
   444.90         19.3724
   445.04         19.3282
   445.18         19.2759
   445.32         19.2118
   445.46         19.1290
   445.60         19.0255
   445.74         18.9129
   445.88         18.8150
   446.02         18.7565
   446.16         18.7570
   446.30         18.8296
   446.44         18.9834
   446.58         19.2186
   446.72         19.5214
   446.86         19.8666
   447.00         20.2274
   447.14         20.5810
   447.28         20.9080
   447.42         21.1907
   447.56         21.4114
   447.70         21.5562
   447.84         21.6190
   447.98         21.6016
   448.12         21.5133
   448.26         21.3723
   448.40         21.2067
   448.54         21.0477
   448.68         20.9211
   448.82         20.8426
   448.96         20.8209
   449.10         20.8623
   449.24         20.9684
   449.38         21.1356
   449.52         21.3568
   449.66         21.6245
   449.80         21.9288
   449.94         22.2530
   450.08         22.5747
   450.22         22.8708
   450.36         23.1240
   450.50         23.3214
   450.64         23.4516
   450.78         23.5073
   450.92         23.4858
   451.06         23.3872
   451.20         23.2151
   451.34         22.9764
   451.48         22.6828
   451.62         22.3522
   451.76         22.0052
   451.90         21.6572
   452.04         21.3186
   452.18         21.0019
   452.32         20.7273
   452.46         20.5168
   452.60         20.3841
   452.74         20.3317
   452.88         20.3541
   453.02         20.4402
   453.16         20.5741
   453.30         20.7381
   453.44         20.9123
   453.58         21.0741
   453.72         21.2015
   453.86         21.2797
   454.00         21.2997
   454.14         21.2569
   454.28         21.1551
   454.42         21.0078
   454.56         20.8352
   454.70         20.6629
   454.84         20.5184
   454.98         20.4225
   455.12         20.3828
   455.26         20.3970
   455.40         20.4607
   455.54         20.5695
   455.68         20.7161
   455.82         20.8887
   455.96         21.0731
   456.10         21.2568
   456.24         21.4307
   456.38         21.5889
   456.52         21.7270
   456.66         21.8390
   456.80         21.9178
   456.94         21.9574
   457.08         21.9544
   457.22         21.9107
   457.36         21.8331
   457.50         21.7299
   457.64         21.6100
   457.78         21.4843
   457.92         21.3657
   458.06         21.2670
   458.20         21.1984
   458.34         21.1672
   458.48         21.1777
   458.62         21.2321
   458.76         21.3272
   458.90         21.4522
   459.04         21.5920
   459.18         21.7338
   459.32         21.8699
   459.46         21.9989
   459.60         22.1253
   459.74         22.2584
   459.88         22.4064
   460.02         22.5702
   460.16         22.7412
   460.30         22.9069
   460.44         23.0559
   460.58         23.1800
   460.72         23.2752
   460.86         23.3425
   461.00         23.3863
   461.14         23.4131
   461.28         23.4292
   461.42         23.4392
   461.56         23.4464
   461.70         23.4551
   461.84         23.4714
   461.98         23.4987
   462.12         23.5356
   462.26         23.5762
   462.40         23.6128
   462.54         23.6390
   462.68         23.6536
   462.82         23.6602
   462.96         23.6653
   463.10         23.6746
   463.24         23.6903
   463.38         23.7114
   463.52         23.7349
   463.66         23.7563
   463.80         23.7700
   463.94         23.7712
   464.08         23.7580
   464.22         23.7305
   464.36         23.6902
   464.50         23.6426
   464.64         23.5962
   464.78         23.5588
   464.92         23.5353
   465.06         23.5268
   465.20         23.5309
   465.34         23.5378
   465.48         23.5285
   465.62         23.4809
   465.76         23.3806
   465.90         23.2277
   466.04         23.0396
   466.18         22.8467
   466.32         22.6834
   466.46         22.5780
   466.60         22.5469
   466.74         22.5926
   466.88         22.7074
   467.02         22.8810
   467.16         23.1045
   467.30         23.3646
   467.44         23.6400
   467.58         23.9065
   467.72         24.1440
   467.86         24.3383
   468.00         24.4831
   468.14         24.5816
   468.28         24.6484
   468.42         24.7020
   468.56         24.7564
   468.70         24.8154
   468.84         24.8720
   468.98         24.9108
   469.12         24.9135
   469.26         24.8665
   469.40         24.7642
   469.54         24.6099
   469.68         24.4151
   469.82         24.1968
   469.96         23.9733
   470.10         23.7613
   470.24         23.5757
   470.38         23.4294
   470.52         23.3341
   470.66         23.2964
   470.80         23.3162
   470.94         23.3890
   471.08         23.5055
   471.22         23.6517
   471.36         23.8123
   471.50         23.9715
   471.64         24.1143
   471.78         24.2281
   471.92         24.3042
   472.06         24.3393
   472.20         24.3364
   472.34         24.3021
   472.48         24.2448
   472.62         24.1717
   472.76         24.0894
   472.90         24.0058
   473.04         23.9310
   473.18         23.8748
   473.32         23.8447
   473.46         23.8461
   473.60         23.8821
   473.74         23.9521
   473.88         24.0522
   474.02         24.1746
   474.16         24.3085
   474.30         24.4410
   474.44         24.5598
   474.58         24.6576
   474.72         24.7310
   474.86         24.7747
   475.00         24.7776
   475.14         24.7272
   475.28         24.6178
   475.42         24.4543
   475.56         24.2512
   475.70         24.0292
   475.84         23.8109
   475.98         23.6178
   476.12         23.4680
   476.26         23.3753
   476.40         23.3490
   476.54         23.3913
   476.68         23.4950
   476.82         23.6476
   476.96         23.8339
   477.10         24.0380
   477.24         24.2422
   477.38         24.4244
   477.52         24.5628
   477.66         24.6434
   477.80         24.6673
   477.94         24.6496
   478.08         24.6112
   478.22         24.5699
   478.36         24.5378
   478.50         24.5210
   478.64         24.5217
   478.78         24.5392
   478.92         24.5709
   479.06         24.6116
   479.20         24.6519
   479.34         24.6827
   479.48         24.6985
   479.62         24.6963
   479.76         24.6746
   479.90         24.6341
   480.04         24.5803
   480.18         24.5243
   480.32         24.4798
   480.46         24.4592
   480.60         24.4688
   480.74         24.5075
   480.88         24.5655
   481.02         24.6281
   481.16         24.6804
   481.30         24.7133
   481.44         24.7230
   481.58         24.7088
   481.72         24.6719
   481.86         24.6171
   482.00         24.5521
   482.14         24.4846
   482.28         24.4218
   482.42         24.3700
   482.56         24.3344
   482.70         24.3180
   482.84         24.3197
   482.98         24.3338
   483.12         24.3510
   483.26         24.3612
   483.40         24.3575
   483.54         24.3378
   483.68         24.3051
   483.82         24.2670
   483.96         24.2312
   484.10         24.2002
   484.24         24.1702
   484.38         24.1352
   484.52         24.0918
   484.66         24.0368
   484.80         23.9632
   484.94         23.8597
   485.08         23.7127
   485.22         23.5096
   485.36         23.2382
   485.50         22.8860
   485.64         22.4472
   485.78         21.9304
   485.92         21.3599
   486.06         20.7713
   486.20         20.2072
   486.34         19.7102
   486.48         19.3136
   486.62         19.0376
   486.76         18.8912
   486.90         18.8758
   487.04         18.9855
   487.18         19.2061
   487.32         19.5143
   487.46         19.8824
   487.60         20.2829
   487.74         20.6898
   487.88         21.0784
   488.02         21.4290
   488.16         21.7335
   488.30         21.9967
   488.44         22.2259
   488.58         22.4233
   488.72         22.5907
   488.86         22.7333
   489.00         22.8586
   489.14         22.9768
   489.28         23.1004
   489.42         23.2396
   489.56         23.3991
   489.70         23.5788
   489.84         23.7745
   489.98         23.9792
   490.12         24.1840
   490.26         24.3758
   490.40         24.5391
   490.54         24.6608
   490.68         24.7344
   490.82         24.7606
   490.96         24.7454
   491.10         24.6984
   491.24         24.6325
   491.38         24.5591
   491.52         24.4817
   491.66         24.3955
   491.80         24.2906
   491.94         24.1573
   492.08         23.9952
   492.22         23.8207
   492.36         23.6603
   492.50         23.5398
   492.64         23.4787
   492.78         23.4852
   492.92         23.5545
   493.06         23.6744
   493.20         23.8300
   493.34         24.0047
   493.48         24.1810
   493.62         24.3438
   493.76         24.4806
   493.90         24.5839
   494.04         24.6548
   494.18         24.7032
   494.32         24.7440
   494.46         24.7933
   494.60         24.8648
   494.74         24.9675
   494.88         25.1007
   495.02         25.2505
   495.16         25.3931
   495.30         25.5022
   495.44         25.5597
   495.58         25.5612
   495.72         25.5146
   495.86         25.4340
   496.00         25.3366
   496.14         25.2411
   496.28         25.1638
   496.42         25.1152
   496.56         25.0975
   496.70         25.1073
   496.84         25.1382
   496.98         25.1852
   497.12         25.2445
   497.26         25.3107
   497.40         25.3760
   497.54         25.4278
   497.68         25.4480
   497.82         25.4157
   497.96         25.3162
   498.10         25.1481
   498.24         24.9215
   498.38         24.6522
   498.52         24.3588
   498.66         24.0606
   498.80         23.7759
   498.94         23.5229
   499.08         23.3199
   499.22         23.1809
   499.36         23.1115
   499.50         23.1061
   499.64         23.1488
   499.78         23.2171
   499.92         23.2864
   500.06         23.3322
   500.20         23.3339
   500.34         23.2837
   500.48         23.1906
   500.62         23.0753
   500.76         22.9582
   500.90         22.8503
   501.04         22.7539
   501.18         22.6653
   501.32         22.5782
   501.46         22.4891
   501.60         22.4002
   501.74         22.3181
   501.88         22.2491
   502.02         22.1987
   502.16         22.1740
   502.30         22.1834
   502.44         22.2346
   502.58         22.3316
   502.72         22.4751
   502.86         22.6653
   503.00         22.8973
   503.14         23.1560
   503.28         23.4165
   503.42         23.6505
   503.56         23.8322
   503.70         23.9445
   503.84         23.9837
   503.98         23.9612
   504.12         23.8996
   504.26         23.8236
   504.40         23.7523
   504.54         23.6977
   504.68         23.6667
   504.82         23.6636
   504.96         23.6936
   505.10         23.7628
   505.24         23.8747
   505.38         24.0277
   505.52         24.2144
   505.66         24.4231
   505.80         24.6394
   505.94         24.8475
   506.08         25.0309
   506.22         25.1779
   506.36         25.2853
   506.50         25.3555
   506.64         25.3889
   506.78         25.3807
   506.92         25.3239
   507.06         25.2162
   507.20         25.0627
   507.34         24.8728
   507.48         24.6566
   507.62         24.4247
   507.76         24.1874
   507.90         23.9554
   508.04         23.7416
   508.18         23.5581
   508.32         23.4136
   508.46         23.3139
   508.60         23.2640
   508.74         23.2702
   508.88         23.3385
   509.02         23.4697
   509.16         23.6536
   509.30         23.8689
   509.44         24.0885
   509.58         24.2881
   509.72         24.4510
   509.86         24.5673
   510.00         24.6323
   510.14         24.6467
   510.28         24.6170
   510.42         24.5541
   510.56         24.4706
   510.70         24.3806
   510.84         24.2979
   510.98         24.2345
   511.12         24.2008
   511.26         24.2025
   511.40         24.2374
   511.54         24.2950
   511.68         24.3585
   511.82         24.4076
   511.96         24.4259
   512.10         24.4063
   512.24         24.3481
   512.38         24.2515
   512.52         24.1164
   512.66         23.9457
   512.80         23.7475
   512.94         23.5372
   513.08         23.3352
   513.22         23.1608
   513.36         23.0284
   513.50         22.9447
   513.64         22.9089
   513.78         22.9148
   513.92         22.9524
   514.06         23.0088
   514.20         23.0709
   514.34         23.1277
   514.48         23.1727
   514.62         23.2032
   514.76         23.2155
   514.90         23.2055
   515.04         23.1735
   515.18         23.1288
   515.32         23.0859
   515.46         23.0585
   515.60         23.0546
   515.74         23.0761
   515.88         23.1189
   516.02         23.1731
   516.16         23.2217
   516.30         23.2448
   516.44         23.2251
   516.58         23.1525
   516.72         23.0254
   516.86         22.8542
   517.00         22.6625
   517.14         22.4817
   517.28         22.3432
   517.42         22.2737
   517.56         22.2940
   517.70         22.4120
   517.84         22.6180
   517.98         22.8876
   518.12         23.1861
   518.26         23.4756
   518.40         23.7212
   518.54         23.8926
   518.68         23.9670
   518.82         23.9348
   518.96         23.8031
   519.10         23.5931
   519.24         23.3344
   519.38         23.0622
   519.52         22.8127
   519.66         22.6153
   519.80         22.4840
   519.94         22.4168
   520.08         22.4011
   520.22         22.4217
   520.36         22.4651
   520.50         22.5248
   520.64         22.6013
   520.78         22.6963
   520.92         22.8069
   521.06         22.9259
   521.20         23.0460
   521.34         23.1639
   521.48         23.2816
   521.62         23.4040
   521.76         23.5342
   521.90         23.6685
   522.04         23.7944
   522.18         23.8939
   522.32         23.9510
   522.46         23.9554
   522.60         23.9053
   522.74         23.8054
   522.88         23.6649
   523.02         23.4975
   523.16         23.3210
   523.30         23.1548
   523.44         23.0158
   523.58         22.9189
   523.72         22.8784
   523.86         22.9064
   524.00         23.0066
   524.14         23.1710
   524.28         23.3802
   524.42         23.6068
   524.56         23.8237
   524.70         24.0125
   524.84         24.1657
   524.98         24.2818
   525.12         24.3619
   525.26         24.4071
   525.40         24.4185
   525.54         24.3973
   525.68         24.3435
   525.82         24.2527
   525.96         24.1184
   526.10         23.9356
   526.24         23.7030
   526.38         23.4217
   526.52         23.0970
   526.66         22.7413
   526.80         22.3723
   526.94         22.0111
   527.08         21.6835
   527.22         21.4185
   527.36         21.2405
   527.50         21.1621
   527.64         21.1824
   527.78         21.2913
   527.92         21.4730
   528.06         21.7101
   528.20         21.9875
   528.34         22.2939
   528.48         22.6214
   528.62         22.9643
   528.76         23.3162
   528.90         23.6668
   529.04         24.0026
   529.18         24.3093
   529.32         24.5738
   529.46         24.7857
   529.60         24.9392
   529.74         25.0344
   529.88         25.0736
   530.02         25.0603
   530.16         25.0022
   530.30         24.9140
   530.44         24.8179
   530.58         24.7376
   530.72         24.6896
   530.86         24.6779
   531.00         24.6941
   531.14         24.7235
   531.28         24.7513
   531.42         24.7666
   531.56         24.7631
   531.70         24.7354
   531.84         24.6792
   531.98         24.5925
   532.12         24.4740
   532.26         24.3241
   532.40         24.1481
   532.54         23.9583
   532.68         23.7714
   532.82         23.6040
   532.96         23.4680
   533.10         23.3680
   533.24         23.3012
   533.38         23.2609
   533.52         23.2417
   533.66         23.2426
   533.80         23.2671
   533.94         23.3185
   534.08         23.3965
   534.22         23.4956
   534.36         23.6073
   534.50         23.7243
   534.64         23.8450
   534.78         23.9725
   534.92         24.1131
   535.06         24.2738
   535.20         24.4576
   535.34         24.6605
   535.48         24.8708
   535.62         25.0727
   535.76         25.2498
   535.90         25.3891
   536.04         25.4830
   536.18         25.5276
   536.32         25.5198
   536.46         25.4571
   536.60         25.3416
   536.74         25.1847
   536.88         25.0075
   537.02         24.8348
   537.16         24.6910
   537.30         24.5940
   537.44         24.5521
   537.58         24.5639
   537.72         24.6211
   537.86         24.7114
   538.00         24.8209
   538.14         24.9358
   538.28         25.0443
   538.42         25.1375
   538.56         25.2093
   538.70         25.2552
   538.84         25.2711
   538.98         25.2541
   539.12         25.2051
   539.26         25.1300
   539.40         25.0381
   539.54         24.9366
   539.68         24.8266
   539.82         24.7037
   539.96         24.5612
   540.10         24.3982
   540.24         24.2215
   540.38         24.0429
   540.52         23.8762
   540.66         23.7348
   540.80         23.6276
   540.94         23.5585
   541.08         23.5274
   541.22         23.5325
   541.36         23.5716
   541.50         23.6420
   541.64         23.7391
   541.78         23.8574
   541.92         23.9903
   542.06         24.1310
   542.20         24.2692
   542.34         24.3925
   542.48         24.4904
   542.62         24.5581
   542.76         24.5951
   542.90         24.6031
   543.04         24.5870
   543.18         24.5578
   543.32         24.5294
   543.46         24.5151
   543.60         24.5255
   543.74         24.5671
   543.88         24.6407
   544.02         24.7382
   544.16         24.8454
   544.30         24.9483
   544.44         25.0382
   544.58         25.1125
   544.72         25.1709
   544.86         25.2106
   545.00         25.2267
   545.14         25.2180
   545.28         25.1914
   545.42         25.1608
   545.56         25.1409
   545.70         25.1422
   545.84         25.1671
   545.98         25.2118
   546.12         25.2697
   546.26         25.3337
   546.40         25.3980
   546.54         25.4587
   546.68         25.5134
   546.82         25.5619
   546.96         25.6041
   547.10         25.6353
   547.24         25.6453
   547.38         25.6241
   547.52         25.5677
   547.66         25.4819
   547.80         25.3821
   547.94         25.2867
   548.08         25.2091
   548.22         25.1560
   548.36         25.1306
   548.50         25.1363
   548.64         25.1761
   548.78         25.2485
   548.92         25.3466
   549.06         25.4583
   549.20         25.5680
   549.34         25.6605
   549.48         25.7244
   549.62         25.7525
   549.76         25.7431
   549.90         25.7023
   550.04         25.6412
   550.18         25.5696
   550.32         25.4929
   550.46         25.4130
   550.60         25.3305
   550.74         25.2468
   550.88         25.1675
   551.02         25.1010
   551.16         25.0564
   551.30         25.0422
   551.44         25.0650
   551.58         25.1280
   551.72         25.2289
   551.86         25.3597
   552.00         25.5077
   552.14         25.6535
   552.28         25.7733
   552.42         25.8488
   552.56         25.8725
   552.70         25.8452
   552.84         25.7726
   552.98         25.6646
   553.12         25.5368
   553.26         25.4103
   553.40         25.3088
   553.54         25.2521
   553.68         25.2517
   553.82         25.3092
   553.96         25.4183
   554.10         25.5659
   554.24         25.7343
   554.38         25.9043
   554.52         26.0582
   554.66         26.1812
   554.80         26.2646
   554.94         26.3088
   555.08         26.3236
   555.22         26.3207
   555.36         26.3092
   555.50         26.2951
   555.64         26.2841
   555.78         26.2824
   555.92         26.2937
   556.06         26.3163
   556.20         26.3429
   556.34         26.3631
   556.48         26.3673
   556.62         26.3490
   556.76         26.3057
   556.90         26.2393
   557.04         26.1545
   557.18         26.0577
   557.32         25.9577
   557.46         25.8651
   557.60         25.7896
   557.74         25.7388
   557.88         25.7172
   558.02         25.7241
   558.16         25.7516
   558.30         25.7845
   558.44         25.8049
   558.58         25.7984
   558.72         25.7557
   558.86         25.6724
   559.00         25.5490
   559.14         25.3916
   559.28         25.2114
   559.42         25.0229
   559.56         24.8419
   559.70         24.6815
   559.84         24.5527
   559.98         24.4652
   560.12         24.4274
   560.26         24.4433
   560.40         24.5117
   560.54         24.6257
   560.68         24.7737
   560.82         24.9404
   560.96         25.1092
   561.10         25.2660
   561.24         25.4005
   561.38         25.5056
   561.52         25.5768
   561.66         25.6109
   561.80         25.6071
   561.94         25.5670
   562.08         25.4952
   562.22         25.3994
   562.36         25.2923
   562.50         25.1918
   562.64         25.1173
   562.78         25.0824
   562.92         25.0914
   563.06         25.1405
   563.20         25.2215
   563.34         25.3210
   563.48         25.4210
   563.62         25.5026
   563.76         25.5516
   563.90         25.5625
   564.04         25.5364
   564.18         25.4785
   564.32         25.3961
   564.46         25.2996
   564.60         25.2012
   564.74         25.1128
   564.88         25.0442
   565.02         25.0006
   565.16         24.9784
   565.30         24.9643
   565.44         24.9396
   565.58         24.8891
   565.72         24.8052
   565.86         24.6858
   566.00         24.5356
   566.14         24.3660
   566.28         24.1925
   566.42         24.0327
   566.56         23.9052
   566.70         23.8272
   566.84         23.8113
   566.98         23.8622
   567.12         23.9765
   567.26         24.1443
   567.40         24.3517
   567.54         24.5812
   567.68         24.8127
   567.82         25.0233
   567.96         25.1923
   568.10         25.3065
   568.24         25.3608
   568.38         25.3538
   568.52         25.2881
   568.66         25.1741
   568.80         25.0277
   568.94         24.8673
   569.08         24.7145
   569.22         24.5936
   569.36         24.5253
   569.50         24.5210
   569.64         24.5802
   569.78         24.6932
   569.92         24.8441
   570.06         25.0130
   570.20         25.1767
   570.34         25.3105
   570.48         25.3935
   570.62         25.4138
   570.76         25.3705
   570.90         25.2721
   571.04         25.1353
   571.18         24.9837
   571.32         24.8426
   571.46         24.7324
   571.60         24.6669
   571.74         24.6552
   571.88         24.7013
   572.02         24.8024
   572.16         24.9488
   572.30         25.1261
   572.44         25.3189
   572.58         25.5118
   572.72         25.6900
   572.86         25.8397
   573.00         25.9517
   573.14         26.0253
   573.28         26.0660
   573.42         26.0824
   573.56         26.0828
   573.70         26.0749
   573.84         26.0637
   573.98         26.0519
   574.12         26.0411
   574.26         26.0327
   574.40         26.0270
   574.54         26.0230
   574.68         26.0169
   574.82         26.0026
   574.96         25.9744
   575.10         25.9295
   575.24         25.8691
   575.38         25.7977
   575.52         25.7214
   575.66         25.6466
   575.80         25.5783
   575.94         25.5189
   576.08         25.4698
   576.22         25.4329
   576.36         25.4115
   576.50         25.4084
   576.64         25.4244
   576.78         25.4567
   576.92         25.4986
   577.06         25.5429
   577.20         25.5839
   577.34         25.6156
   577.48         25.6311
   577.62         25.6240
   577.76         25.5877
   577.90         25.5182
   578.04         25.4158
   578.18         25.2859
   578.32         25.1385
   578.46         24.9872
   578.60         24.8469
   578.74         24.7300
   578.88         24.6466
   579.02         24.6034
   579.16         24.6009
   579.30         24.6343
   579.44         24.6961
   579.58         24.7789
   579.72         24.8754
   579.86         24.9768
   580.00         25.0722
   580.14         25.1517
   580.28         25.2109
   580.42         25.2522
   580.56         25.2827
   580.70         25.3097
   580.84         25.3377
   580.98         25.3683
   581.12         25.4025
   581.26         25.4412
   581.40         25.4848
   581.54         25.5337
   581.68         25.5878
   581.82         25.6460
   581.96         25.7086
   582.10         25.7766
   582.24         25.8497
   582.38         25.9258
   582.52         26.0025
   582.66         26.0784
   582.80         26.1534
   582.94         26.2277
   583.08         26.2998
   583.22         26.3673
   583.36         26.4267
   583.50         26.4750
   583.64         26.5096
   583.78         26.5284
   583.92         26.5301
   584.06         26.5142
   584.20         26.4834
   584.34         26.4411
   584.48         26.3893
   584.62         26.3269
   584.76         26.2507
   584.90         26.1570
   585.04         26.0454
   585.18         25.9159
   585.32         25.7699
   585.46         25.6139
   585.60         25.4588
   585.74         25.3175
   585.88         25.2008
   586.02         25.1175
   586.16         25.0751
   586.30         25.0788
   586.44         25.1300
   586.58         25.2250
   586.72         25.3557
   586.86         25.5099
   587.00         25.6717
   587.14         25.8248
   587.28         25.9555
   587.42         26.0557
   587.56         26.1223
   587.70         26.1549
   587.84         26.1550
   587.98         26.1281
   588.12         26.0820
   588.26         26.0144
   588.40         25.9086
   588.54         25.7445
   588.68         25.5132
   588.82         25.2158
   588.96         24.8553
   589.10         24.4365
   589.24         23.9766
   589.38         23.5086
   589.52         23.0739
   589.66         22.7130
   589.80         22.4587
   589.94         22.3337
   590.08         22.3490
   590.22         22.5038
   590.36         22.7852
   590.50         23.1682
   590.64         23.6159
   590.78         24.0832
   590.92         24.5234
   591.06         24.9011
   591.20         25.2032
   591.34         25.4284
   591.48         25.5759
   591.62         25.6491
   591.76         25.6643
   591.90         25.6475
   592.04         25.6213
   592.18         25.5973
   592.32         25.5794
   592.46         25.5690
   592.60         25.5674
   592.74         25.5757
   592.88         25.5928
   593.02         25.6151
   593.16         25.6373
   593.30         25.6557
   593.44         25.6694
   593.58         25.6798
   593.72         25.6881
   593.86         25.6945
   594.00         25.6960
   594.14         25.6890
   594.28         25.6732
   594.42         25.6512
   594.56         25.6241
   594.70         25.5904
   594.84         25.5482
   594.98         25.4973
   595.12         25.4400
   595.26         25.3790
   595.40         25.3167
   595.54         25.2570
   595.68         25.2035
   595.82         25.1594
   595.96         25.1285
   596.10         25.1137
   596.24         25.1160
   596.38         25.1340
   596.52         25.1655
   596.66         25.2055
   596.80         25.2476
   596.94         25.2867
   597.08         25.3186
   597.22         25.3379
   597.36         25.3397
   597.50         25.3224
   597.64         25.2861
   597.78         25.2308
   597.92         25.1587
   598.06         25.0747
   598.20         24.9851
   598.34         24.8954
   598.48         24.8104
   598.62         24.7339
   598.76         24.6695
   598.90         24.6206
   599.04         24.5901
   599.18         24.5783
   599.32         24.5826
   599.46         24.5992
   599.60         24.6241
   599.74         24.6525
   599.88         24.6775
   600.02         24.6909
   600.16         24.6854
   600.30         24.6567
   600.44         24.6069
   600.58         24.5428
   600.72         24.4715
   600.86         24.3998
   601.00         24.3354
   601.14         24.2869
   601.28         24.2611
   601.42         24.2600
   601.56         24.2789
   601.70         24.3048
   601.84         24.3233
   601.98         24.3239
   602.12         24.3003
   602.26         24.2504
   602.40         24.1796
   602.54         24.0971
   602.68         24.0131
   602.82         23.9380
   602.96         23.8823
   603.10         23.8547
   603.24         23.8597
   603.38         23.8978
   603.52         23.9664
   603.66         24.0601
   603.80         24.1691
   603.94         24.2800
   604.08         24.3801
   604.22         24.4602
   604.36         24.5168
   604.50         24.5537
   604.64         24.5786
   604.78         24.5983
   604.92         24.6190
   605.06         24.6428
   605.20         24.6665
   605.34         24.6843
   605.48         24.6934
   605.62         24.6941
   605.76         24.6885
   605.90         24.6787
   606.04         24.6667
   606.18         24.6537
   606.32         24.6389
   606.46         24.6207
   606.60         24.5970
   606.74         24.5672
   606.88         24.5312
   607.02         24.4879
   607.16         24.4369
   607.30         24.3788
   607.44         24.3158
   607.58         24.2505
   607.72         24.1863
   607.86         24.1289
   608.00         24.0860
   608.14         24.0644
   608.28         24.0675
   608.42         24.0940
   608.56         24.1381
   608.70         24.1899
   608.84         24.2358
   608.98         24.2627
   609.12         24.2631
   609.26         24.2360
   609.40         24.1851
   609.54         24.1178
   609.68         24.0439
   609.82         23.9745
   609.96         23.9193
   610.10         23.8842
   610.24         23.8722
   610.38         23.8837
   610.52         23.9169
   610.66         23.9671
   610.80         24.0257
   610.94         24.0817
   611.08         24.1246
   611.22         24.1470
   611.36         24.1462
   611.50         24.1235
   611.64         24.0843
   611.78         24.0363
   611.92         23.9864
   612.06         23.9386
   612.20         23.8927
   612.34         23.8419
   612.48         23.7764
   612.62         23.6888
   612.76         23.5765
   612.90         23.4392
   613.04         23.2808
   613.18         23.1089
   613.32         22.9334
   613.46         22.7638
   613.60         22.6105
   613.74         22.4859
   613.88         22.4020
   614.02         22.3671
   614.16         22.3829
   614.30         22.4457
   614.44         22.5476
   614.58         22.6772
   614.72         22.8185
   614.86         22.9520
   615.00         23.0610
   615.14         23.1385
   615.28         23.1862
   615.42         23.2080
   615.56         23.2073
   615.70         23.1875
   615.84         23.1514
   615.98         23.1024
   616.12         23.0472
   616.26         22.9956
   616.40         22.9583
   616.54         22.9433
   616.68         22.9539
   616.82         22.9899
   616.96         23.0489
   617.10         23.1266
   617.24         23.2178
   617.38         23.3159
   617.52         23.4158
   617.66         23.5135
   617.80         23.6043
   617.94         23.6809
   618.08         23.7373
   618.22         23.7715
   618.36         23.7862
   618.50         23.7883
   618.64         23.7868
   618.78         23.7896
   618.92         23.8016
   619.06         23.8250
   619.20         23.8600
   619.34         23.9060
   619.48         23.9614
   619.62         24.0242
   619.76         24.0918
   619.90         24.1612
   620.04         24.2269
   620.18         24.2811
   620.32         24.3160
   620.46         24.3270
   620.60         24.3137
   620.74         24.2790
   620.88         24.2269
   621.02         24.1621
   621.16         24.0908
   621.30         24.0202
   621.44         23.9568
   621.58         23.9046
   621.72         23.8631
   621.86         23.8286
   622.00         23.7969
   622.14         23.7669
   622.28         23.7383
   622.42         23.7084
   622.56         23.6705
   622.70         23.6178
   622.84         23.5487
   622.98         23.4684
   623.12         23.3830
   623.26         23.2947
   623.40         23.2023
   623.54         23.1062
   623.68         23.0106
   623.82         22.9210
   623.96         22.8403
   624.10         22.7690
   624.24         22.7063
   624.38         22.6537
   624.52         22.6166
   624.66         22.6032
   624.80         22.6194
   624.94         22.6644
   625.08         22.7298
   625.22         22.8042
   625.36         22.8796
   625.50         22.9524
   625.64         23.0182
   625.78         23.0702
   625.92         23.1035
   626.06         23.1206
   626.20         23.1305
   626.34         23.1416
   626.48         23.1551
   626.62         23.1649
   626.76         23.1626
   626.90         23.1416
   627.04         23.0982
   627.18         23.0315
   627.32         22.9433
   627.46         22.8394
   627.60         22.7289
   627.74         22.6237
   627.88         22.5382
   628.02         22.4887
   628.16         22.4874
   628.30         22.5386
   628.44         22.6391
   628.58         22.7807
   628.72         22.9493
   628.86         23.1254
   629.00         23.2880
   629.14         23.4202
   629.28         23.5129
   629.42         23.5654
   629.56         23.5832
   629.70         23.5747
   629.84         23.5505
   629.98         23.5212
   630.12         23.4949
   630.26         23.4738
   630.40         23.4546
   630.54         23.4317
   630.68         23.3996
   630.82         23.3548
   630.96         23.2966
   631.10         23.2287
   631.24         23.1581
   631.38         23.0951
   631.52         23.0508
   631.66         23.0354
   631.80         23.0556
   631.94         23.1113
   632.08         23.1952
   632.22         23.2952
   632.36         23.3975
   632.50         23.4894
   632.64         23.5612
   632.78         23.6062
   632.92         23.6217
   633.06         23.6098
   633.20         23.5765
   633.34         23.5293
   633.48         23.4764
   633.62         23.4269
   633.76         23.3886
   633.90         23.3659
   634.04         23.3600
   634.18         23.3688
   634.32         23.3884
   634.46         23.4142
   634.60         23.4422
   634.74         23.4685
   634.88         23.4906
   635.02         23.5085
   635.16         23.5235
   635.30         23.5371
   635.44         23.5481
   635.58         23.5525
   635.72         23.5450
   635.86         23.5216
   636.00         23.4824
   636.14         23.4321
   636.28         23.3778
   636.42         23.3253
   636.56         23.2789
   636.70         23.2418
   636.84         23.2158
   636.98         23.2006
   637.12         23.1955
   637.26         23.1988
   637.40         23.2076
   637.54         23.2181
   637.68         23.2262
   637.82         23.2278
   637.96         23.2187
   638.10         23.1948
   638.24         23.1555
   638.38         23.1054
   638.52         23.0514
   638.66         22.9991
   638.80         22.9517
   638.94         22.9112
   639.08         22.8799
   639.22         22.8599
   639.36         22.8511
   639.50         22.8515
   639.64         22.8594
   639.78         22.8732
   639.92         22.8910
   640.06         22.9102
   640.20         22.9270
   640.34         22.9364
   640.48         22.9333
   640.62         22.9146
   640.76         22.8802
   640.90         22.8331
   641.04         22.7786
   641.18         22.7228
   641.32         22.6735
   641.46         22.6394
   641.60         22.6260
   641.74         22.6325
   641.88         22.6515
   642.02         22.6742
   642.16         22.6959
   642.30         22.7163
   642.44         22.7339
   642.58         22.7455
   642.72         22.7486
   642.86         22.7444
   643.00         22.7378
   643.14         22.7365
   643.28         22.7480
   643.42         22.7767
   643.56         22.8228
   643.70         22.8831
   643.84         22.9515
   643.98         23.0196
   644.12         23.0764
   644.26         23.1086
   644.40         23.1058
   644.54         23.0668
   644.68         22.9994
   644.82         22.9139
   644.96         22.8172
   645.10         22.7147
   645.24         22.6148
   645.38         22.5299
   645.52         22.4709
   645.66         22.4437
   645.80         22.4487
   645.94         22.4824
   646.08         22.5396
   646.22         22.6144
   646.36         22.7012
   646.50         22.7943
   646.64         22.8869
   646.78         22.9707
   646.92         23.0393
   647.06         23.0915
   647.20         23.1301
   647.34         23.1579
   647.48         23.1762
   647.62         23.1859
   647.76         23.1871
   647.90         23.1759
   648.04         23.1428
   648.18         23.0760
   648.32         22.9653
   648.46         22.8075
   648.60         22.6110
   648.74         22.3944
   648.88         22.1805
   649.02         21.9914
   649.16         21.8480
   649.30         21.7666
   649.44         21.7573
   649.58         21.8243
   649.72         21.9656
   649.86         22.1715
   650.00         22.4239
   650.14         22.6962
   650.28         22.9567
   650.42         23.1756
   650.56         23.3343
   650.70         23.4276
   650.84         23.4635
   650.98         23.4591
   651.12         23.4365
   651.26         23.4158
   651.40         23.4099
   651.54         23.4231
   651.68         23.4553
   651.82         23.5046
   651.96         23.5670
   652.10         23.6366
   652.24         23.7068
   652.38         23.7707
   652.52         23.8215
   652.66         23.8544
   652.80         23.8679
   652.94         23.8649
   653.08         23.8519
   653.22         23.8358
   653.36         23.8196
   653.50         23.8031
   653.64         23.7833
   653.78         23.7572
   653.92         23.7217
   654.06         23.6741
   654.20         23.6116
   654.34         23.5310
   654.48         23.4275
   654.62         23.2922
   654.76         23.1109
   654.90         22.8650
   655.04         22.5390
   655.18         22.1315
   655.32         21.6595
   655.46         21.1531
   655.60         20.6499
   655.74         20.1900
   655.88         19.8115
   656.02         19.5472
   656.16         19.4201
   656.30         19.4419
   656.44         19.6123
   656.58         19.9178
   656.72         20.3326
   656.86         20.8213
   657.00         21.3428
   657.14         21.8550
   657.28         22.3200
   657.42         22.7093
   657.56         23.0103
   657.70         23.2268
   657.84         23.3721
   657.98         23.4580
   658.12         23.4922
   658.26         23.4818
   658.40         23.4364
   658.54         23.3676
   658.68         23.2889
   658.82         23.2142
   658.96         23.1545
   659.10         23.1152
   659.24         23.0963
   659.38         23.0939
   659.52         23.1026
   659.66         23.1183
   659.80         23.1377
   659.94         23.1574
   660.08         23.1736
   660.22         23.1845
   660.36         23.1906
   660.50         23.1947
   660.64         23.2014
   660.78         23.2170
   660.92         23.2471
   661.06         23.2949
   661.20         23.3599
   661.34         23.4382
   661.48         23.5226
   661.62         23.6048
   661.76         23.6782
   661.90         23.7384
   662.04         23.7822
   662.18         23.8076
   662.32         23.8138
   662.46         23.8003
   662.60         23.7680
   662.74         23.7197
   662.88         23.6598
   663.02         23.5925
   663.16         23.5206
   663.30         23.4470
   663.44         23.3758
   663.58         23.3129
   663.72         23.2634
   663.86         23.2301
   664.00         23.2135
   664.14         23.2120
   664.28         23.2235
   664.42         23.2441
   664.56         23.2689
   664.70         23.2932
   664.84         23.3123
   664.98         23.3216
   665.12         23.3174
   665.26         23.2986
   665.40         23.2669
   665.54         23.2260
   665.68         23.1810
   665.82         23.1382
   665.96         23.1038
   666.10         23.0818
   666.24         23.0724
   666.38         23.0709
   666.52         23.0690
   666.66         23.0585
   666.80         23.0347
   666.94         22.9975
   667.08         22.9497
   667.22         22.8962
   667.36         22.8431
   667.50         22.7975
   667.64         22.7674
   667.78         22.7605
   667.92         22.7826
   668.06         22.8348
   668.20         22.9124
   668.34         23.0065
   668.48         23.1068
   668.62         23.2020
   668.76         23.2827
   668.90         23.3417
   669.04         23.3754
   669.18         23.3843
   669.32         23.3737
   669.46         23.3508
   669.60         23.3217
   669.74         23.2902
   669.88         23.2587
   670.02         23.2283
   670.16         23.1985
   670.30         23.1664
   670.44         23.1280
   670.58         23.0798
   670.72         23.0200
   670.86         22.9498
   671.00         22.8730
   671.14         22.7945
   671.28         22.7201
   671.42         22.6560
   671.56         22.6069
   671.70         22.5755
   671.84         22.5622
   671.98         22.5662
   672.12         22.5857
   672.26         22.6174
   672.40         22.6579
   672.54         22.7032
   672.68         22.7492
   672.82         22.7917
   672.96         22.8271
   673.10         22.8542
   673.24         22.8737
   673.38         22.8870
   673.52         22.8943
   673.66         22.8947
   673.80         22.8876
   673.94         22.8743
   674.08         22.8573
   674.22         22.8376
   674.36         22.8157
   674.50         22.7920
   674.64         22.7689
   674.78         22.7498
   674.92         22.7369
   675.06         22.7313
   675.20         22.7324
   675.34         22.7381
   675.48         22.7454
   675.62         22.7519
   675.76         22.7565
   675.90         22.7582
   676.04         22.7565
   676.18         22.7511
   676.32         22.7430
   676.46         22.7343
   676.60         22.7270
   676.74         22.7216
   676.88         22.7178
   677.02         22.7161
   677.16         22.7174
   677.30         22.7219
   677.44         22.7289
   677.58         22.7375
   677.72         22.7482
   677.86         22.7619
   678.00         22.7781
   678.14         22.7955
   678.28         22.8125
   678.42         22.8264
   678.56         22.8352
   678.70         22.8391
   678.84         22.8395
   678.98         22.8374
   679.12         22.8332
   679.26         22.8278
   679.40         22.8223
   679.54         22.8176
   679.68         22.8147
   679.82         22.8139
   679.96         22.8157
   680.10         22.8213
   680.24         22.8313
   680.38         22.8446
   680.52         22.8575
   680.66         22.8663
   680.80         22.8687
   680.94         22.8642
   681.08         22.8546
   681.22         22.8423
   681.36         22.8279
   681.50         22.8094
   681.64         22.7836
   681.78         22.7494
   681.92         22.7078
   682.06         22.6602
   682.20         22.6083
   682.34         22.5548
   682.48         22.5031
   682.62         22.4558
   682.76         22.4140
   682.90         22.3774
   683.04         22.3452
   683.18         22.3164
   683.32         22.2904
   683.46         22.2662
   683.60         22.2427
   683.74         22.2190
   683.88         22.1947
   684.02         22.1700
   684.16         22.1451
   684.30         22.1200
   684.44         22.0945
   684.58         22.0685
   684.72         22.0415
   684.86         22.0141
   685.00         21.9870
   685.14         21.9603
   685.28         21.9324
   685.42         21.8980
   685.56         21.8446
   685.70         21.7542
   685.84         21.6076
   685.98         21.3905
   686.12         21.0970
   686.26         20.7310
   686.40         20.3059
   686.54         19.8433
   686.68         19.3705
   686.82         18.9198
   686.96         18.5267
   687.10         18.2258
   687.24         18.0431
   687.38         17.9898
   687.52         18.0619
   687.66         18.2422
   687.80         18.5023
   687.94         18.8062
   688.08         19.1155
   688.22         19.3960
   688.36         19.6248
   688.50         19.7924
   688.64         19.9014
   688.78         19.9610
   688.92         19.9837
   689.06         19.9841
   689.20         19.9778
   689.34         19.9790
   689.48         19.9993
   689.62         20.0452
   689.76         20.1159
   689.90         20.2060
   690.04         20.3079
   690.18         20.4149
   690.32         20.5210
   690.46         20.6220
   690.60         20.7162
   690.74         20.8026
   690.88         20.8815
   691.02         20.9535
   691.16         21.0195
   691.30         21.0806
   691.44         21.1381
   691.58         21.1944
   691.72         21.2513
   691.86         21.3094
   692.00         21.3682
   692.14         21.4265
   692.28         21.4827
   692.42         21.5351
   692.56         21.5831
   692.70         21.6265
   692.84         21.6652
   692.98         21.6995
   693.12         21.7297
   693.26         21.7547
   693.40         21.7735
   693.54         21.7862
   693.68         21.7929
   693.82         21.7940
   693.96         21.7917
   694.10         21.7899
   694.24         21.7911
   694.38         21.7959
   694.52         21.8039
   694.66         21.8149
   694.80         21.8289
   694.94         21.8471
   695.08         21.8693
   695.22         21.8942
   695.36         21.9197
   695.50         21.9444
   695.64         21.9680
   695.78         21.9919
   695.92         22.0188
   696.06         22.0507
   696.20         22.0867
   696.34         22.1225
   696.48         22.1521
   696.62         22.1695
   696.76         22.1704
   696.90         22.1528
   697.04         22.1186
   697.18         22.0729
   697.32         22.0228
   697.46         21.9764
   697.60         21.9397
   697.74         21.9162
   697.88         21.9081
   698.02         21.9158
   698.16         21.9389
   698.30         21.9752
   698.44         22.0197
   698.58         22.0642
   698.72         22.0981
   698.86         22.1125
   699.00         22.1036
   699.14         22.0711
   699.28         22.0179
   699.42         21.9497
   699.56         21.8736
   699.70         21.7966
   699.84         21.7247
   699.98         21.6633
   700.12         21.6172
   700.26         21.5885
   700.40         21.5767
   700.54         21.5803
   700.68         21.5974
   700.82         21.6255
   700.96         21.6593
   701.10         21.6918
   701.24         21.7168
   701.38         21.7322
   701.52         21.7386
   701.66         21.7370
   701.80         21.7282
   701.94         21.7136
   702.08         21.6957
   702.22         21.6769
   702.36         21.6592
   702.50         21.6441
   702.64         21.6329
   702.78         21.6264
   702.92         21.6254
   703.06         21.6306
   703.20         21.6433
   703.34         21.6647
   703.48         21.6948
   703.62         21.7329
   703.76         21.7783
   703.90         21.8298
   704.04         21.8840
   704.18         21.9366
   704.32         21.9837
   704.46         22.0220
   704.60         22.0481
   704.74         22.0597
   704.88         22.0562
   705.02         22.0383
   705.16         22.0063
   705.30         21.9603
   705.44         21.9007
   705.58         21.8286
   705.72         21.7470
   705.86         21.6620
   706.00         21.5816
   706.14         21.5131
   706.28         21.4608
   706.42         21.4274
   706.56         21.4147
   706.70         21.4231
   706.84         21.4517
   706.98         21.4972
   707.12         21.5539
   707.26         21.6150
   707.40         21.6743
   707.54         21.7263
   707.68         21.7661
   707.82         21.7906
   707.96         21.7991
   708.10         21.7950
   708.24         21.7840
   708.38         21.7719
   708.52         21.7636
   708.66         21.7616
   708.80         21.7671
   708.94         21.7804
   709.08         21.8024
   709.22         21.8334
   709.36         21.8722
   709.50         21.9154
   709.64         21.9575
   709.78         21.9926
   709.92         22.0151
   710.06         22.0210
   710.20         22.0080
   710.34         21.9756
   710.48         21.9253
   710.62         21.8603
   710.76         21.7842
   710.90         21.7012
   711.04         21.6166
   711.18         21.5369
   711.32         21.4693
   711.46         21.4197
   711.60         21.3917
   711.74         21.3861
   711.88         21.4019
   712.02         21.4363
   712.16         21.4862
   712.30         21.5488
   712.44         21.6226
   712.58         21.7056
   712.72         21.7945
   712.86         21.8841
   713.00         21.9685
   713.14         22.0409
   713.28         22.0937
   713.42         22.1196
   713.56         22.1157
   713.70         22.0826
   713.84         22.0244
   713.98         21.9473
   714.12         21.8591
   714.26         21.7685
   714.40         21.6849
   714.54         21.6184
   714.68         21.5769
   714.82         21.5638
   714.96         21.5770
   715.10         21.6091
   715.24         21.6497
   715.38         21.6883
   715.52         21.7165
   715.66         21.7290
   715.80         21.7225
   715.94         21.6958
   716.08         21.6508
   716.22         21.5921
   716.36         21.5250
   716.50         21.4532
   716.64         21.3786
   716.78         21.3018
   716.92         21.2227
   717.06         21.1414
   717.20         21.0551
   717.34         20.9571
   717.48         20.8416
   717.62         20.7084
   717.76         20.5637
   717.90         20.4174
   718.04         20.2799
   718.18         20.1606
   718.32         20.0675
   718.46         20.0069
   718.60         19.9830
   718.74         19.9949
   718.88         20.0371
   719.02         20.1020
   719.16         20.1810
   719.30         20.2638
   719.44         20.3389
   719.58         20.3984
   719.72         20.4403
   719.86         20.4672
   720.00         20.4857
   720.14         20.5060
   720.28         20.5377
   720.42         20.5861
   720.56         20.6525
   720.70         20.7366
   720.84         20.8352
   720.98         20.9405
   721.12         21.0406
   721.26         21.1225
   721.40         21.1767
   721.54         21.2002
   721.68         21.1971
   721.82         21.1743
   721.96         21.1381
   722.10         21.0947
   722.24         21.0511
   722.38         21.0128
   722.52         20.9833
   722.66         20.9631
   722.80         20.9512
   722.94         20.9454
   723.08         20.9424
   723.22         20.9390
   723.36         20.9338
   723.50         20.9268
   723.64         20.9190
   723.78         20.9134
   723.92         20.9137
   724.06         20.9220
   724.20         20.9381
   724.34         20.9610
   724.48         20.9893
   724.62         21.0203
   724.76         21.0527
   724.90         21.0871
   725.04         21.1235
   725.18         21.1590
   725.32         21.1895
   725.46         21.2115
   725.60         21.2244
   725.74         21.2295
   725.88         21.2295
   726.02         21.2262
   726.16         21.2173
   726.30         21.1986
   726.44         21.1676
   726.58         21.1241
   726.72         21.0703
   726.86         21.0099
   727.00         20.9471
   727.14         20.8856
   727.28         20.8272
   727.42         20.7716
   727.56         20.7157
   727.70         20.6554
   727.84         20.5889
   727.98         20.5174
   728.12         20.4433
   728.26         20.3687
   728.40         20.2960
   728.54         20.2289
   728.68         20.1713
   728.82         20.1273
   728.96         20.1002
   729.10         20.0909
   729.24         20.0979
   729.38         20.1177
   729.52         20.1451
   729.66         20.1733
   729.80         20.1952
   729.94         20.2059
   730.08         20.2042
   730.22         20.1935
   730.36         20.1807
   730.50         20.1735
   730.64         20.1763
   730.78         20.1895
   730.92         20.2113
   731.06         20.2392
   731.20         20.2703
   731.34         20.3006
   731.48         20.3251
   731.62         20.3402
   731.76         20.3440
   731.90         20.3367
   732.04         20.3210
   732.18         20.3018
   732.32         20.2859
   732.46         20.2817
   732.60         20.2958
   732.74         20.3293
   732.88         20.3780
   733.02         20.4354
   733.16         20.4948
   733.30         20.5505
   733.44         20.5986
   733.58         20.6373
   733.72         20.6653
   733.86         20.6800
   734.00         20.6774
   734.14         20.6552
   734.28         20.6142
   734.42         20.5578
   734.56         20.4912
   734.70         20.4195
   734.84         20.3477
   734.98         20.2802
   735.12         20.2194
   735.26         20.1666
   735.40         20.1221
   735.54         20.0874
   735.68         20.0639
   735.82         20.0507
   735.96         20.0457
   736.10         20.0462
   736.24         20.0496
   736.38         20.0531
   736.52         20.0557
   736.66         20.0584
   736.80         20.0635
   736.94         20.0726
   737.08         20.0844
   737.22         20.0951
   737.36         20.0994
   737.50         20.0911
   737.64         20.0657
   737.78         20.0219
   737.92         19.9617
   738.06         19.8882
   738.20         19.8054
   738.34         19.7192
   738.48         19.6372
   738.62         19.5664
   738.76         19.5115
   738.90         19.4756
   739.04         19.4606
   739.18         19.4659
   739.32         19.4866
   739.46         19.5146
   739.60         19.5404
   739.74         19.5549
   739.88         19.5510
   740.02         19.5254
   740.16         19.4801
   740.30         19.4210
   740.44         19.3542
   740.58         19.2850
   740.72         19.2184
   740.86         19.1595
   741.00         19.1116
   741.14         19.0748
   741.28         19.0479
   741.42         19.0311
   741.56         19.0263
   741.70         19.0354
   741.84         19.0577
   741.98         19.0899
   742.12         19.1274
   742.26         19.1652
   742.40         19.1994
   742.54         19.2278
   742.68         19.2490
   742.82         19.2608
   742.96         19.2608
   743.10         19.2490
   743.24         19.2278
   743.38         19.1994
   743.52         19.1652
   743.66         19.1274
   743.80         19.0899
   743.94         19.0577
   744.08         19.0354
   744.22         19.0263
