# File BD+51710
# Wavelength [nm]    Normalized Amplitude
   349.70         99.2236
   349.84         98.7078
   349.98         98.1262
   350.12         97.5213
   350.26         96.9372
   350.40         96.4089
   350.54         95.9533
   350.68         95.5759
   350.82         95.2870
   350.96         95.1016
   351.10         95.0368
   351.24         95.1016
   351.38         95.2870
   351.52         95.5759
   351.66         95.9533
   351.80         96.4089
   351.94         96.9372
   352.08         97.5213
   352.22         98.1262
   352.36         98.7078
   352.50         99.2236
   352.64         99.6261
   352.78         99.8738
   352.92         99.9565
   353.06         99.8961
   353.20         99.7347
   353.34         99.5278
   353.48         99.3418
   353.62         99.2421
   353.76         99.2671
   353.90         99.4152
   354.04         99.6620
   354.18         99.9714
   354.32         100.2889
   354.46         100.5498
   354.60         100.6957
   354.74         100.6735
   354.88         100.4459
   355.02         100.0163
   355.16         99.4357
   355.30         98.7825
   355.44         98.1497
   355.58         97.6351
   355.72         97.3100
   355.86         97.1980
   356.00         97.2762
   356.14         97.4798
   356.28         97.7097
   356.42         97.8521
   356.56         97.8096
   356.70         97.5269
   356.84         96.9911
   356.98         96.2238
   357.12         95.2827
   357.26         94.2458
   357.40         93.1844
   357.54         92.1574
   357.68         91.2082
   357.82         90.3448
   357.96         89.5402
   358.10         88.7665
   358.24         88.0139
   358.38         87.2820
   358.52         86.5745
   358.66         85.9068
   358.80         85.3138
   358.94         84.8527
   359.08         84.5860
   359.22         84.5582
   359.36         84.7899
   359.50         85.2750
   359.64         85.9736
   359.78         86.8221
   359.92         87.7466
   360.06         88.6734
   360.20         89.5416
   360.34         90.3075
   360.48         90.9502
   360.62         91.4734
   360.76         91.8925
   360.90         92.2173
   361.04         92.4451
   361.18         92.5690
   361.32         92.5955
   361.46         92.5513
   361.60         92.4764
   361.74         92.4140
   361.88         92.3970
   362.02         92.4298
   362.16         92.4864
   362.30         92.5302
   362.44         92.5326
   362.58         92.4607
   362.72         92.2674
   362.86         91.9156
   363.00         91.4014
   363.14         90.7510
   363.28         90.0084
   363.42         89.2259
   363.56         88.4614
   363.70         87.7775
   363.84         87.2255
   363.98         86.8368
   364.12         86.6320
   364.26         86.6192
   364.40         86.7838
   364.54         87.0886
   364.68         87.4850
   364.82         87.9422
   364.96         88.4485
   365.10         88.9777
   365.24         89.4891
   365.38         89.9509
   365.52         90.3489
   365.66         90.6801
   365.80         90.9639
   365.94         91.2304
   366.08         91.4955
   366.22         91.7595
   366.36         92.0026
   366.50         92.1849
   366.64         92.2793
   366.78         92.3005
   366.92         92.2721
   367.06         92.1878
   367.20         92.0157
   367.34         91.7267
   367.48         91.3177
   367.62         90.8095
   367.76         90.2429
   367.90         89.6820
   368.04         89.1852
   368.18         88.7908
   368.32         88.5372
   368.46         88.4662
   368.60         88.5870
   368.74         88.8728
   368.88         89.2971
   369.02         89.8542
   369.16         90.5540
   369.30         91.3940
   369.44         92.3350
   369.58         93.2938
   369.72         94.1821
   369.86         94.9571
   370.00         95.6142
   370.14         96.1467
   370.28         96.5406
   370.42         96.7921
   370.56         96.9224
   370.70         96.9858
   370.84         97.0613
   370.98         97.2213
   371.12         97.4938
   371.26         97.8478
   371.40         98.2234
   371.54         98.5761
   371.68         98.8889
   371.82         99.1541
   371.96         99.3591
   372.10         99.4828
   372.24         99.4950
   372.38         99.3591
   372.52         99.0411
   372.66         98.5387
   372.80         97.9175
   372.94         97.3117
   373.08         96.8831
   373.22         96.7732
   373.36         97.0652
   373.50         97.7646
   373.64         98.8134
   373.78         100.1051
   373.92         101.4934
   374.06         102.8142
   374.20         103.9167
   374.34         104.7016
   374.48         105.1294
   374.62         105.2042
   374.76         104.9786
   374.90         104.5596
   375.04         104.1013
   375.18         103.7848
   375.32         103.7809
   375.46         104.2043
   375.60         105.0679
   375.74         106.2721
   375.88         107.6195
   376.02         108.8527
   376.16         109.7257
   376.30         110.0739
   376.44         109.8520
   376.58         109.1440
   376.72         108.1522
   376.86         107.1572
   377.00         106.4440
   377.14         106.2202
   377.28         106.5833
   377.42         107.5305
   377.56         108.9737
   377.70         110.7738
   377.84         112.7748
   377.98         114.8119
   378.12         116.7051
   378.26         118.2642
   378.40         119.3129
   378.54         119.7067
   378.68         119.3660
   378.82         118.3074
   378.96         116.6431
   379.10         114.5539
   379.24         112.2517
   379.38         109.9515
   379.52         107.8508
   379.66         106.1201
   379.80         104.9077
   379.94         104.3423
   380.08         104.5167
   380.22         105.4642
   380.36         107.1428
   380.50         109.4241
   380.64         112.0931
   380.78         114.8715
   380.92         117.4725
   381.06         119.6528
   381.20         121.2537
   381.34         122.2292
   381.48         122.6259
   381.62         122.5327
   381.76         122.0475
   381.90         121.2562
   382.04         120.2087
   382.18         118.9149
   382.32         117.3599
   382.46         115.5228
   382.60         113.4028
   382.74         111.0421
   382.88         108.5363
   383.02         106.0357
   383.16         103.7324
   383.30         101.8268
   383.44         100.4992
   383.58         99.8980
   383.72         100.1164
   383.86         101.1675
   384.00         102.9732
   384.14         105.3754
   384.28         108.1642
   384.42         111.1016
   384.56         113.9335
   384.70         116.4229
   384.84         118.4053
   384.98         119.8184
   385.12         120.6945
   385.26         121.1377
   385.40         121.2871
   385.54         121.2685
   385.68         121.1615
   385.82         121.0002
   385.96         120.7898
   386.10         120.5287
   386.24         120.2222
   386.38         119.8773
   386.52         119.4962
   386.66         119.0725
   386.80         118.5877
   386.94         118.0169
   387.08         117.3411
   387.22         116.5587
   387.36         115.6754
   387.50         114.6728
   387.64         113.4943
   387.78         112.0671
   387.92         110.3438
   388.06         108.3355
   388.20         106.1207
   388.34         103.8408
   388.48         101.6878
   388.62         99.8731
   388.76         98.5874
   388.90         97.9694
   389.04         98.0852
   389.18         98.9246
   389.32         100.4082
   389.46         102.3947
   389.60         104.6996
   389.74         107.1263
   389.88         109.4865
   390.02         111.6113
   390.16         113.3652
   390.30         114.6785
   390.44         115.5652
   390.58         116.0971
   390.72         116.3610
   390.86         116.4234
   391.00         116.3242
   391.14         116.0895
   391.28         115.7313
   391.42         115.2403
   391.56         114.5920
   391.70         113.7637
   391.84         112.7584
   391.98         111.6032
   392.12         110.3288
   392.26         108.9664
   392.40         107.5609
   392.54         106.1718
   392.68         104.8642
   392.82         103.7060
   392.96         102.7594
   393.10         102.0683
   393.24         101.6594
   393.38         101.5526
   393.52         101.7584
   393.66         102.2715
   393.80         103.0570
   393.94         104.0343
   394.08         105.0941
   394.22         106.1349
   394.36         107.0820
   394.50         107.8844
   394.64         108.4996
   394.78         108.8952
   394.92         109.0627
   395.06         109.0195
   395.20         108.7911
   395.34         108.3880
   395.48         107.7907
   395.62         106.9459
   395.76         105.7839
   395.90         104.2475
   396.04         102.3183
   396.18         100.0389
   396.32         97.5194
   396.46         94.9223
   396.60         92.4412
   396.74         90.2775
   396.88         88.6142
   397.02         87.5905
   397.16         87.2871
   397.30         87.7191
   397.44         88.8318
   397.58         90.5037
   397.72         92.5628
   397.86         94.8143
   398.00         97.0614
   398.14         99.1208
   398.28         100.8458
   398.42         102.1517
   398.56         103.0356
   398.70         103.5637
   398.84         103.8219
   398.98         103.8819
   399.12         103.8017
   399.26         103.6311
   399.40         103.4088
   399.54         103.1646
   399.68         102.9224
   399.82         102.6925
   399.96         102.4738
   400.10         102.2647
   400.24         102.0667
   400.38         101.8859
   400.52         101.7346
   400.66         101.6240
   400.80         101.5538
   400.94         101.5117
   401.08         101.4792
   401.22         101.4389
   401.36         101.3616
   401.50         101.2001
   401.64         100.9111
   401.78         100.4733
   401.92         99.8876
   402.06         99.1777
   402.20         98.3866
   402.34         97.5684
   402.48         96.7834
   402.62         96.0968
   402.76         95.5680
   402.90         95.2418
   403.04         95.1481
   403.18         95.2928
   403.32         95.6504
   403.46         96.1639
   403.60         96.7549
   403.74         97.3454
   403.88         97.8740
   404.02         98.2935
   404.16         98.5736
   404.30         98.7106
   404.44         98.7246
   404.58         98.6539
   404.72         98.5413
   404.86         98.4161
   405.00         98.3004
   405.14         98.2185
   405.28         98.1948
   405.42         98.2492
   405.56         98.3960
   405.70         98.6350
   405.84         98.9428
   405.98         99.2820
   406.12         99.6126
   406.26         99.8985
   406.40         100.1128
   406.54         100.2370
   406.68         100.2571
   406.82         100.1681
   406.96         99.9825
   407.10         99.7261
   407.24         99.4251
   407.38         99.0966
   407.52         98.7535
   407.66         98.4165
   407.80         98.1116
   407.94         97.8557
   408.08         97.6459
   408.22         97.4637
   408.36         97.2805
   408.50         97.0557
   408.64         96.7406
   408.78         96.2780
   408.92         95.6032
   409.06         94.6541
   409.20         93.3889
   409.34         91.8082
   409.48         89.9652
   409.62         87.9609
   409.76         85.9281
   409.90         84.0137
   410.04         82.3646
   410.18         81.1087
   410.32         80.3399
   410.46         80.1113
   410.60         80.4277
   410.74         81.2420
   410.88         82.4640
   411.02         83.9694
   411.16         85.6113
   411.30         87.2414
   411.44         88.7318
   411.58         89.9928
   411.72         90.9812
   411.86         91.6974
   412.00         92.1697
   412.14         92.4354
   412.28         92.5303
   412.42         92.4867
   412.56         92.3342
   412.70         92.0977
   412.84         91.7945
   412.98         91.4363
   413.12         91.0319
   413.26         90.5822
   413.40         90.0798
   413.54         89.5191
   413.68         88.9128
   413.82         88.2959
   413.96         87.7171
   414.10         87.2289
   414.24         86.8775
   414.38         86.6992
   414.52         86.7129
   414.66         86.9174
   414.80         87.2959
   414.94         87.8166
   415.08         88.4360
   415.22         89.1049
   415.36         89.7651
   415.50         90.3538
   415.64         90.8158
   415.78         91.1115
   415.92         91.2194
   416.06         91.1402
   416.20         90.9020
   416.34         90.5553
   416.48         90.1569
   416.62         89.7586
   416.76         89.4023
   416.90         89.1152
   417.04         88.9040
   417.18         88.7536
   417.32         88.6389
   417.46         88.5428
   417.60         88.4589
   417.74         88.3830
   417.88         88.3083
   418.02         88.2230
   418.16         88.1184
   418.30         87.9957
   418.44         87.8658
   418.58         87.7455
   418.72         87.6515
   418.86         87.5953
   419.00         87.5790
   419.14         87.5966
   419.28         87.6395
   419.42         87.6972
   419.56         87.7551
   419.70         87.7982
   419.84         87.8216
   419.98         87.8364
   420.12         87.8583
   420.26         87.8915
   420.40         87.9325
   420.54         87.9767
   420.68         88.0174
   420.82         88.0478
   420.96         88.0672
   421.10         88.0809
   421.24         88.0954
   421.38         88.1158
   421.52         88.1482
   421.66         88.1974
   421.80         88.2598
   421.94         88.3254
   422.08         88.3805
   422.22         88.4084
   422.36         88.3967
   422.50         88.3438
   422.64         88.2512
   422.78         88.1172
   422.92         87.9496
   423.06         87.7671
   423.20         87.5851
   423.34         87.4106
   423.48         87.2528
   423.62         87.1247
   423.76         87.0372
   423.90         86.9927
   424.04         86.9832
   424.18         86.9952
   424.32         87.0118
   424.46         87.0195
   424.60         87.0104
   424.74         86.9751
   424.88         86.9058
   425.02         86.8015
   425.16         86.6623
   425.30         86.4824
   425.44         86.2562
   425.58         85.9818
   425.72         85.6542
   425.86         85.2675
   426.00         84.8276
   426.14         84.3594
   426.28         83.8997
   426.42         83.4847
   426.56         83.1425
   426.70         82.8932
   426.84         82.7469
   426.98         82.7012
   427.12         82.7420
   427.26         82.8464
   427.40         82.9893
   427.54         83.1523
   427.68         83.3211
   427.82         83.4836
   427.96         83.6290
   428.10         83.7460
   428.24         83.8267
   428.38         83.8712
   428.52         83.8907
   428.66         83.9052
   428.80         83.9308
   428.94         83.9677
   429.08         84.0004
   429.22         84.0083
   429.36         83.9773
   429.50         83.9045
   429.64         83.7968
   429.78         83.6691
   429.92         83.5421
   430.06         83.4376
   430.20         83.3703
   430.34         83.3440
   430.48         83.3539
   430.62         83.3869
   430.76         83.4291
   430.90         83.4686
   431.04         83.4899
   431.18         83.4765
   431.32         83.4110
   431.46         83.2735
   431.60         83.0520
   431.74         82.7485
   431.88         82.3763
   432.02         81.9519
   432.16         81.4903
   432.30         81.0019
   432.44         80.4916
   432.58         79.9555
   432.72         79.3724
   432.86         78.6984
   433.00         77.8820
   433.14         76.8902
   433.28         75.7269
   433.42         74.4331
   433.56         73.0764
   433.70         71.7468
   433.84         70.5498
   433.98         69.5889
   434.12         68.9515
   434.26         68.6969
   434.40         68.8474
   434.54         69.3874
   434.68         70.2612
   434.82         71.3805
   434.96         72.6382
   435.10         73.9200
   435.24         75.1174
   435.38         76.1430
   435.52         76.9462
   435.66         77.5214
   435.80         77.9030
   435.94         78.1415
   436.08         78.2835
   436.22         78.3659
   436.36         78.4169
   436.50         78.4573
   436.64         78.5035
   436.78         78.5680
   436.92         78.6558
   437.06         78.7645
   437.20         78.8772
   437.34         78.9631
   437.48         78.9907
   437.62         78.9304
   437.76         78.7572
   437.90         78.4617
   438.04         78.0559
   438.18         77.5705
   438.32         77.0445
   438.46         76.5213
   438.60         76.0474
   438.74         75.6649
   438.88         75.3988
   439.02         75.2526
   439.16         75.2132
   439.30         75.2583
   439.44         75.3612
   439.58         75.4919
   439.72         75.6180
   439.86         75.7115
   440.00         75.7565
   440.14         75.7455
   440.28         75.6794
   440.42         75.5721
   440.56         75.4439
   440.70         75.3078
   440.84         75.1650
   440.98         75.0090
   441.12         74.8328
   441.26         74.6292
   441.40         74.3877
   441.54         74.1004
   441.68         73.7714
   441.82         73.4167
   441.96         73.0552
   442.10         72.6988
   442.24         72.3463
   442.38         71.9890
   442.52         71.6243
   442.66         71.2612
   442.80         70.9173
   442.94         70.6123
   443.08         70.3653
   443.22         70.1953
   443.36         70.1201
   443.50         70.1535
   443.64         70.2978
   443.78         70.5384
   443.92         70.8494
   444.06         71.2028
   444.20         71.5728
   444.34         71.9383
   444.48         72.2805
   444.62         72.5816
   444.76         72.8308
   444.90         73.0278
   445.04         73.1808
   445.18         73.3016
   445.32         73.3991
   445.46         73.4717
   445.60         73.5066
   445.74         73.4855
   445.88         73.3853
   446.02         73.1749
   446.16         72.8261
   446.30         72.3310
   446.44         71.7107
   446.58         71.0096
   446.72         70.2794
   446.86         69.5655
   447.00         68.9040
   447.14         68.3248
   447.28         67.8608
   447.42         67.5490
   447.56         67.4201
   447.70         67.4873
   447.84         67.7404
   447.98         68.1495
   448.12         68.6707
   448.26         69.2540
   448.40         69.8568
   448.54         70.4531
   448.68         71.0337
   448.82         71.5988
   448.96         72.1487
   449.10         72.6734
   449.24         73.1501
   449.38         73.5493
   449.52         73.8450
   449.66         74.0270
   449.80         74.1041
   449.94         74.0946
   450.08         74.0116
   450.22         73.8610
   450.36         73.6525
   450.50         73.4075
   450.64         73.1606
   450.78         72.9486
   450.92         72.8015
   451.06         72.7390
   451.20         72.7667
   451.34         72.8704
   451.48         73.0231
   451.62         73.1950
   451.76         73.3597
   451.90         73.5005
   452.04         73.6105
   452.18         73.6880
   452.32         73.7399
   452.46         73.7783
   452.60         73.8115
   452.74         73.8421
   452.88         73.8707
   453.02         73.9004
   453.16         73.9363
   453.30         73.9789
   453.44         74.0175
   453.58         74.0329
   453.72         74.0042
   453.86         73.9106
   454.00         73.7339
   454.14         73.4660
   454.28         73.1116
   454.42         72.6899
   454.56         72.2274
   454.70         71.7480
   454.84         71.2723
   454.98         70.8227
   455.12         70.4172
   455.26         70.0674
   455.40         69.7837
   455.54         69.5780
   455.68         69.4593
   455.82         69.4279
   455.96         69.4717
   456.10         69.5672
   456.24         69.6839
   456.38         69.7884
   456.52         69.8515
   456.66         69.8564
   456.80         69.8029
   456.94         69.7044
   457.08         69.5788
   457.22         69.4437
   457.36         69.3110
   457.50         69.1836
   457.64         69.0575
   457.78         68.9278
   457.92         68.7940
   458.06         68.6590
   458.20         68.5294
   458.34         68.4140
   458.48         68.3198
   458.62         68.2501
   458.76         68.2033
   458.90         68.1720
   459.04         68.1495
   459.18         68.1329
   459.32         68.1219
   459.46         68.1156
   459.60         68.1126
   459.74         68.1114
   459.88         68.1099
   460.02         68.1035
   460.16         68.0893
   460.30         68.0737
   460.44         68.0705
   460.58         68.0915
   460.72         68.1446
   460.86         68.2324
   461.00         68.3461
   461.14         68.4674
   461.28         68.5753
   461.42         68.6526
   461.56         68.6857
   461.70         68.6580
   461.84         68.5532
   461.98         68.3659
   462.12         68.1030
   462.26         67.7785
   462.40         67.4084
   462.54         67.0088
   462.68         66.5998
   462.82         66.2057
   462.96         65.8554
   463.10         65.5804
   463.24         65.4079
   463.38         65.3575
   463.52         65.4353
   463.66         65.6302
   463.80         65.9208
   463.94         66.2801
   464.08         66.6766
   464.22         67.0754
   464.36         67.4437
   464.50         67.7621
   464.64         68.0294
   464.78         68.2549
   464.92         68.4496
   465.06         68.6206
   465.20         68.7700
   465.34         68.8953
   465.48         68.9891
   465.62         69.0407
   465.76         69.0390
   465.90         68.9733
   466.04         68.8382
   466.18         68.6383
   466.32         68.3956
   466.46         68.1461
   466.60         67.9233
   466.74         67.7474
   466.88         67.6307
   467.02         67.5805
   467.16         67.5965
   467.30         67.6680
   467.44         67.7725
   467.58         67.8817
   467.72         67.9710
   467.86         68.0234
   468.00         68.0289
   468.14         67.9829
   468.28         67.8880
   468.42         67.7600
   468.56         67.6215
   468.70         67.4905
   468.84         67.3746
   468.98         67.2689
   469.12         67.1572
   469.26         67.0213
   469.40         66.8522
   469.54         66.6543
   469.68         66.4386
   469.82         66.2222
   469.96         66.0272
   470.10         65.8717
   470.24         65.7654
   470.38         65.7071
   470.52         65.6863
   470.66         65.6921
   470.80         65.7157
   470.94         65.7479
   471.08         65.7803
   471.22         65.7998
   471.36         65.7858
   471.50         65.7211
   471.64         65.6007
   471.78         65.4355
   471.92         65.2454
   472.06         65.0546
   472.20         64.8855
   472.34         64.7512
   472.48         64.6552
   472.62         64.5927
   472.76         64.5532
   472.90         64.5296
   473.04         64.5180
   473.18         64.5133
   473.32         64.5123
   473.46         64.5103
   473.60         64.4999
   473.74         64.4740
   473.88         64.4260
   474.02         64.3500
   474.16         64.2445
   474.30         64.1147
   474.44         63.9698
   474.58         63.8228
   474.72         63.6872
   474.86         63.5709
   475.00         63.4809
   475.14         63.4277
   475.28         63.4188
   475.42         63.4509
   475.56         63.5118
   475.70         63.5842
   475.84         63.6511
   475.98         63.7056
   476.12         63.7450
   476.26         63.7608
   476.40         63.7438
   476.54         63.6934
   476.68         63.6149
   476.82         63.5148
   476.96         63.4025
   477.10         63.2888
   477.24         63.1827
   477.38         63.0889
   477.52         63.0075
   477.66         62.9357
   477.80         62.8676
   477.94         62.7996
   478.08         62.7364
   478.22         62.6841
   478.36         62.6444
   478.50         62.6199
   478.64         62.6133
   478.78         62.6177
   478.92         62.6166
   479.06         62.5974
   479.20         62.5571
   479.34         62.4960
   479.48         62.4112
   479.62         62.3026
   479.76         62.1775
   479.90         62.0446
   480.04         61.9092
   480.18         61.7786
   480.32         61.6635
   480.46         61.5758
   480.60         61.5223
   480.74         61.5003
   480.88         61.4981
   481.02         61.5055
   481.16         61.5224
   481.30         61.5514
   481.44         61.5919
   481.58         61.6408
   481.72         61.6973
   481.86         61.7601
   482.00         61.8206
   482.14         61.8654
   482.28         61.8849
   482.42         61.8730
   482.56         61.8258
   482.70         61.7461
   482.84         61.6435
   482.98         61.5278
   483.12         61.4065
   483.26         61.2828
   483.40         61.1563
   483.54         61.0264
   483.68         60.8900
   483.82         60.7426
   483.96         60.5800
   484.10         60.3944
   484.24         60.1771
   484.38         59.9216
   484.52         59.6226
   484.66         59.2788
   484.80         58.8959
   484.94         58.4785
   485.08         58.0251
   485.22         57.5333
   485.36         57.0089
   485.50         56.4713
   485.64         55.9520
   485.78         55.4900
   485.92         55.1243
   486.06         54.8874
   486.20         54.7998
   486.34         54.8639
   486.48         55.0669
   486.62         55.3820
   486.76         55.7675
   486.90         56.1778
   487.04         56.5711
   487.18         56.9093
   487.32         57.1597
   487.46         57.3002
   487.60         57.3237
   487.74         57.2416
   487.88         57.0858
   488.02         56.9064
   488.16         56.7569
   488.30         56.6786
   488.44         56.6960
   488.58         56.8170
   488.72         57.0352
   488.86         57.3359
   489.00         57.7011
   489.14         58.1111
   489.28         58.5438
   489.42         58.9749
   489.56         59.3793
   489.70         59.7304
   489.84         60.0026
   489.98         60.1779
   490.12         60.2500
   490.26         60.2212
   490.40         60.1012
   490.54         59.9109
   490.68         59.6718
   490.82         59.3939
   490.96         59.0766
   491.10         58.7177
   491.24         58.3198
   491.38         57.8916
   491.52         57.4503
   491.66         57.0199
   491.80         56.6281
   491.94         56.3021
   492.08         56.0660
   492.22         55.9379
   492.36         55.9256
   492.50         56.0241
   492.64         56.2203
   492.78         56.4959
   492.92         56.8304
   493.06         57.1995
   493.20         57.5725
   493.34         57.9170
   493.48         58.2139
   493.62         58.4617
   493.76         58.6691
   493.90         58.8514
   494.04         59.0218
   494.18         59.1850
   494.32         59.3345
   494.46         59.4590
   494.60         59.5450
   494.74         59.5816
   494.88         59.5636
   495.02         59.4893
   495.16         59.3648
   495.30         59.2060
   495.44         59.0315
   495.58         58.8566
   495.72         58.6893
   495.86         58.5302
   496.00         58.3764
   496.14         58.2245
   496.28         58.0695
   496.42         57.9076
   496.56         57.7418
   496.70         57.5762
   496.84         57.4114
   496.98         57.2476
   497.12         57.0919
   497.26         56.9574
   497.40         56.8572
   497.54         56.7982
   497.68         56.7806
   497.82         56.8003
   497.96         56.8452
   498.10         56.8987
   498.24         56.9448
   498.38         56.9703
   498.52         56.9666
   498.66         56.9323
   498.80         56.8751
   498.94         56.8036
   499.08         56.7201
   499.22         56.6199
   499.36         56.4902
   499.50         56.3194
   499.64         56.1074
   499.78         55.8638
   499.92         55.5995
   500.06         55.3224
   500.20         55.0403
   500.34         54.7610
   500.48         54.4872
   500.62         54.2191
   500.76         53.9615
   500.90         53.7255
   501.04         53.5237
   501.18         53.3689
   501.32         53.2744
   501.46         53.2491
   501.60         53.2941
   501.74         53.4050
   501.88         53.5714
   502.02         53.7784
   502.16         54.0084
   502.30         54.2422
   502.44         54.4635
   502.58         54.6633
   502.72         54.8329
   502.86         54.9611
   503.00         55.0372
   503.14         55.0599
   503.28         55.0379
   503.42         54.9826
   503.56         54.9044
   503.70         54.8131
   503.84         54.7167
   503.98         54.6182
   504.12         54.5162
   504.26         54.4096
   504.40         54.2940
   504.54         54.1637
   504.68         54.0219
   504.82         53.8816
   504.96         53.7568
   505.10         53.6576
   505.24         53.5863
   505.38         53.5374
   505.52         53.5056
   505.66         53.4911
   505.80         53.4961
   505.94         53.5191
   506.08         53.5571
   506.22         53.6118
   506.36         53.6830
   506.50         53.7634
   506.64         53.8418
   506.78         53.9099
   506.92         53.9615
   507.06         53.9904
   507.20         53.9943
   507.34         53.9774
   507.48         53.9449
   507.62         53.9003
   507.76         53.8490
   507.90         53.8006
   508.04         53.7658
   508.18         53.7522
   508.32         53.7600
   508.46         53.7822
   508.60         53.8076
   508.74         53.8274
   508.88         53.8357
   509.02         53.8253
   509.16         53.7905
   509.30         53.7316
   509.44         53.6522
   509.58         53.5564
   509.72         53.4474
   509.86         53.3288
   510.00         53.2061
   510.14         53.0843
   510.28         52.9677
   510.42         52.8594
   510.56         52.7601
   510.70         52.6676
   510.84         52.5786
   510.98         52.4933
   511.12         52.4171
   511.26         52.3591
   511.40         52.3293
   511.54         52.3319
   511.68         52.3664
   511.82         52.4285
   511.96         52.5127
   512.10         52.6126
   512.24         52.7198
   512.38         52.8228
   512.52         52.9086
   512.66         52.9651
   512.80         52.9812
   512.94         52.9502
   513.08         52.8710
   513.22         52.7513
   513.36         52.6102
   513.50         52.4723
   513.64         52.3591
   513.78         52.2847
   513.92         52.2564
   514.06         52.2743
   514.20         52.3326
   514.34         52.4206
   514.48         52.5260
   514.62         52.6375
   514.76         52.7449
   514.90         52.8369
   515.04         52.9014
   515.18         52.9290
   515.32         52.9162
   515.46         52.8658
   515.60         52.7822
   515.74         52.6677
   515.88         52.5223
   516.02         52.3444
   516.16         52.1305
   516.30         51.8791
   516.44         51.5963
   516.58         51.2957
   516.72         50.9949
   516.86         50.7113
   517.00         50.4615
   517.14         50.2594
   517.28         50.1133
   517.42         50.0249
   517.56         49.9914
   517.70         50.0077
   517.84         50.0656
   517.98         50.1539
   518.12         50.2569
   518.26         50.3590
   518.40         50.4510
   518.54         50.5307
   518.68         50.5979
   518.82         50.6536
   518.96         50.7012
   519.10         50.7432
   519.24         50.7768
   519.38         50.7959
   519.52         50.7947
   519.66         50.7701
   519.80         50.7219
   519.94         50.6516
   520.08         50.5618
   520.22         50.4536
   520.36         50.3276
   520.50         50.1859
   520.64         50.0353
   520.78         49.8858
   520.92         49.7451
   521.06         49.6162
   521.20         49.5011
   521.34         49.4013
   521.48         49.3191
   521.62         49.2560
   521.76         49.2118
   521.90         49.1879
   522.04         49.1870
   522.18         49.2082
   522.32         49.2481
   522.46         49.3015
   522.60         49.3626
   522.74         49.4231
   522.88         49.4726
   523.02         49.5062
   523.16         49.5235
   523.30         49.5234
   523.44         49.5047
   523.58         49.4657
   523.72         49.4081
   523.86         49.3382
   524.00         49.2611
   524.14         49.1799
   524.28         49.0962
   524.42         49.0115
   524.56         48.9272
   524.70         48.8432
   524.84         48.7620
   524.98         48.6895
   525.12         48.6316
   525.26         48.5896
   525.40         48.5606
   525.54         48.5425
   525.68         48.5339
   525.82         48.5314
   525.96         48.5286
   526.10         48.5172
   526.24         48.4906
   526.38         48.4439
   526.52         48.3737
   526.66         48.2798
   526.80         48.1680
   526.94         48.0486
   527.08         47.9318
   527.22         47.8245
   527.36         47.7291
   527.50         47.6447
   527.64         47.5683
   527.78         47.4952
   527.92         47.4218
   528.06         47.3483
   528.20         47.2768
   528.34         47.2101
   528.48         47.1504
   528.62         47.0978
   528.76         47.0513
   528.90         47.0090
   529.04         46.9672
   529.18         46.9239
   529.32         46.8807
   529.46         46.8404
   529.60         46.8044
   529.74         46.7726
   529.88         46.7449
   530.02         46.7241
   530.16         46.7152
   530.30         46.7206
   530.44         46.7378
   530.58         46.7604
   530.72         46.7806
   530.86         46.7903
   531.00         46.7827
   531.14         46.7517
   531.28         46.6941
   531.42         46.6137
   531.56         46.5181
   531.70         46.4140
   531.84         46.3075
   531.98         46.2054
   532.12         46.1130
   532.26         46.0331
   532.40         45.9651
   532.54         45.9068
   532.68         45.8554
   532.82         45.8081
   532.96         45.7618
   533.10         45.7147
   533.24         45.6676
   533.38         45.6234
   533.52         45.5870
   533.66         45.5650
   533.80         45.5618
   533.94         45.5784
   534.08         45.6138
   534.22         45.6633
   534.36         45.7195
   534.50         45.7756
   534.64         45.8238
   534.78         45.8530
   534.92         45.8500
   535.06         45.8049
   535.20         45.7140
   535.34         45.5805
   535.48         45.4160
   535.62         45.2368
   535.76         45.0597
   535.90         44.9006
   536.04         44.7731
   536.18         44.6891
   536.32         44.6535
   536.46         44.6603
   536.60         44.7013
   536.74         44.7722
   536.88         44.8672
   537.02         44.9757
   537.16         45.0829
   537.30         45.1730
   537.44         45.2319
   537.58         45.2523
   537.72         45.2370
   537.86         45.1953
   538.00         45.1404
   538.14         45.0840
   538.28         45.0305
   538.42         44.9774
   538.56         44.9207
   538.70         44.8586
   538.84         44.7913
   538.98         44.7183
   539.12         44.6399
   539.26         44.5600
   539.40         44.4818
   539.54         44.4054
   539.68         44.3303
   539.82         44.2575
   539.96         44.1913
   540.10         44.1378
   540.24         44.1038
   540.38         44.0947
   540.52         44.1096
   540.66         44.1420
   540.80         44.1801
   540.94         44.2108
   541.08         44.2254
   541.22         44.2200
   541.36         44.1938
   541.50         44.1461
   541.64         44.0752
   541.78         43.9810
   541.92         43.8648
   542.06         43.7299
   542.20         43.5831
   542.34         43.4324
   542.48         43.2860
   542.62         43.1514
   542.76         43.0333
   542.90         42.9339
   543.04         42.8509
   543.18         42.7772
   543.32         42.7057
   543.46         42.6310
   543.60         42.5488
   543.74         42.4575
   543.88         42.3572
   544.02         42.2497
   544.16         42.1384
   544.30         42.0267
   544.44         41.9160
   544.58         41.8057
   544.72         41.6971
   544.86         41.5961
   545.00         41.5086
   545.14         41.4374
   545.28         41.3828
   545.42         41.3456
   545.56         41.3279
   545.70         41.3300
   545.84         41.3540
   545.98         41.4053
   546.12         41.4870
   546.26         41.5986
   546.40         41.7339
   546.54         41.8783
   546.68         42.0135
   546.82         42.1234
   546.96         42.1965
   547.10         42.2286
   547.24         42.2242
   547.38         42.1915
   547.52         42.1401
   547.66         42.0773
   547.80         42.0062
   547.94         41.9292
   548.08         41.8491
   548.22         41.7695
   548.36         41.6956
   548.50         41.6350
   548.64         41.5938
   548.78         41.5741
   548.92         41.5749
   549.06         41.5922
   549.20         41.6223
   549.34         41.6616
   549.48         41.7030
   549.62         41.7342
   549.76         41.7412
   549.90         41.7130
   550.04         41.6432
   550.18         41.5309
   550.32         41.3818
   550.46         41.2082
   550.60         41.0281
   550.74         40.8606
   550.88         40.7218
   551.02         40.6213
   551.16         40.5630
   551.30         40.5452
   551.44         40.5605
   551.58         40.5972
   551.72         40.6402
   551.86         40.6738
   552.00         40.6852
   552.14         40.6685
   552.28         40.6257
   552.42         40.5629
   552.56         40.4885
   552.70         40.4098
   552.84         40.3333
   552.98         40.2658
   553.12         40.2118
   553.26         40.1715
   553.40         40.1431
   553.54         40.1250
   553.68         40.1194
   553.82         40.1309
   553.96         40.1605
   554.10         40.2057
   554.24         40.2625
   554.38         40.3253
   554.52         40.3868
   554.66         40.4388
   554.80         40.4734
   554.94         40.4838
   555.08         40.4668
   555.22         40.4241
   555.36         40.3609
   555.50         40.2832
   555.64         40.1988
   555.78         40.1156
   555.92         40.0399
   556.06         39.9757
   556.20         39.9252
   556.34         39.8887
   556.48         39.8625
   556.62         39.8394
   556.76         39.8130
   556.90         39.7795
   557.04         39.7376
   557.18         39.6906
   557.32         39.6473
   557.46         39.6186
   557.60         39.6129
   557.74         39.6320
   557.88         39.6720
   558.02         39.7250
   558.16         39.7835
   558.30         39.8415
   558.44         39.8928
   558.58         39.9326
   558.72         39.9606
   558.86         39.9774
   559.00         39.9795
   559.14         39.9607
   559.28         39.9177
   559.42         39.8530
   559.56         39.7726
   559.70         39.6824
   559.84         39.5878
   559.98         39.4915
   560.12         39.3939
   560.26         39.2945
   560.40         39.1947
   560.54         39.1005
   560.68         39.0181
   560.82         38.9515
   560.96         38.9034
   561.10         38.8747
   561.24         38.8647
   561.38         38.8686
   561.52         38.8752
   561.66         38.8715
   561.80         38.8508
   561.94         38.8121
   562.08         38.7552
   562.22         38.6782
   562.36         38.5811
   562.50         38.4678
   562.64         38.3443
   562.78         38.2176
   562.92         38.0947
   563.06         37.9824
   563.20         37.8873
   563.34         37.8135
   563.48         37.7644
   563.62         37.7394
   563.76         37.7337
   563.90         37.7409
   564.04         37.7551
   564.18         37.7730
   564.32         37.7952
   564.46         37.8240
   564.60         37.8599
   564.74         37.9016
   564.88         37.9449
   565.02         37.9839
   565.16         38.0099
   565.30         38.0133
   565.44         37.9860
   565.58         37.9234
   565.72         37.8259
   565.86         37.6972
   566.00         37.5420
   566.14         37.3659
   566.28         37.1772
   566.42         36.9908
   566.56         36.8231
   566.70         36.6856
   566.84         36.5836
   566.98         36.5165
   567.12         36.4786
   567.26         36.4634
   567.40         36.4645
   567.54         36.4751
   567.68         36.4887
   567.82         36.5000
   567.96         36.5072
   568.10         36.5129
   568.24         36.5217
   568.38         36.5378
   568.52         36.5627
   568.66         36.5961
   568.80         36.6357
   568.94         36.6778
   569.08         36.7174
   569.22         36.7447
   569.36         36.7486
   569.50         36.7220
   569.64         36.6635
   569.78         36.5757
   569.92         36.4645
   570.06         36.3375
   570.20         36.2054
   570.34         36.0824
   570.48         35.9835
   570.62         35.9202
   570.76         35.8969
   570.90         35.9124
   571.04         35.9610
   571.18         36.0323
   571.32         36.1118
   571.46         36.1839
   571.60         36.2352
   571.74         36.2556
   571.88         36.2409
   572.02         36.1944
   572.16         36.1241
   572.30         36.0395
   572.44         35.9499
   572.58         35.8630
   572.72         35.7855
   572.86         35.7226
   573.00         35.6770
   573.14         35.6469
   573.28         35.6283
   573.42         35.6198
   573.56         35.6195
   573.70         35.6216
   573.84         35.6193
   573.98         35.6097
   574.12         35.5934
   574.26         35.5720
   574.40         35.5462
   574.54         35.5158
   574.68         35.4796
   574.82         35.4364
   574.96         35.3882
   575.10         35.3389
   575.24         35.2922
   575.38         35.2501
   575.52         35.2127
   575.66         35.1801
   575.80         35.1507
   575.94         35.1240
   576.08         35.0990
   576.22         35.0705
   576.36         35.0319
   576.50         34.9762
   576.64         34.8939
   576.78         34.7723
   576.92         34.5987
   577.06         34.3690
   577.20         34.0908
   577.34         33.7822
   577.48         33.4682
   577.62         33.1733
   577.76         32.9170
   577.90         32.7123
   578.04         32.5669
   578.18         32.4846
   578.32         32.4647
   578.46         32.5002
   578.60         32.5794
   578.74         32.6887
   578.88         32.8143
   579.02         32.9438
   579.16         33.0679
   579.30         33.1832
   579.44         33.2910
   579.58         33.3970
   579.72         33.5098
   579.86         33.6348
   580.00         33.7713
   580.14         33.9123
   580.28         34.0465
   580.42         34.1620
   580.56         34.2491
   580.70         34.3013
   580.84         34.3156
   580.98         34.2928
   581.12         34.2378
   581.26         34.1602
   581.40         34.0714
   581.54         33.9805
   581.68         33.8936
   581.82         33.8150
   581.96         33.7487
   582.10         33.6967
   582.24         33.6610
   582.38         33.6417
   582.52         33.6344
   582.66         33.6323
   582.80         33.6294
   582.94         33.6220
   583.08         33.6083
   583.22         33.5896
   583.36         33.5705
   583.50         33.5555
   583.64         33.5471
   583.78         33.5461
   583.92         33.5501
   584.06         33.5528
   584.20         33.5461
   584.34         33.5249
   584.48         33.4887
   584.62         33.4394
   584.76         33.3807
   584.90         33.3167
   585.04         33.2516
   585.18         33.1891
   585.32         33.1336
   585.46         33.0906
   585.60         33.0631
   585.74         33.0486
   585.88         33.0404
   586.02         33.0285
   586.16         33.0002
   586.30         32.9406
   586.44         32.8337
   586.58         32.6685
   586.72         32.4447
   586.86         32.1744
   587.00         31.8795
   587.14         31.5862
   587.28         31.3198
   587.42         31.1025
   587.56         30.9459
   587.70         30.8428
   587.84         30.7697
   587.98         30.7052
   588.12         30.6366
   588.26         30.5505
   588.40         30.4291
   588.54         30.2614
   588.68         30.0515
   588.82         29.8171
   588.96         29.5837
   589.10         29.3824
   589.24         29.2481
   589.38         29.2102
   589.52         29.2834
   589.66         29.4653
   589.80         29.7381
   589.94         30.0732
   590.08         30.4350
   590.22         30.7866
   590.36         31.0972
   590.50         31.3512
   590.64         31.5482
   590.78         31.6914
   590.92         31.7824
   591.06         31.8278
   591.20         31.8424
   591.34         31.8437
   591.48         31.8418
   591.62         31.8397
   591.76         31.8385
   591.90         31.8388
   592.04         31.8402
   592.18         31.8402
   592.32         31.8385
   592.46         31.8400
   592.60         31.8522
   592.74         31.8795
   592.88         31.9194
   593.02         31.9636
   593.16         32.0045
   593.30         32.0379
   593.44         32.0632
   593.58         32.0781
   593.72         32.0800
   593.86         32.0676
   594.00         32.0393
   594.14         31.9956
   594.28         31.9398
   594.42         31.8786
   594.56         31.8175
   594.70         31.7578
   594.84         31.6991
   594.98         31.6440
   595.12         31.5956
   595.26         31.5546
   595.40         31.5178
   595.54         31.4796
   595.68         31.4374
   595.82         31.3922
   595.96         31.3437
   596.10         31.2891
   596.24         31.2253
   596.38         31.1529
   596.52         31.0741
   596.66         30.9933
   596.80         30.9166
   596.94         30.8479
   597.08         30.7894
   597.22         30.7410
   597.36         30.7017
   597.50         30.6709
   597.64         30.6464
   597.78         30.6264
   597.92         30.6113
   598.06         30.5999
   598.20         30.5897
   598.34         30.5794
   598.48         30.5685
   598.62         30.5570
   598.76         30.5469
   598.90         30.5399
   599.04         30.5355
   599.18         30.5313
   599.32         30.5236
   599.46         30.5086
   599.60         30.4857
   599.74         30.4576
   599.88         30.4265
   600.02         30.3945
   600.16         30.3642
   600.30         30.3356
   600.44         30.3080
   600.58         30.2809
   600.72         30.2525
   600.86         30.2232
   601.00         30.1953
   601.14         30.1725
   601.28         30.1591
   601.42         30.1551
   601.56         30.1553
   601.70         30.1538
   601.84         30.1479
   601.98         30.1363
   602.12         30.1183
   602.26         30.0953
   602.40         30.0669
   602.54         30.0291
   602.68         29.9795
   602.82         29.9172
   602.96         29.8424
   603.10         29.7608
   603.24         29.6817
   603.38         29.6118
   603.52         29.5536
   603.66         29.5059
   603.80         29.4668
   603.94         29.4346
   604.08         29.4077
   604.22         29.3869
   604.36         29.3756
   604.50         29.3770
   604.64         29.3890
   604.78         29.4072
   604.92         29.4282
   605.06         29.4497
   605.20         29.4698
   605.34         29.4897
   605.48         29.5113
   605.62         29.5358
   605.76         29.5626
   605.90         29.5887
   606.04         29.6105
   606.18         29.6245
   606.32         29.6268
   606.46         29.6152
   606.60         29.5891
   606.74         29.5490
   606.88         29.4966
   607.02         29.4360
   607.16         29.3714
   607.30         29.3060
   607.44         29.2456
   607.58         29.1985
   607.72         29.1723
   607.86         29.1714
   608.00         29.1968
   608.14         29.2460
   608.28         29.3131
   608.42         29.3922
   608.56         29.4784
   608.70         29.5658
   608.84         29.6439
   608.98         29.6986
   609.12         29.7181
   609.26         29.6969
   609.40         29.6346
   609.54         29.5342
   609.68         29.4008
   609.82         29.2411
   609.96         29.0644
   610.10         28.8843
   610.24         28.7155
   610.38         28.5727
   610.52         28.4675
   610.66         28.4077
   610.80         28.3971
   610.94         28.4375
   611.08         28.5247
   611.22         28.6460
   611.36         28.7834
   611.50         28.9183
   611.64         29.0358
   611.78         29.1286
   611.92         29.1933
   612.06         29.2272
   612.20         29.2282
   612.34         29.1957
   612.48         29.1327
   612.62         29.0449
   612.76         28.9396
   612.90         28.8236
   613.04         28.7032
   613.18         28.5842
   613.32         28.4710
   613.46         28.3678
   613.60         28.2795
   613.74         28.2090
   613.88         28.1569
   614.02         28.1232
   614.16         28.1075
   614.30         28.1095
   614.44         28.1286
   614.58         28.1617
   614.72         28.2015
   614.86         28.2385
   615.00         28.2636
   615.14         28.2710
   615.28         28.2573
   615.42         28.2215
   615.56         28.1653
   615.70         28.0938
   615.84         28.0146
   615.98         27.9367
   616.12         27.8692
   616.26         27.8185
   616.40         27.7843
   616.54         27.7599
   616.68         27.7369
   616.82         27.7075
   616.96         27.6653
   617.10         27.6062
   617.24         27.5281
   617.38         27.4320
   617.52         27.3234
   617.66         27.2102
   617.80         27.1013
   617.94         27.0053
   618.08         26.9294
   618.22         26.8778
   618.36         26.8511
   618.50         26.8465
   618.64         26.8592
   618.78         26.8830
   618.92         26.9092
   619.06         26.9307
   619.20         26.9430
   619.34         26.9451
   619.48         26.9385
   619.62         26.9254
   619.76         26.9083
   619.90         26.8892
   620.04         26.8698
   620.18         26.8516
   620.32         26.8349
   620.46         26.8200
   620.60         26.8053
   620.74         26.7867
   620.88         26.7611
   621.02         26.7304
   621.16         26.6984
   621.30         26.6693
   621.44         26.6446
   621.58         26.6230
   621.72         26.6025
   621.86         26.5833
   622.00         26.5684
   622.14         26.5618
   622.28         26.5672
   622.42         26.5876
   622.56         26.6227
   622.70         26.6695
   622.84         26.7255
   622.98         26.7887
   623.12         26.8574
   623.26         26.9273
   623.40         26.9933
   623.54         27.0537
   623.68         27.1073
   623.82         27.1515
   623.96         27.1819
   624.10         27.1927
   624.24         27.1804
   624.38         27.1445
   624.52         27.0860
   624.66         27.0050
   624.80         26.9029
   624.94         26.7838
   625.08         26.6532
   625.22         26.5170
   625.36         26.3830
   625.50         26.2591
   625.64         26.1498
   625.78         26.0559
   625.92         25.9759
   626.06         25.9074
   626.20         25.8482
   626.34         25.7935
   626.48         25.7336
   626.62         25.6556
   626.76         25.5497
   626.90         25.4099
   627.04         25.2312
   627.18         25.0111
   627.32         24.7530
   627.46         24.4674
   627.60         24.1716
   627.74         23.8863
   627.88         23.6335
   628.02         23.4341
   628.16         23.3041
   628.30         23.2526
   628.44         23.2830
   628.58         23.3917
   628.72         23.5679
   628.86         23.7957
   629.00         24.0541
   629.14         24.3186
   629.28         24.5668
   629.42         24.7835
   629.56         24.9596
   629.70         25.0917
   629.84         25.1811
   629.98         25.2328
   630.12         25.2547
   630.26         25.2555
   630.40         25.2424
   630.54         25.2220
   630.68         25.2014
   630.82         25.1866
   630.96         25.1813
   631.10         25.1882
   631.24         25.2080
   631.38         25.2381
   631.52         25.2738
   631.66         25.3098
   631.80         25.3406
   631.94         25.3624
   632.08         25.3725
   632.22         25.3667
   632.36         25.3394
   632.50         25.2867
   632.64         25.2102
   632.78         25.1177
   632.92         25.0200
   633.06         24.9267
   633.20         24.8449
   633.34         24.7784
   633.48         24.7256
   633.62         24.6816
   633.76         24.6423
   633.90         24.6055
   634.04         24.5707
   634.18         24.5386
   634.32         24.5118
   634.46         24.4934
   634.60         24.4867
   634.74         24.4939
   634.88         24.5156
   635.02         24.5508
   635.16         24.5991
   635.30         24.6595
   635.44         24.7304
   635.58         24.8086
   635.72         24.8895
   635.86         24.9659
   636.00         25.0290
   636.14         25.0701
   636.28         25.0839
   636.42         25.0683
   636.56         25.0245
   636.70         24.9548
   636.84         24.8621
   636.98         24.7507
   637.12         24.6266
   637.26         24.4977
   637.40         24.3735
   637.54         24.2648
   637.68         24.1826
   637.82         24.1349
   637.96         24.1250
   638.10         24.1514
   638.24         24.2064
   638.38         24.2764
   638.52         24.3468
   638.66         24.4079
   638.80         24.4550
   638.94         24.4855
   639.08         24.4970
   639.22         24.4883
   639.36         24.4597
   639.50         24.4157
   639.64         24.3655
   639.78         24.3204
   639.92         24.2918
   640.06         24.2870
   640.20         24.3074
   640.34         24.3492
   640.48         24.4070
   640.62         24.4751
   640.76         24.5477
   640.90         24.6196
   641.04         24.6875
   641.18         24.7504
   641.32         24.8070
   641.46         24.8524
   641.60         24.8821
   641.74         24.8950
   641.88         24.8935
   642.02         24.8820
   642.16         24.8668
   642.30         24.8524
   642.44         24.8403
   642.58         24.8312
   642.72         24.8248
   642.86         24.8192
   643.00         24.8120
   643.14         24.8005
   643.28         24.7812
   643.42         24.7492
   643.56         24.6998
   643.70         24.6298
   643.84         24.5389
   643.98         24.4287
   644.12         24.3039
   644.26         24.1728
   644.40         24.0447
   644.54         23.9280
   644.68         23.8308
   644.82         23.7594
   644.96         23.7153
   645.10         23.6961
   645.24         23.6976
   645.38         23.7133
   645.52         23.7354
   645.66         23.7578
   645.80         23.7773
   645.94         23.7920
   646.08         23.7987
   646.22         23.7941
   646.36         23.7775
   646.50         23.7495
   646.64         23.7122
   646.78         23.6692
   646.92         23.6230
   647.06         23.5752
   647.20         23.5271
   647.34         23.4808
   647.48         23.4380
   647.62         23.4000
   647.76         23.3685
   647.90         23.3442
   648.04         23.3263
   648.18         23.3123
   648.32         23.3000
   648.46         23.2889
   648.60         23.2786
   648.74         23.2690
   648.88         23.2628
   649.02         23.2643
   649.16         23.2760
   649.30         23.2981
   649.44         23.3288
   649.58         23.3657
   649.72         23.4073
   649.86         23.4550
   650.00         23.5103
   650.14         23.5710
   650.28         23.6327
   650.42         23.6912
   650.56         23.7427
   650.70         23.7847
   650.84         23.8183
   650.98         23.8472
   651.12         23.8749
   651.26         23.9036
   651.40         23.9345
   651.54         23.9675
   651.68         23.9993
   651.82         24.0248
   651.96         24.0378
   652.10         24.0339
   652.24         24.0128
   652.38         23.9794
   652.52         23.9403
   652.66         23.9010
   652.80         23.8658
   652.94         23.8391
   653.08         23.8248
   653.22         23.8256
   653.36         23.8436
   653.50         23.8792
   653.64         23.9298
   653.78         23.9908
   653.92         24.0564
   654.06         24.1200
   654.20         24.1775
   654.34         24.2323
   654.48         24.2978
   654.62         24.3963
   654.76         24.5554
   654.90         24.8012
   655.04         25.1505
   655.18         25.6065
   655.32         26.1583
   655.46         26.7798
   655.60         27.4310
   655.74         28.0608
   655.88         28.6140
   656.02         29.0378
   656.16         29.2900
   656.30         29.3441
   656.44         29.1914
   656.58         28.8412
   656.72         28.3196
   656.86         27.6695
   657.00         26.9453
   657.14         26.2026
   657.28         25.4897
   657.42         24.8446
   657.56         24.2942
   657.70         23.8534
   657.84         23.5247
   657.98         23.2970
   658.12         23.1487
   658.26         23.0559
   658.40         22.9990
   658.54         22.9655
   658.68         22.9482
   658.82         22.9416
   658.96         22.9397
   659.10         22.9370
   659.24         22.9298
   659.38         22.9181
   659.52         22.9041
   659.66         22.8893
   659.80         22.8726
   659.94         22.8516
   660.08         22.8230
   660.22         22.7836
   660.36         22.7330
   660.50         22.6712
   660.64         22.5986
   660.78         22.5183
   660.92         22.4363
   661.06         22.3596
   661.20         22.2943
   661.34         22.2437
   661.48         22.2080
   661.62         22.1876
   661.76         22.1830
   661.90         22.1934
   662.04         22.2141
   662.18         22.2383
   662.32         22.2581
   662.46         22.2663
   662.60         22.2587
   662.74         22.2345
   662.88         22.1967
   663.02         22.1504
   663.16         22.0988
   663.30         22.0440
   663.44         21.9886
   663.58         21.9362
   663.72         21.8903
   663.86         21.8534
   664.00         21.8269
   664.14         21.8118
   664.28         21.8079
   664.42         21.8128
   664.56         21.8227
   664.70         21.8334
   664.84         21.8414
   664.98         21.8444
   665.12         21.8403
   665.26         21.8275
   665.40         21.8051
   665.54         21.7736
   665.68         21.7340
   665.82         21.6865
   665.96         21.6310
   666.10         21.5679
   666.24         21.4975
   666.38         21.4191
   666.52         21.3294
   666.66         21.2237
   666.80         21.0965
   666.94         20.9464
   667.08         20.7797
   667.22         20.6083
   667.36         20.4451
   667.50         20.3034
   667.64         20.1939
   667.78         20.1229
   667.92         20.0938
   668.06         20.1078
   668.20         20.1624
   668.34         20.2504
   668.48         20.3618
   668.62         20.4843
   668.76         20.6057
   668.90         20.7165
   669.04         20.8100
   669.18         20.8826
   669.32         20.9346
   669.46         20.9691
   669.60         20.9908
   669.74         21.0033
   669.88         21.0062
   670.02         20.9984
   670.16         20.9798
   670.30         20.9507
   670.44         20.9120
   670.58         20.8671
   670.72         20.8200
   670.86         20.7741
   671.00         20.7338
   671.14         20.7045
   671.28         20.6910
   671.42         20.6956
   671.56         20.7177
   671.70         20.7528
   671.84         20.7935
   671.98         20.8316
   672.12         20.8589
   672.26         20.8698
   672.40         20.8621
   672.54         20.8371
   672.68         20.7966
   672.82         20.7429
   672.96         20.6777
   673.10         20.6042
   673.24         20.5269
   673.38         20.4522
   673.52         20.3867
   673.66         20.3364
   673.80         20.3047
   673.94         20.2914
   674.08         20.2949
   674.22         20.3148
   674.36         20.3507
   674.50         20.4019
   674.64         20.4663
   674.78         20.5403
   674.92         20.6186
   675.06         20.6955
   675.20         20.7655
   675.34         20.8232
   675.48         20.8639
   675.62         20.8860
   675.76         20.8905
   675.90         20.8800
   676.04         20.8574
   676.18         20.8250
   676.32         20.7846
   676.46         20.7392
   676.60         20.6925
   676.74         20.6481
   676.88         20.6081
   677.02         20.5744
   677.16         20.5502
   677.30         20.5372
   677.44         20.5331
   677.58         20.5349
   677.72         20.5405
   677.86         20.5473
   678.00         20.5520
   678.14         20.5514
   678.28         20.5446
   678.42         20.5315
   678.56         20.5119
   678.70         20.4857
   678.84         20.4542
   678.98         20.4212
   679.12         20.3907
   679.26         20.3646
   679.40         20.3451
   679.54         20.3361
   679.68         20.3413
   679.82         20.3588
   679.96         20.3797
   680.10         20.3956
   680.24         20.4043
   680.38         20.4065
   680.52         20.4045
   680.66         20.4011
   680.80         20.3986
   680.94         20.3976
   681.08         20.3962
   681.22         20.3903
   681.36         20.3772
   681.50         20.3572
   681.64         20.3305
   681.78         20.2964
   681.92         20.2546
   682.06         20.2065
   682.20         20.1542
   682.34         20.0993
   682.48         20.0431
   682.62         19.9877
   682.76         19.9378
   682.90         19.8975
   683.04         19.8681
   683.18         19.8484
   683.32         19.8355
   683.46         19.8260
   683.60         19.8178
   683.74         19.8099
   683.88         19.8031
   684.02         19.8011
   684.16         19.8068
   684.30         19.8195
   684.44         19.8358
   684.58         19.8516
   684.72         19.8637
   684.86         19.8697
   685.00         19.8658
   685.14         19.8466
   685.28         19.8064
   685.42         19.7400
   685.56         19.6381
   685.70         19.4870
   685.84         19.2733
   685.98         18.9898
   686.12         18.6386
   686.26         18.2310
   686.40         17.7847
   686.54         17.3224
   686.68         16.8710
   686.82         16.4595
   686.96         16.1171
   687.10         15.8702
   687.24         15.7383
   687.38         15.7280
   687.52         15.8292
   687.66         16.0189
   687.80         16.2647
   687.94         16.5290
   688.08         16.7741
   688.22         16.9681
   688.36         17.0924
   688.50         17.1437
   688.64         17.1295
   688.78         17.0640
   688.92         16.9670
   689.06         16.8622
   689.20         16.7722
   689.34         16.7149
   689.48         16.7018
   689.62         16.7360
   689.76         16.8128
   689.90         16.9227
   690.04         17.0521
   690.18         17.1877
   690.32         17.3212
   690.46         17.4485
   690.60         17.5685
   690.74         17.6822
   690.88         17.7908
   691.02         17.8944
   691.16         17.9912
   691.30         18.0783
   691.44         18.1540
   691.58         18.2176
   691.72         18.2669
   691.86         18.2971
   692.00         18.3063
   692.14         18.2968
   692.28         18.2727
   692.42         18.2391
   692.56         18.2009
   692.70         18.1604
   692.84         18.1191
   692.98         18.0791
   693.12         18.0433
   693.26         18.0136
   693.40         17.9899
   693.54         17.9704
   693.68         17.9529
   693.82         17.9369
   693.96         17.9250
   694.10         17.9206
   694.24         17.9253
   694.38         17.9378
   694.52         17.9549
   694.66         17.9737
   694.80         17.9910
   694.94         18.0046
   695.08         18.0142
   695.22         18.0205
   695.36         18.0258
   695.50         18.0355
   695.64         18.0570
   695.78         18.0975
   695.92         18.1613
   696.06         18.2491
   696.20         18.3593
   696.34         18.4884
   696.48         18.6308
   696.62         18.7775
   696.76         18.9171
   696.90         19.0379
   697.04         19.1315
   697.18         19.1943
   697.32         19.2270
   697.46         19.2322
   697.60         19.2124
   697.74         19.1690
   697.88         19.1034
   698.02         19.0179
   698.16         18.9172
   698.30         18.8076
   698.44         18.6967
   698.58         18.5908
   698.72         18.4945
   698.86         18.4112
   699.00         18.3420
   699.14         18.2860
   699.28         18.2414
   699.42         18.2080
   699.56         18.1863
   699.70         18.1762
   699.84         18.1747
   699.98         18.1777
   700.12         18.1819
   700.26         18.1856
   700.40         18.1895
   700.54         18.1970
   700.68         18.2126
   700.82         18.2375
   700.96         18.2685
   701.10         18.2990
   701.24         18.3193
   701.38         18.3199
   701.52         18.2941
   701.66         18.2402
   701.80         18.1614
   701.94         18.0667
   702.08         17.9665
   702.22         17.8698
   702.36         17.7839
   702.50         17.7160
   702.64         17.6728
   702.78         17.6591
   702.92         17.6758
   703.06         17.7208
   703.20         17.7890
   703.34         17.8712
   703.48         17.9554
   703.62         18.0304
   703.76         18.0885
   703.90         18.1254
   704.04         18.1412
   704.18         18.1403
   704.32         18.1295
   704.46         18.1157
   704.60         18.1035
   704.74         18.0943
   704.88         18.0884
   705.02         18.0862
   705.16         18.0866
   705.30         18.0845
   705.44         18.0725
   705.58         18.0447
   705.72         17.9987
   705.86         17.9347
   706.00         17.8544
   706.14         17.7634
   706.28         17.6723
   706.42         17.5936
   706.56         17.5379
   706.70         17.5115
   706.84         17.5168
   706.98         17.5542
   707.12         17.6210
   707.26         17.7111
   707.40         17.8176
   707.54         17.9334
   707.68         18.0508
   707.82         18.1617
   707.96         18.2591
   708.10         18.3402
   708.24         18.4066
   708.38         18.4612
   708.52         18.5058
   708.66         18.5410
   708.80         18.5660
   708.94         18.5777
   709.08         18.5727
   709.22         18.5492
   709.36         18.5075
   709.50         18.4501
   709.64         18.3809
   709.78         18.3036
   709.92         18.2215
   710.06         18.1375
   710.20         18.0542
   710.34         17.9732
   710.48         17.8958
   710.62         17.8256
   710.76         17.7672
   710.90         17.7247
   711.04         17.7001
   711.18         17.6941
   711.32         17.7070
   711.46         17.7374
   711.60         17.7834
   711.74         17.8419
   711.88         17.9076
   712.02         17.9755
   712.16         18.0428
   712.30         18.1082
   712.44         18.1713
   712.58         18.2300
   712.72         18.2809
   712.86         18.3202
   713.00         18.3448
   713.14         18.3541
   713.28         18.3504
   713.42         18.3371
   713.56         18.3178
   713.70         18.2973
   713.84         18.2809
   713.98         18.2723
   714.12         18.2723
   714.26         18.2781
   714.40         18.2858
   714.54         18.2940
   714.68         18.3014
   714.82         18.3035
   714.96         18.2934
   715.10         18.2657
   715.24         18.2174
   715.38         18.1470
   715.52         18.0554
   715.66         17.9471
   715.80         17.8295
   715.94         17.7084
   716.08         17.5853
   716.22         17.4588
   716.36         17.3253
   716.50         17.1813
   716.64         17.0257
   716.78         16.8610
   716.92         16.6908
   717.06         16.5187
   717.20         16.3467
   717.34         16.1741
   717.48         16.0031
   717.62         15.8434
   717.76         15.7068
   717.90         15.6004
   718.04         15.5261
   718.18         15.4834
   718.32         15.4700
   718.46         15.4803
   718.60         15.5065
   718.74         15.5402
   718.88         15.5741
   719.02         15.6034
   719.16         15.6254
   719.30         15.6386
   719.44         15.6411
   719.58         15.6317
   719.72         15.6136
   719.86         15.5952
   720.00         15.5893
   720.14         15.6094
   720.28         15.6628
   720.42         15.7468
   720.56         15.8542
   720.70         15.9805
   720.84         16.1227
   720.98         16.2754
   721.12         16.4300
   721.26         16.5763
   721.40         16.7022
   721.54         16.7977
   721.68         16.8575
   721.82         16.8808
   721.96         16.8673
   722.10         16.8158
   722.24         16.7260
   722.38         16.6020
   722.52         16.4548
   722.66         16.2977
   722.80         16.1420
   722.94         15.9970
   723.08         15.8713
   723.22         15.7735
   723.36         15.7088
   723.50         15.6771
   723.64         15.6730
   723.78         15.6890
   723.92         15.7173
   724.06         15.7500
   724.20         15.7814
   724.34         15.8088
   724.48         15.8294
   724.62         15.8397
   724.76         15.8399
   724.90         15.8360
   725.04         15.8350
   725.18         15.8389
   725.32         15.8429
   725.46         15.8422
   725.60         15.8387
   725.74         15.8371
   725.88         15.8402
   726.02         15.8481
   726.16         15.8571
   726.30         15.8593
   726.44         15.8450
   726.58         15.8075
   726.72         15.7471
   726.86         15.6694
   727.00         15.5808
   727.14         15.4863
   727.28         15.3923
   727.42         15.3044
   727.56         15.2245
   727.70         15.1520
   727.84         15.0881
   727.98         15.0370
   728.12         15.0049
   728.26         14.9951
   728.40         15.0057
   728.54         15.0325
   728.68         15.0711
   728.82         15.1160
   728.96         15.1630
   729.10         15.2101
   729.24         15.2579
   729.38         15.3077
   729.52         15.3574
   729.66         15.3998
   729.80         15.4267
   729.94         15.4339
   730.08         15.4210
   730.22         15.3920
   730.36         15.3544
   730.50         15.3165
   730.64         15.2842
   730.78         15.2601
   730.92         15.2458
   731.06         15.2430
   731.20         15.2527
   731.34         15.2736
   731.48         15.3028
   731.62         15.3371
   731.76         15.3750
   731.90         15.4164
   732.04         15.4598
   732.18         15.4997
   732.32         15.5298
   732.46         15.5474
   732.60         15.5519
   732.74         15.5418
   732.88         15.5158
   733.02         15.4737
   733.16         15.4167
   733.30         15.3498
   733.44         15.2819
   733.58         15.2231
   733.72         15.1803
   733.86         15.1550
   734.00         15.1456
   734.14         15.1497
   734.28         15.1654
   734.42         15.1912
   734.56         15.2235
   734.70         15.2566
   734.84         15.2859
   734.98         15.3072
   735.12         15.3176
   735.26         15.3142
   735.40         15.2964
   735.54         15.2665
   735.68         15.2276
   735.82         15.1839
   735.96         15.1402
   736.10         15.1005
   736.24         15.0644
   736.38         15.0283
   736.52         14.9885
   736.66         14.9437
   736.80         14.8949
   736.94         14.8438
   737.08         14.7916
   737.22         14.7388
   737.36         14.6851
   737.50         14.6317
   737.64         14.5812
   737.78         14.5374
   737.92         14.5041
   738.06         14.4842
   738.20         14.4790
   738.34         14.4885
   738.48         14.5109
   738.62         14.5423
   738.76         14.5763
   738.90         14.6063
   739.04         14.6265
   739.18         14.6337
   739.32         14.6257
   739.46         14.6016
   739.60         14.5616
   739.74         14.5071
   739.88         14.4421
   740.02         14.3721
   740.16         14.3029
   740.30         14.2411
   740.44         14.1939
   740.58         14.1677
   740.72         14.1672
   740.86         14.1942
   741.00         14.2469
   741.14         14.3204
   741.28         14.4067
   741.42         14.4954
   741.56         14.5755
   741.70         14.6381
   741.84         14.6765
   741.98         14.6885
   742.12         14.6767
   742.26         14.6466
   742.40         14.6055
   742.54         14.5623
   742.68         14.5260
   742.82         14.5048
   742.96         14.5048
   743.10         14.5260
   743.24         14.5623
   743.38         14.6055
   743.52         14.6466
   743.66         14.6767
   743.80         14.6885
   743.94         14.6765
   744.08         14.6381
   744.22         14.5755
