# File BD+58204
# Wavelength [nm]    Normalized Amplitude
   349.70         14.6166
   349.84         14.7728
   349.98         14.9542
   350.12         15.1425
   350.26         15.3239
   350.40         15.4916
   350.54         15.6371
   350.68         15.7547
   350.82         15.8452
   350.96         15.9049
   351.10         15.9260
   351.24         15.9049
   351.38         15.8452
   351.52         15.7547
   351.66         15.6371
   351.80         15.4916
   351.94         15.3239
   352.08         15.1425
   352.22         14.9542
   352.36         14.7728
   352.50         14.6166
   352.64         14.4911
   352.78         14.3940
   352.92         14.3265
   353.06         14.2867
   353.20         14.2727
   353.34         14.2814
   353.48         14.3054
   353.62         14.3410
   353.76         14.3896
   353.90         14.4495
   354.04         14.5104
   354.18         14.5662
   354.32         14.6151
   354.46         14.6576
   354.60         14.7003
   354.74         14.7455
   354.88         14.7903
   355.02         14.8268
   355.16         14.8455
   355.30         14.8397
   355.44         14.8071
   355.58         14.7536
   355.72         14.6884
   355.86         14.6201
   356.00         14.5506
   356.14         14.4787
   356.28         14.4086
   356.42         14.3463
   356.56         14.2991
   356.70         14.2770
   356.84         14.2943
   356.98         14.3532
   357.12         14.4476
   357.26         14.5715
   357.40         14.7053
   357.54         14.8170
   357.68         14.8804
   357.82         14.8872
   357.96         14.8395
   358.10         14.7406
   358.24         14.5988
   358.38         14.4257
   358.52         14.2352
   358.66         14.0419
   358.80         13.8584
   358.94         13.6963
   359.08         13.5664
   359.22         13.4728
   359.36         13.4123
   359.50         13.3816
   359.64         13.3747
   359.78         13.3820
   359.92         13.3884
   360.06         13.3761
   360.20         13.3417
   360.34         13.2950
   360.48         13.2493
   360.62         13.2140
   360.76         13.1958
   360.90         13.2041
   361.04         13.2493
   361.18         13.3356
   361.32         13.4624
   361.46         13.6269
   361.60         13.8237
   361.74         14.0438
   361.88         14.2727
   362.02         14.4930
   362.16         14.6873
   362.30         14.8407
   362.44         14.9485
   362.58         15.0161
   362.72         15.0532
   362.86         15.0697
   363.00         15.0697
   363.14         15.0563
   363.28         15.0383
   363.42         15.0273
   363.56         15.0301
   363.70         15.0453
   363.84         15.0710
   363.98         15.1096
   364.12         15.1625
   364.26         15.2281
   364.40         15.3070
   364.54         15.4042
   364.68         15.5229
   364.82         15.6625
   364.96         15.8213
   365.10         15.9955
   365.24         16.1736
   365.38         16.3371
   365.52         16.4689
   365.66         16.5592
   365.80         16.6062
   365.94         16.6122
   366.08         16.5818
   366.22         16.5246
   366.36         16.4528
   366.50         16.3737
   366.64         16.2884
   366.78         16.1989
   366.92         16.1117
   367.06         16.0350
   367.20         15.9733
   367.34         15.9262
   367.48         15.8964
   367.62         15.8921
   367.76         15.9215
   367.90         15.9912
   368.04         16.1094
   368.18         16.2867
   368.32         16.5314
   368.46         16.8441
   368.60         17.2185
   368.74         17.6459
   368.88         18.1096
   369.02         18.5784
   369.16         19.0140
   369.30         19.3868
   369.44         19.6836
   369.58         19.9006
   369.72         20.0389
   369.86         20.1047
   370.00         20.1137
   370.14         20.0921
   370.28         20.0755
   370.42         20.1093
   370.56         20.2384
   370.70         20.4862
   370.84         20.8435
   370.98         21.2799
   371.12         21.7624
   371.26         22.2627
   371.40         22.7569
   371.54         23.2244
   371.68         23.6517
   371.82         24.0318
   371.96         24.3576
   372.10         24.6166
   372.24         24.7919
   372.38         24.8732
   372.52         24.8727
   372.66         24.8291
   372.80         24.7980
   372.94         24.8348
   373.08         24.9759
   373.22         25.2229
   373.36         25.5439
   373.50         25.8894
   373.64         26.2102
   373.78         26.4659
   373.92         26.6260
   374.06         26.6791
   374.20         26.6424
   374.34         26.5512
   374.48         26.4435
   374.62         26.3553
   374.76         26.3236
   374.90         26.3929
   375.04         26.6166
   375.18         27.0324
   375.32         27.6349
   375.46         28.3703
   375.60         29.1433
   375.74         29.8362
   375.88         30.3362
   376.02         30.5708
   376.16         30.5301
   376.30         30.2678
   376.44         29.8906
   376.58         29.5374
   376.72         29.3501
   376.86         29.4435
   377.00         29.8818
   377.14         30.6795
   377.28         31.8081
   377.42         33.1967
   377.56         34.7463
   377.70         36.3433
   377.84         37.8606
   377.98         39.1740
   378.12         40.1722
   378.26         40.7611
   378.40         40.8812
   378.54         40.5180
   378.68         39.7094
   378.82         38.5421
   378.96         37.1394
   379.10         35.6484
   379.24         34.2242
   379.38         33.0138
   379.52         32.1431
   379.66         31.7123
   379.80         31.7845
   379.94         32.3667
   380.08         33.4061
   380.22         34.8138
   380.36         36.4783
   380.50         38.2651
   380.64         40.0278
   380.78         41.6250
   380.92         42.9517
   381.06         43.9546
   381.20         44.6211
   381.34         44.9687
   381.48         45.0328
   381.62         44.8500
   381.76         44.4520
   381.90         43.8612
   382.04         43.0813
   382.18         42.0995
   382.32         40.9002
   382.46         39.4758
   382.60         37.8465
   382.74         36.0820
   382.88         34.3028
   383.02         32.6585
   383.16         31.3018
   383.30         30.3706
   383.44         29.9688
   383.58         30.1502
   383.72         30.9096
   383.86         32.1925
   384.00         33.9160
   384.14         35.9735
   384.28         38.2372
   384.42         40.5658
   384.56         42.8121
   384.70         44.8450
   384.84         46.5798
   384.98         47.9876
   385.12         49.0861
   385.26         49.9258
   385.40         50.5708
   385.54         51.0815
   385.68         51.5091
   385.82         51.8877
   385.96         52.2258
   386.10         52.5111
   386.24         52.7230
   386.38         52.8394
   386.52         52.8345
   386.66         52.6766
   386.80         52.3354
   386.94         51.7886
   387.08         51.0205
   387.22         50.0171
   387.36         48.7706
   387.50         47.2857
   387.64         45.5763
   387.78         43.6739
   387.92         41.6379
   388.06         39.5530
   388.20         37.5199
   388.34         35.6421
   388.48         34.0141
   388.62         32.7204
   388.76         31.8367
   388.90         31.4186
   389.04         31.4856
   389.18         32.0193
   389.32         32.9750
   389.46         34.2841
   389.60         35.8546
   389.74         37.5847
   389.88         39.3744
   390.02         41.1319
   390.16         42.7802
   390.30         44.2627
   390.44         45.5470
   390.58         46.6189
   390.72         47.4727
   390.86         48.1062
   391.00         48.5208
   391.14         48.7244
   391.28         48.7290
   391.42         48.5431
   391.56         48.1585
   391.70         47.5426
   391.84         46.6432
   391.98         45.4032
   392.12         43.7807
   392.26         41.7720
   392.40         39.4277
   392.54         36.8579
   392.68         34.2259
   392.82         31.7318
   392.96         29.5866
   393.10         27.9833
   393.24         27.0700
   393.38         26.9262
   393.52         27.5512
   393.66         28.8693
   393.80         30.7411
   393.94         32.9809
   394.08         35.3791
   394.22         37.7279
   394.36         39.8448
   394.50         41.5937
   394.64         42.8998
   394.78         43.7488
   394.92         44.1677
   395.06         44.1967
   395.20         43.8628
   395.34         43.1628
   395.48         42.0676
   395.62         40.5491
   395.76         38.6152
   395.90         36.3280
   396.04         33.8026
   396.18         31.2018
   396.32         28.7256
   396.46         26.5904
   396.60         24.9999
   396.74         24.1127
   396.88         24.0145
   397.02         24.7118
   397.16         26.1422
   397.30         28.1862
   397.44         30.6782
   397.58         33.4220
   397.72         36.2139
   397.86         38.8713
   398.00         41.2561
   398.14         43.2857
   398.28         44.9324
   398.42         46.2156
   398.56         47.1835
   398.70         47.8966
   398.84         48.4168
   398.98         48.7986
   399.12         49.0786
   399.26         49.2694
   399.40         49.3723
   399.54         49.3983
   399.68         49.3748
   399.82         49.3358
   399.96         49.3138
   400.10         49.3352
   400.24         49.4165
   400.38         49.5675
   400.52         49.7926
   400.66         50.0852
   400.80         50.4234
   400.94         50.7747
   401.08         51.1048
   401.22         51.3874
   401.36         51.6087
   401.50         51.7596
   401.64         51.8284
   401.78         51.7992
   401.92         51.6641
   402.06         51.4361
   402.20         51.1433
   402.34         50.8173
   402.48         50.4893
   402.62         50.1895
   402.76         49.9442
   402.90         49.7730
   403.04         49.6838
   403.18         49.6690
   403.32         49.7095
   403.46         49.7813
   403.60         49.8659
   403.74         49.9511
   403.88         50.0263
   404.02         50.0777
   404.16         50.0837
   404.30         50.0269
   404.44         49.9090
   404.58         49.7537
   404.72         49.5925
   404.86         49.4474
   405.00         49.3263
   405.14         49.2249
   405.28         49.1348
   405.42         49.0476
   405.56         48.9570
   405.70         48.8584
   405.84         48.7501
   405.98         48.6340
   406.12         48.5111
   406.26         48.3749
   406.40         48.2077
   406.54         47.9946
   406.68         47.7355
   406.82         47.4422
   406.96         47.1326
   407.10         46.8214
   407.24         46.5168
   407.38         46.2239
   407.52         45.9474
   407.66         45.6934
   407.80         45.4696
   407.94         45.2830
   408.08         45.1302
   408.22         44.9882
   408.36         44.8111
   408.50         44.5352
   408.64         44.0899
   408.78         43.4054
   408.92         42.4289
   409.06         41.1521
   409.20         39.6229
   409.34         37.9316
   409.48         36.1951
   409.62         34.5448
   409.76         33.1146
   409.90         32.0272
   410.04         31.3790
   410.18         31.2299
   410.32         31.5965
   410.46         32.4471
   410.60         33.7039
   410.74         35.2512
   410.88         36.9511
   411.02         38.6636
   411.16         40.2663
   411.30         41.6693
   411.44         42.8212
   411.58         43.7114
   411.72         44.3614
   411.86         44.8055
   412.00         45.0855
   412.14         45.2530
   412.28         45.3616
   412.42         45.4581
   412.56         45.5823
   412.70         45.7674
   412.84         46.0311
   412.98         46.3690
   413.12         46.7594
   413.26         47.1756
   413.40         47.5915
   413.54         47.9779
   413.68         48.3062
   413.82         48.5552
   413.96         48.7121
   414.10         48.7689
   414.24         48.7220
   414.38         48.5783
   414.52         48.3618
   414.66         48.1096
   414.80         47.8557
   414.94         47.6214
   415.08         47.4223
   415.22         47.2747
   415.36         47.1893
   415.50         47.1660
   415.64         47.1982
   415.78         47.2731
   415.92         47.3638
   416.06         47.4297
   416.20         47.4288
   416.34         47.3308
   416.48         47.1188
   416.62         46.7876
   416.76         46.3512
   416.90         45.8437
   417.04         45.3125
   417.18         44.8071
   417.32         44.3707
   417.46         44.0380
   417.60         43.8364
   417.74         43.7845
   417.88         43.8846
   418.02         44.1225
   418.16         44.4706
   418.30         44.8859
   418.44         45.3111
   418.58         45.6913
   418.72         45.9920
   418.86         46.2009
   419.00         46.3155
   419.14         46.3384
   419.28         46.2830
   419.42         46.1721
   419.56         46.0279
   419.70         45.8702
   419.84         45.7211
   419.98         45.6030
   420.12         45.5335
   420.26         45.5219
   420.40         45.5700
   420.54         45.6741
   420.68         45.8248
   420.82         46.0042
   420.96         46.1866
   421.10         46.3441
   421.24         46.4518
   421.38         46.4892
   421.52         46.4462
   421.66         46.3285
   421.80         46.1561
   421.94         45.9527
   422.08         45.7366
   422.22         45.5207
   422.36         45.3161
   422.50         45.1343
   422.64         44.9872
   422.78         44.8887
   422.92         44.8508
   423.06         44.8790
   423.20         44.9656
   423.34         45.0884
   423.48         45.2170
   423.62         45.3205
   423.76         45.3734
   423.90         45.3627
   424.04         45.2943
   424.18         45.1904
   424.32         45.0740
   424.46         44.9581
   424.60         44.8457
   424.74         44.7391
   424.88         44.6499
   425.02         44.5984
   425.16         44.6036
   425.30         44.6771
   425.44         44.8190
   425.58         45.0147
   425.72         45.2353
   425.86         45.4447
   426.00         45.6111
   426.14         45.7129
   426.28         45.7395
   426.42         45.6921
   426.56         45.5838
   426.70         45.4373
   426.84         45.2774
   426.98         45.1228
   427.12         44.9830
   427.26         44.8631
   427.40         44.7667
   427.54         44.6931
   427.68         44.6306
   427.82         44.5597
   427.96         44.4633
   428.10         44.3292
   428.24         44.1522
   428.38         43.9345
   428.52         43.6839
   428.66         43.4107
   428.80         43.1229
   428.94         42.8248
   429.08         42.5232
   429.22         42.2283
   429.36         41.9491
   429.50         41.6888
   429.64         41.4487
   429.78         41.2333
   429.92         41.0484
   430.06         40.8946
   430.20         40.7693
   430.34         40.6740
   430.48         40.6175
   430.62         40.6074
   430.76         40.6436
   430.90         40.7188
   431.04         40.8168
   431.18         40.9135
   431.32         40.9840
   431.46         41.0141
   431.60         41.0026
   431.74         40.9543
   431.88         40.8684
   432.02         40.7340
   432.16         40.5329
   432.30         40.2413
   432.44         39.8254
   432.58         39.2398
   432.72         38.4412
   432.86         37.4096
   433.00         36.1608
   433.14         34.7457
   433.28         33.2448
   433.42         31.7593
   433.56         30.3971
   433.70         29.2591
   433.84         28.4293
   433.98         27.9686
   434.12         27.9131
   434.26         28.2714
   434.40         29.0203
   434.54         30.1059
   434.68         31.4513
   434.82         32.9651
   434.96         34.5520
   435.10         36.1264
   435.24         37.6247
   435.38         39.0073
   435.52         40.2521
   435.66         41.3487
   435.80         42.2943
   435.94         43.0865
   436.08         43.7146
   436.22         44.1635
   436.36         44.4288
   436.50         44.5284
   436.64         44.5019
   436.78         44.3993
   436.92         44.2634
   437.06         44.1137
   437.20         43.9489
   437.34         43.7630
   437.48         43.5580
   437.62         43.3433
   437.76         43.1312
   437.90         42.9292
   438.04         42.7358
   438.18         42.5448
   438.32         42.3560
   438.46         42.1754
   438.60         42.0065
   438.74         41.8482
   438.88         41.7052
   439.02         41.5923
   439.16         41.5242
   439.30         41.5039
   439.44         41.5206
   439.58         41.5579
   439.72         41.6045
   439.86         41.6604
   440.00         41.7345
   440.14         41.8307
   440.28         41.9343
   440.42         42.0146
   440.56         42.0400
   440.70         41.9935
   440.84         41.8753
   440.98         41.7006
   441.12         41.4938
   441.26         41.2820
   441.40         41.0936
   441.54         40.9578
   441.68         40.8951
   441.82         40.9081
   441.96         40.9807
   442.10         41.0865
   442.24         41.1997
   442.38         41.3026
   442.52         41.3884
   442.66         41.4559
   442.80         41.4985
   442.94         41.5055
   443.08         41.4719
   443.22         41.4062
   443.36         41.3238
   443.50         41.2361
   443.64         41.1505
   443.78         41.0725
   443.92         41.0073
   444.06         40.9575
   444.20         40.9207
   444.34         40.8893
   444.48         40.8572
   444.62         40.8245
   444.76         40.7948
   444.90         40.7705
   445.04         40.7511
   445.18         40.7289
   445.32         40.6881
   445.46         40.6117
   445.60         40.4940
   445.74         40.3439
   445.88         40.1808
   446.02         40.0265
   446.16         39.9034
   446.30         39.8322
   446.44         39.8303
   446.58         39.9049
   446.72         40.0462
   446.86         40.2331
   447.00         40.4450
   447.14         40.6682
   447.28         40.8908
   447.42         41.0975
   447.56         41.2721
   447.70         41.4005
   447.84         41.4753
   447.98         41.4944
   448.12         41.4631
   448.26         41.3972
   448.40         41.3208
   448.54         41.2596
   448.68         41.2312
   448.82         41.2415
   448.96         41.2901
   449.10         41.3756
   449.24         41.4960
   449.38         41.6447
   449.52         41.8142
   449.66         42.0007
   449.80         42.2016
   449.94         42.4079
   450.08         42.6028
   450.22         42.7692
   450.36         42.8963
   450.50         42.9766
   450.64         43.0051
   450.78         42.9831
   450.92         42.9140
   451.06         42.8002
   451.20         42.6428
   451.34         42.4422
   451.48         42.2029
   451.62         41.9364
   451.76         41.6567
   451.90         41.3705
   452.04         41.0774
   452.18         40.7863
   452.32         40.5208
   452.46         40.3094
   452.60         40.1733
   452.74         40.1210
   452.88         40.1519
   453.02         40.2571
   453.16         40.4196
   453.30         40.6182
   453.44         40.8242
   453.58         41.0002
   453.72         41.1116
   453.86         41.1345
   454.00         41.0562
   454.14         40.8740
   454.28         40.5980
   454.42         40.2495
   454.56         39.8569
   454.70         39.4614
   454.84         39.1128
   454.98         38.8492
   455.12         38.6885
   455.26         38.6333
   455.40         38.6774
   455.54         38.8127
   455.68         39.0294
   455.82         39.3107
   455.96         39.6329
   456.10         39.9689
   456.24         40.2927
   456.38         40.5874
   456.52         40.8429
   456.66         41.0442
   456.80         41.1730
   456.94         41.2166
   457.08         41.1722
   457.22         41.0481
   457.36         40.8608
   457.50         40.6226
   457.64         40.3416
   457.78         40.0349
   457.92         39.7276
   458.06         39.4440
   458.20         39.2037
   458.34         39.0206
   458.48         38.9019
   458.62         38.8512
   458.76         38.8683
   458.90         38.9489
   459.04         39.0858
   459.18         39.2673
   459.32         39.4785
   459.46         39.7073
   459.60         39.9485
   459.74         40.1992
   459.88         40.4530
   460.02         40.6959
   460.16         40.9080
   460.30         41.0728
   460.44         41.1811
   460.58         41.2274
   460.72         41.2098
   460.86         41.1361
   461.00         41.0217
   461.14         40.8871
   461.28         40.7539
   461.42         40.6392
   461.56         40.5552
   461.70         40.5107
   461.84         40.5127
   461.98         40.5582
   462.12         40.6297
   462.26         40.7024
   462.40         40.7535
   462.54         40.7690
   462.68         40.7477
   462.82         40.6970
   462.96         40.6288
   463.10         40.5580
   463.24         40.5032
   463.38         40.4846
   463.52         40.5171
   463.66         40.6032
   463.80         40.7336
   463.94         40.8894
   464.08         41.0454
   464.22         41.1766
   464.36         41.2618
   464.50         41.2876
   464.64         41.2519
   464.78         41.1656
   464.92         41.0505
   465.06         40.9315
   465.20         40.8288
   465.34         40.7511
   465.48         40.6937
   465.62         40.6462
   465.76         40.6007
   465.90         40.5516
   466.04         40.4971
   466.18         40.4387
   466.32         40.3777
   466.46         40.3155
   466.60         40.2561
   466.74         40.2060
   466.88         40.1713
   467.02         40.1595
   467.16         40.1803
   467.30         40.2392
   467.44         40.3301
   467.58         40.4377
   467.72         40.5468
   467.86         40.6442
   468.00         40.7167
   468.14         40.7560
   468.28         40.7619
   468.42         40.7377
   468.56         40.6862
   468.70         40.6108
   468.84         40.5107
   468.98         40.3819
   469.12         40.2250
   469.26         40.0487
   469.40         39.8645
   469.54         39.6821
   469.68         39.5121
   469.82         39.3646
   469.96         39.2461
   470.10         39.1611
   470.24         39.1126
   470.38         39.1013
   470.52         39.1231
   470.66         39.1704
   470.80         39.2374
   470.94         39.3187
   471.08         39.4065
   471.22         39.4958
   471.36         39.5848
   471.50         39.6686
   471.64         39.7383
   471.78         39.7841
   471.92         39.7973
   472.06         39.7720
   472.20         39.7070
   472.34         39.6055
   472.48         39.4732
   472.62         39.3201
   472.76         39.1586
   472.90         39.0021
   473.04         38.8636
   473.18         38.7560
   473.32         38.6919
   473.46         38.6788
   473.60         38.7150
   473.74         38.7929
   473.88         38.9012
   474.02         39.0228
   474.16         39.1360
   474.30         39.2222
   474.44         39.2696
   474.58         39.2759
   474.72         39.2444
   474.86         39.1766
   475.00         39.0715
   475.14         38.9286
   475.28         38.7535
   475.42         38.5591
   475.56         38.3599
   475.70         38.1682
   475.84         37.9942
   475.98         37.8449
   476.12         37.7221
   476.26         37.6273
   476.40         37.5666
   476.54         37.5474
   476.68         37.5723
   476.82         37.6383
   476.96         37.7369
   477.10         37.8536
   477.24         37.9701
   477.38         38.0645
   477.52         38.1186
   477.66         38.1250
   477.80         38.0859
   477.94         38.0126
   478.08         37.9229
   478.22         37.8320
   478.36         37.7482
   478.50         37.6766
   478.64         37.6221
   478.78         37.5886
   478.92         37.5773
   479.06         37.5848
   479.20         37.6037
   479.34         37.6264
   479.48         37.6471
   479.62         37.6606
   479.76         37.6623
   479.90         37.6533
   480.04         37.6392
   480.18         37.6271
   480.32         37.6209
   480.46         37.6234
   480.60         37.6375
   480.74         37.6602
   480.88         37.6793
   481.02         37.6794
   481.16         37.6514
   481.30         37.5922
   481.44         37.5009
   481.58         37.3808
   481.72         37.2386
   481.86         37.0839
   482.00         36.9309
   482.14         36.7930
   482.28         36.6795
   482.42         36.5986
   482.56         36.5559
   482.70         36.5517
   482.84         36.5814
   482.98         36.6365
   483.12         36.7022
   483.26         36.7538
   483.40         36.7600
   483.54         36.6942
   483.68         36.5419
   483.82         36.2984
   483.96         35.9639
   484.10         35.5372
   484.24         35.0143
   484.38         34.3910
   484.52         33.6636
   484.66         32.8277
   484.80         31.8782
   484.94         30.8205
   485.08         29.6813
   485.22         28.5074
   485.36         27.3604
   485.50         26.3083
   485.64         25.4161
   485.78         24.7395
   485.92         24.3205
   486.06         24.1837
   486.20         24.3320
   486.34         24.7471
   486.48         25.3907
   486.62         26.2062
   486.76         27.1262
   486.90         28.0828
   487.04         29.0151
   487.18         29.8738
   487.32         30.6293
   487.46         31.2763
   487.60         31.8254
   487.74         32.2910
   487.88         32.6842
   488.02         33.0162
   488.16         33.3000
   488.30         33.5493
   488.44         33.7764
   488.58         33.9915
   488.72         34.2014
   488.86         34.4115
   489.00         34.6282
   489.14         34.8557
   489.28         35.0948
   489.42         35.3429
   489.56         35.5923
   489.70         35.8302
   489.84         36.0427
   489.98         36.2217
   490.12         36.3651
   490.26         36.4742
   490.40         36.5516
   490.54         36.6006
   490.68         36.6231
   490.82         36.6160
   490.96         36.5724
   491.10         36.4865
   491.24         36.3591
   491.38         36.2007
   491.52         36.0311
   491.66         35.8747
   491.80         35.7530
   491.94         35.6789
   492.08         35.6552
   492.22         35.6795
   492.36         35.7486
   492.50         35.8603
   492.64         36.0100
   492.78         36.1870
   492.92         36.3757
   493.06         36.5586
   493.20         36.7210
   493.34         36.8546
   493.48         36.9594
   493.62         37.0417
   493.76         37.1093
   493.90         37.1681
   494.04         37.2204
   494.18         37.2627
   494.32         37.2848
   494.46         37.2730
   494.60         37.2166
   494.74         37.1165
   494.88         36.9862
   495.02         36.8446
   495.16         36.7081
   495.30         36.5877
   495.44         36.4913
   495.58         36.4230
   495.72         36.3802
   495.86         36.3563
   496.00         36.3433
   496.14         36.3345
   496.28         36.3237
   496.42         36.3044
   496.56         36.2705
   496.70         36.2183
   496.84         36.1457
   496.98         36.0513
   497.12         35.9370
   497.26         35.8113
   497.40         35.6870
   497.54         35.5766
   497.68         35.4856
   497.82         35.4123
   497.96         35.3524
   498.10         35.3029
   498.24         35.2624
   498.38         35.2322
   498.52         35.2150
   498.66         35.2093
   498.80         35.2042
   498.94         35.1797
   499.08         35.1169
   499.22         35.0059
   499.36         34.8461
   499.50         34.6458
   499.64         34.4212
   499.78         34.1947
   499.92         33.9883
   500.06         33.8164
   500.20         33.6840
   500.34         33.5890
   500.48         33.5245
   500.62         33.4791
   500.76         33.4398
   500.90         33.3981
   501.04         33.3503
   501.18         33.2951
   501.32         33.2343
   501.46         33.1740
   501.60         33.1260
   501.74         33.1052
   501.88         33.1228
   502.02         33.1848
   502.16         33.2905
   502.30         33.4307
   502.44         33.5894
   502.58         33.7469
   502.72         33.8845
   502.86         33.9888
   503.00         34.0526
   503.14         34.0748
   503.28         34.0630
   503.42         34.0333
   503.56         34.0041
   503.70         33.9884
   503.84         33.9910
   503.98         34.0093
   504.12         34.0368
   504.26         34.0673
   504.40         34.0951
   504.54         34.1195
   504.68         34.1440
   504.82         34.1712
   504.96         34.2020
   505.10         34.2365
   505.24         34.2732
   505.38         34.3099
   505.52         34.3456
   505.66         34.3811
   505.80         34.4166
   505.94         34.4490
   506.08         34.4707
   506.22         34.4733
   506.36         34.4511
   506.50         34.4018
   506.64         34.3268
   506.78         34.2303
   506.92         34.1164
   507.06         33.9898
   507.20         33.8592
   507.34         33.7340
   507.48         33.6221
   507.62         33.5291
   507.76         33.4600
   507.90         33.4189
   508.04         33.4089
   508.18         33.4312
   508.32         33.4843
   508.46         33.5624
   508.60         33.6543
   508.74         33.7455
   508.88         33.8236
   509.02         33.8799
   509.16         33.9108
   509.30         33.9162
   509.44         33.8984
   509.58         33.8603
   509.72         33.8059
   509.86         33.7407
   510.00         33.6726
   510.14         33.6117
   510.28         33.5686
   510.42         33.5514
   510.56         33.5640
   510.70         33.6050
   510.84         33.6682
   510.98         33.7426
   511.12         33.8127
   511.26         33.8625
   511.40         33.8811
   511.54         33.8617
   511.68         33.8000
   511.82         33.6949
   511.96         33.5491
   512.10         33.3699
   512.24         33.1710
   512.38         32.9714
   512.52         32.7915
   512.66         32.6475
   512.80         32.5494
   512.94         32.4986
   513.08         32.4889
   513.22         32.5085
   513.36         32.5429
   513.50         32.5794
   513.64         32.6094
   513.78         32.6285
   513.92         32.6346
   514.06         32.6265
   514.20         32.6040
   514.34         32.5707
   514.48         32.5335
   514.62         32.4993
   514.76         32.4716
   514.90         32.4512
   515.04         32.4364
   515.18         32.4222
   515.32         32.4004
   515.46         32.3578
   515.60         32.2788
   515.74         32.1513
   515.88         31.9718
   516.02         31.7471
   516.16         31.4953
   516.30         31.2431
   516.44         31.0182
   516.58         30.8458
   516.72         30.7474
   516.86         30.7367
   517.00         30.8127
   517.14         30.9594
   517.28         31.1508
   517.42         31.3562
   517.56         31.5453
   517.70         31.6916
   517.84         31.7740
   517.98         31.7789
   518.12         31.7038
   518.26         31.5593
   518.40         31.3692
   518.54         31.1638
   518.68         30.9744
   518.82         30.8283
   518.96         30.7417
   519.10         30.7165
   519.24         30.7437
   519.38         30.8088
   519.52         30.8935
   519.66         30.9798
   519.80         31.0562
   519.94         31.1200
   520.08         31.1717
   520.22         31.2127
   520.36         31.2442
   520.50         31.2669
   520.64         31.2826
   520.78         31.2970
   520.92         31.3184
   521.06         31.3528
   521.20         31.3978
   521.34         31.4414
   521.48         31.4669
   521.62         31.4604
   521.76         31.4154
   521.90         31.3313
   522.04         31.2115
   522.18         31.0621
   522.32         30.8919
   522.46         30.7135
   522.60         30.5418
   522.74         30.3919
   522.88         30.2782
   523.02         30.2147
   523.16         30.2121
   523.30         30.2738
   523.44         30.3934
   523.58         30.5540
   523.72         30.7330
   523.86         30.9097
   524.00         31.0715
   524.14         31.2135
   524.28         31.3346
   524.42         31.4331
   524.56         31.5055
   524.70         31.5488
   524.84         31.5611
   524.98         31.5400
   525.12         31.4819
   525.26         31.3826
   525.40         31.2397
   525.54         31.0517
   525.68         30.8167
   525.82         30.5362
   525.96         30.2180
   526.10         29.8750
   526.24         29.5230
   526.38         29.1818
   526.52         28.8739
   526.66         28.6190
   526.80         28.4310
   526.94         28.3171
   527.08         28.2766
   527.22         28.3031
   527.36         28.3881
   527.50         28.5227
   527.64         28.6991
   527.78         28.9106
   527.92         29.1520
   528.06         29.4177
   528.20         29.6986
   528.34         29.9825
   528.48         30.2574
   528.62         30.5106
   528.76         30.7289
   528.90         30.9026
   529.04         31.0267
   529.18         31.0985
   529.32         31.1159
   529.46         31.0794
   529.60         30.9957
   529.74         30.8779
   529.88         30.7436
   530.02         30.6089
   530.16         30.4822
   530.30         30.3633
   530.44         30.2489
   530.58         30.1368
   530.72         30.0268
   530.86         29.9190
   531.00         29.8131
   531.14         29.7091
   531.28         29.6056
   531.42         29.4989
   531.56         29.3845
   531.70         29.2620
   531.84         29.1359
   531.98         29.0142
   532.12         28.9044
   532.26         28.8106
   532.40         28.7322
   532.54         28.6657
   532.68         28.6071
   532.82         28.5572
   532.96         28.5225
   533.10         28.5127
   533.24         28.5345
   533.38         28.5884
   533.52         28.6681
   533.66         28.7649
   533.80         28.8715
   533.94         28.9830
   534.08         29.0983
   534.22         29.2202
   534.36         29.3523
   534.50         29.4938
   534.64         29.6379
   534.78         29.7741
   534.92         29.8916
   535.06         29.9822
   535.20         30.0412
   535.34         30.0675
   535.48         30.0618
   535.62         30.0227
   535.76         29.9473
   535.90         29.8354
   536.04         29.6938
   536.18         29.5364
   536.32         29.3804
   536.46         29.2429
   536.60         29.1363
   536.74         29.0660
   536.88         29.0308
   537.02         29.0239
   537.16         29.0372
   537.30         29.0642
   537.44         29.0997
   537.58         29.1397
   537.72         29.1824
   537.86         29.2271
   538.00         29.2723
   538.14         29.3145
   538.28         29.3482
   538.42         29.3696
   538.56         29.3786
   538.70         29.3774
   538.84         29.3662
   538.98         29.3409
   539.12         29.2936
   539.26         29.2167
   539.40         29.1092
   539.54         28.9773
   539.68         28.8328
   539.82         28.6898
   539.96         28.5614
   540.10         28.4552
   540.24         28.3745
   540.38         28.3200
   540.52         28.2904
   540.66         28.2828
   540.80         28.2929
   540.94         28.3156
   541.08         28.3453
   541.22         28.3765
   541.36         28.4044
   541.50         28.4255
   541.64         28.4360
   541.78         28.4346
   541.92         28.4243
   542.06         28.4111
   542.20         28.3997
   542.34         28.3933
   542.48         28.3953
   542.62         28.4081
   542.76         28.4331
   542.90         28.4712
   543.04         28.5215
   543.18         28.5800
   543.32         28.6386
   543.46         28.6882
   543.60         28.7232
   543.74         28.7437
   543.88         28.7528
   544.02         28.7527
   544.16         28.7420
   544.30         28.7170
   544.44         28.6777
   544.58         28.6301
   544.72         28.5827
   544.86         28.5423
   545.00         28.5132
   545.14         28.4972
   545.28         28.4935
   545.42         28.4990
   545.56         28.5102
   545.70         28.5241
   545.84         28.5383
   545.98         28.5512
   546.12         28.5624
   546.26         28.5699
   546.40         28.5676
   546.54         28.5472
   546.68         28.5025
   546.82         28.4344
   546.96         28.3502
   547.10         28.2620
   547.24         28.1818
   547.38         28.1168
   547.52         28.0706
   547.66         28.0450
   547.80         28.0405
   547.94         28.0554
   548.08         28.0864
   548.22         28.1293
   548.36         28.1789
   548.50         28.2283
   548.64         28.2718
   548.78         28.3056
   548.92         28.3267
   549.06         28.3338
   549.20         28.3275
   549.34         28.3100
   549.48         28.2830
   549.62         28.2469
   549.76         28.2010
   549.90         28.1444
   550.04         28.0781
   550.18         28.0059
   550.32         27.9346
   550.46         27.8728
   550.60         27.8284
   550.74         27.8060
   550.88         27.8069
   551.02         27.8296
   551.16         27.8696
   551.30         27.9182
   551.44         27.9617
   551.58         27.9849
   551.72         27.9776
   551.86         27.9368
   552.00         27.8657
   552.14         27.7702
   552.28         27.6579
   552.42         27.5385
   552.56         27.4237
   552.70         27.3252
   552.84         27.2517
   552.98         27.2082
   553.12         27.1945
   553.26         27.2069
   553.40         27.2404
   553.54         27.2910
   553.68         27.3541
   553.82         27.4232
   553.96         27.4913
   554.10         27.5535
   554.24         27.6093
   554.38         27.6613
   554.52         27.7111
   554.66         27.7572
   554.80         27.7969
   554.94         27.8289
   555.08         27.8517
   555.22         27.8625
   555.36         27.8574
   555.50         27.8333
   555.64         27.7888
   555.78         27.7235
   555.92         27.6389
   556.06         27.5384
   556.20         27.4274
   556.34         27.3125
   556.48         27.2006
   556.62         27.0990
   556.76         27.0152
   556.90         26.9562
   557.04         26.9261
   557.18         26.9241
   557.32         26.9454
   557.46         26.9808
   557.60         27.0187
   557.74         27.0477
   557.88         27.0603
   558.02         27.0534
   558.16         27.0268
   558.30         26.9818
   558.44         26.9224
   558.58         26.8561
   558.72         26.7927
   558.86         26.7417
   559.00         26.7079
   559.14         26.6931
   559.28         26.6969
   559.42         26.7180
   559.56         26.7538
   559.70         26.8002
   559.84         26.8520
   559.98         26.9030
   560.12         26.9471
   560.26         26.9789
   560.40         26.9944
   560.54         26.9916
   560.68         26.9713
   560.82         26.9368
   560.96         26.8935
   561.10         26.8480
   561.24         26.8044
   561.38         26.7640
   561.52         26.7281
   561.66         26.6992
   561.80         26.6817
   561.94         26.6785
   562.08         26.6902
   562.22         26.7158
   562.36         26.7524
   562.50         26.7951
   562.64         26.8375
   562.78         26.8726
   562.92         26.8950
   563.06         26.9037
   563.20         26.9010
   563.34         26.8895
   563.48         26.8702
   563.62         26.8427
   563.76         26.8064
   563.90         26.7615
   564.04         26.7106
   564.18         26.6572
   564.32         26.6022
   564.46         26.5436
   564.60         26.4761
   564.74         26.3954
   564.88         26.2999
   565.02         26.1890
   565.16         26.0634
   565.30         25.9259
   565.44         25.7821
   565.58         25.6394
   565.72         25.5066
   565.86         25.3919
   566.00         25.3022
   566.14         25.2426
   566.28         25.2161
   566.42         25.2226
   566.56         25.2595
   566.70         25.3208
   566.84         25.3978
   566.98         25.4801
   567.12         25.5573
   567.26         25.6207
   567.40         25.6660
   567.54         25.6908
   567.68         25.6933
   567.82         25.6728
   567.96         25.6319
   568.10         25.5757
   568.24         25.5118
   568.38         25.4497
   568.52         25.3984
   568.66         25.3646
   568.80         25.3522
   568.94         25.3614
   569.08         25.3900
   569.22         25.4339
   569.36         25.4855
   569.50         25.5350
   569.64         25.5731
   569.78         25.5925
   569.92         25.5894
   570.06         25.5629
   570.20         25.5158
   570.34         25.4552
   570.48         25.3922
   570.62         25.3383
   570.76         25.3029
   570.90         25.2920
   571.04         25.3073
   571.18         25.3454
   571.32         25.4001
   571.46         25.4635
   571.60         25.5282
   571.74         25.5874
   571.88         25.6349
   572.02         25.6655
   572.16         25.6771
   572.30         25.6711
   572.44         25.6512
   572.58         25.6224
   572.72         25.5902
   572.86         25.5610
   573.00         25.5393
   573.14         25.5264
   573.28         25.5209
   573.42         25.5205
   573.56         25.5229
   573.70         25.5254
   573.84         25.5263
   573.98         25.5237
   574.12         25.5155
   574.26         25.4997
   574.40         25.4749
   574.54         25.4411
   574.68         25.3994
   574.82         25.3515
   574.96         25.2994
   575.10         25.2451
   575.24         25.1915
   575.38         25.1417
   575.52         25.0990
   575.66         25.0655
   575.80         25.0407
   575.94         25.0226
   576.08         25.0088
   576.22         24.9971
   576.36         24.9850
   576.50         24.9698
   576.64         24.9471
   576.78         24.9115
   576.92         24.8577
   577.06         24.7824
   577.20         24.6860
   577.34         24.5733
   577.48         24.4514
   577.62         24.3287
   577.76         24.2133
   577.90         24.1119
   578.04         24.0296
   578.18         23.9697
   578.32         23.9324
   578.46         23.9154
   578.60         23.9157
   578.74         23.9304
   578.88         23.9563
   579.02         23.9896
   579.16         24.0257
   579.30         24.0599
   579.44         24.0888
   579.58         24.1119
   579.72         24.1325
   579.86         24.1546
   580.00         24.1806
   580.14         24.2098
   580.28         24.2395
   580.42         24.2671
   580.56         24.2927
   580.70         24.3175
   580.84         24.3415
   580.98         24.3638
   581.12         24.3838
   581.26         24.4026
   581.40         24.4234
   581.54         24.4489
   581.68         24.4805
   581.82         24.5180
   581.96         24.5607
   582.10         24.6074
   582.24         24.6575
   582.38         24.7112
   582.52         24.7676
   582.66         24.8251
   582.80         24.8817
   582.94         24.9332
   583.08         24.9749
   583.22         25.0019
   583.36         25.0078
   583.50         24.9877
   583.64         24.9412
   583.78         24.8731
   583.92         24.7907
   584.06         24.7007
   584.20         24.6085
   584.34         24.5190
   584.48         24.4366
   584.62         24.3642
   584.76         24.3041
   584.90         24.2576
   585.04         24.2266
   585.18         24.2124
   585.32         24.2158
   585.46         24.2355
   585.60         24.2687
   585.74         24.3119
   585.88         24.3620
   586.02         24.4168
   586.16         24.4756
   586.30         24.5359
   586.44         24.5931
   586.58         24.6404
   586.72         24.6704
   586.86         24.6775
   587.00         24.6574
   587.14         24.6077
   587.28         24.5285
   587.42         24.4186
   587.56         24.2705
   587.70         24.0693
   587.84         23.8048
   587.98         23.4802
   588.12         23.1050
   588.26         22.6882
   588.40         22.2416
   588.54         21.7883
   588.68         21.3613
   588.82         20.9950
   588.96         20.7187
   589.10         20.5558
   589.24         20.5206
   589.38         20.6154
   589.52         20.8301
   589.66         21.1441
   589.80         21.5298
   589.94         21.9528
   590.08         22.3752
   590.22         22.7636
   590.36         23.0982
   590.50         23.3747
   590.64         23.5927
   590.78         23.7492
   590.92         23.8465
   591.06         23.8980
   591.20         23.9216
   591.34         23.9306
   591.48         23.9309
   591.62         23.9243
   591.76         23.9106
   591.90         23.8897
   592.04         23.8625
   592.18         23.8322
   592.32         23.8033
   592.46         23.7790
   592.60         23.7602
   592.74         23.7464
   592.88         23.7357
   593.02         23.7244
   593.16         23.7081
   593.30         23.6846
   593.44         23.6532
   593.58         23.6138
   593.72         23.5656
   593.86         23.5098
   594.00         23.4497
   594.14         23.3894
   594.28         23.3310
   594.42         23.2760
   594.56         23.2260
   594.70         23.1825
   594.84         23.1469
   594.98         23.1191
   595.12         23.0973
   595.26         23.0791
   595.40         23.0626
   595.54         23.0466
   595.68         23.0309
   595.82         23.0163
   595.96         23.0033
   596.10         22.9913
   596.24         22.9794
   596.38         22.9654
   596.52         22.9454
   596.66         22.9169
   596.80         22.8794
   596.94         22.8331
   597.08         22.7781
   597.22         22.7155
   597.36         22.6483
   597.50         22.5802
   597.64         22.5130
   597.78         22.4469
   597.92         22.3825
   598.06         22.3224
   598.20         22.2718
   598.34         22.2358
   598.48         22.2174
   598.62         22.2179
   598.76         22.2366
   598.90         22.2699
   599.04         22.3110
   599.18         22.3525
   599.32         22.3878
   599.46         22.4114
   599.60         22.4181
   599.74         22.4047
   599.88         22.3708
   600.02         22.3188
   600.16         22.2527
   600.30         22.1775
   600.44         22.0982
   600.58         22.0205
   600.72         21.9498
   600.86         21.8901
   601.00         21.8412
   601.14         21.8013
   601.28         21.7680
   601.42         21.7387
   601.56         21.7121
   601.70         21.6890
   601.84         21.6714
   601.98         21.6621
   602.12         21.6641
   602.26         21.6774
   602.40         21.6977
   602.54         21.7191
   602.68         21.7365
   602.82         21.7459
   602.96         21.7430
   603.10         21.7254
   603.24         21.6934
   603.38         21.6495
   603.52         21.5980
   603.66         21.5441
   603.80         21.4943
   603.94         21.4552
   604.08         21.4331
   604.22         21.4321
   604.36         21.4519
   604.50         21.4890
   604.64         21.5390
   604.78         21.5957
   604.92         21.6515
   605.06         21.6987
   605.20         21.7318
   605.34         21.7482
   605.48         21.7485
   605.62         21.7372
   605.76         21.7204
   605.90         21.7036
   606.04         21.6914
   606.18         21.6881
   606.32         21.6962
   606.46         21.7146
   606.60         21.7390
   606.74         21.7633
   606.88         21.7817
   607.02         21.7896
   607.16         21.7844
   607.30         21.7649
   607.44         21.7313
   607.58         21.6853
   607.72         21.6299
   607.86         21.5691
   608.00         21.5088
   608.14         21.4543
   608.28         21.4079
   608.42         21.3689
   608.56         21.3342
   608.70         21.3005
   608.84         21.2653
   608.98         21.2264
   609.12         21.1831
   609.26         21.1371
   609.40         21.0916
   609.54         21.0511
   609.68         21.0192
   609.82         20.9984
   609.96         20.9907
   610.10         20.9969
   610.24         21.0153
   610.38         21.0438
   610.52         21.0812
   610.66         21.1237
   610.80         21.1650
   610.94         21.1992
   611.08         21.2236
   611.22         21.2382
   611.36         21.2451
   611.50         21.2477
   611.64         21.2495
   611.78         21.2532
   611.92         21.2595
   612.06         21.2674
   612.20         21.2739
   612.34         21.2742
   612.48         21.2637
   612.62         21.2391
   612.76         21.1975
   612.90         21.1361
   613.04         21.0560
   613.18         20.9606
   613.32         20.8533
   613.46         20.7393
   613.60         20.6256
   613.74         20.5199
   613.88         20.4296
   614.02         20.3607
   614.16         20.3158
   614.30         20.2919
   614.44         20.2826
   614.58         20.2821
   614.72         20.2859
   614.86         20.2901
   615.00         20.2913
   615.14         20.2883
   615.28         20.2815
   615.42         20.2708
   615.56         20.2558
   615.70         20.2358
   615.84         20.2087
   615.98         20.1733
   616.12         20.1297
   616.26         20.0797
   616.40         20.0262
   616.54         19.9728
   616.68         19.9228
   616.82         19.8791
   616.96         19.8460
   617.10         19.8280
   617.24         19.8287
   617.38         19.8491
   617.52         19.8873
   617.66         19.9396
   617.80         20.0008
   617.94         20.0652
   618.08         20.1285
   618.22         20.1887
   618.36         20.2445
   618.50         20.2955
   618.64         20.3414
   618.78         20.3815
   618.92         20.4157
   619.06         20.4443
   619.20         20.4686
   619.34         20.4883
   619.48         20.5019
   619.62         20.5086
   619.76         20.5092
   619.90         20.5056
   620.04         20.4991
   620.18         20.4882
   620.32         20.4721
   620.46         20.4521
   620.60         20.4320
   620.74         20.4144
   620.88         20.4006
   621.02         20.3905
   621.16         20.3839
   621.30         20.3819
   621.44         20.3851
   621.58         20.3925
   621.72         20.4003
   621.86         20.4023
   622.00         20.3928
   622.14         20.3690
   622.28         20.3312
   622.42         20.2799
   622.56         20.2143
   622.70         20.1344
   622.84         20.0437
   622.98         19.9491
   623.12         19.8587
   623.26         19.7782
   623.40         19.7104
   623.54         19.6563
   623.68         19.6171
   623.82         19.5930
   623.96         19.5812
   624.10         19.5773
   624.24         19.5770
   624.38         19.5780
   624.52         19.5813
   624.66         19.5910
   624.80         19.6107
   624.94         19.6392
   625.08         19.6703
   625.22         19.6952
   625.36         19.7079
   625.50         19.7080
   625.64         19.6976
   625.78         19.6783
   625.92         19.6512
   626.06         19.6189
   626.20         19.5860
   626.34         19.5574
   626.48         19.5343
   626.62         19.5130
   626.76         19.4877
   626.90         19.4524
   627.04         19.4025
   627.18         19.3337
   627.32         19.2430
   627.46         19.1313
   627.60         19.0042
   627.74         18.8731
   627.88         18.7532
   628.02         18.6605
   628.16         18.6061
   628.30         18.5941
   628.44         18.6237
   628.58         18.6909
   628.72         18.7880
   628.86         18.9041
   629.00         19.0269
   629.14         19.1436
   629.28         19.2429
   629.42         19.3184
   629.56         19.3692
   629.70         19.3975
   629.84         19.4082
   629.98         19.4090
   630.12         19.4082
   630.26         19.4112
   630.40         19.4178
   630.54         19.4241
   630.68         19.4264
   630.82         19.4238
   630.96         19.4176
   631.10         19.4098
   631.24         19.4028
   631.38         19.3999
   631.52         19.4053
   631.66         19.4223
   631.80         19.4521
   631.94         19.4938
   632.08         19.5441
   632.22         19.5981
   632.36         19.6500
   632.50         19.6944
   632.64         19.7260
   632.78         19.7402
   632.92         19.7333
   633.06         19.7046
   633.20         19.6566
   633.34         19.5933
   633.48         19.5184
   633.62         19.4350
   633.76         19.3466
   633.90         19.2594
   634.04         19.1790
   634.18         19.1093
   634.32         19.0517
   634.46         19.0067
   634.60         18.9747
   634.74         18.9559
   634.88         18.9502
   635.02         18.9565
   635.16         18.9736
   635.30         18.9992
   635.44         19.0286
   635.58         19.0543
   635.72         19.0674
   635.86         19.0611
   636.00         19.0321
   636.14         18.9828
   636.28         18.9190
   636.42         18.8473
   636.56         18.7742
   636.70         18.7044
   636.84         18.6412
   636.98         18.5876
   637.12         18.5474
   637.26         18.5245
   637.40         18.5212
   637.54         18.5376
   637.68         18.5726
   637.82         18.6244
   637.96         18.6895
   638.10         18.7635
   638.24         18.8424
   638.38         18.9250
   638.52         19.0105
   638.66         19.0959
   638.80         19.1760
   638.94         19.2443
   639.08         19.2958
   639.22         19.3285
   639.36         19.3424
   639.50         19.3379
   639.64         19.3174
   639.78         19.2836
   639.92         19.2388
   640.06         19.1836
   640.20         19.1194
   640.34         19.0493
   640.48         18.9765
   640.62         18.9040
   640.76         18.8358
   640.90         18.7763
   641.04         18.7292
   641.18         18.6960
   641.32         18.6771
   641.46         18.6733
   641.60         18.6854
   641.74         18.7104
   641.88         18.7422
   642.02         18.7735
   642.16         18.7981
   642.30         18.8127
   642.44         18.8144
   642.58         18.8007
   642.72         18.7714
   642.86         18.7291
   643.00         18.6782
   643.14         18.6244
   643.28         18.5739
   643.42         18.5319
   643.56         18.5002
   643.70         18.4771
   643.84         18.4591
   643.98         18.4425
   644.12         18.4240
   644.26         18.3988
   644.40         18.3612
   644.54         18.3087
   644.68         18.2434
   644.82         18.1694
   644.96         18.0910
   645.10         18.0132
   645.24         17.9434
   645.38         17.8894
   645.52         17.8574
   645.66         17.8512
   645.80         17.8711
   645.94         17.9146
   646.08         17.9772
   646.22         18.0526
   646.36         18.1340
   646.50         18.2165
   646.64         18.2969
   646.78         18.3714
   646.92         18.4356
   647.06         18.4868
   647.20         18.5259
   647.34         18.5547
   647.48         18.5744
   647.62         18.5847
   647.76         18.5834
   647.90         18.5658
   648.04         18.5267
   648.18         18.4615
   648.32         18.3692
   648.46         18.2537
   648.60         18.1233
   648.74         17.9888
   648.88         17.8620
   649.02         17.7560
   649.16         17.6825
   649.30         17.6493
   649.44         17.6598
   649.58         17.7147
   649.72         17.8118
   649.86         17.9442
   650.00         18.0990
   650.14         18.2594
   650.28         18.4070
   650.42         18.5261
   650.56         18.6085
   650.70         18.6532
   650.84         18.6648
   650.98         18.6519
   651.12         18.6247
   651.26         18.5925
   651.40         18.5620
   651.54         18.5384
   651.68         18.5253
   651.82         18.5235
   651.96         18.5325
   652.10         18.5501
   652.24         18.5732
   652.38         18.5960
   652.52         18.6121
   652.66         18.6167
   652.80         18.6096
   652.94         18.5942
   653.08         18.5760
   653.22         18.5590
   653.36         18.5437
   653.50         18.5264
   653.64         18.5008
   653.78         18.4593
   653.92         18.3945
   654.06         18.2997
   654.20         18.1700
   654.34         18.0023
   654.48         17.7923
   654.62         17.5334
   654.76         17.2167
   654.90         16.8338
   655.04         16.3835
   655.18         15.8788
   655.32         15.3461
   655.46         14.8199
   655.60         14.3362
   655.74         13.9283
   655.88         13.6253
   656.02         13.4492
   656.16         13.4137
   656.30         13.5223
   656.44         13.7679
   656.58         14.1333
   656.72         14.5924
   656.86         15.1122
   657.00         15.6551
   657.14         16.1823
   657.28         16.6587
   657.42         17.0597
   657.56         17.3755
   657.70         17.6105
   657.84         17.7754
   657.98         17.8809
   658.12         17.9354
   658.26         17.9475
   658.40         17.9275
   658.54         17.8876
   658.68         17.8404
   658.82         17.7968
   658.96         17.7642
   659.10         17.7460
   659.24         17.7426
   659.38         17.7522
   659.52         17.7719
   659.66         17.7981
   659.80         17.8268
   659.94         17.8546
   660.08         17.8787
   660.22         17.8964
   660.36         17.9058
   660.50         17.9071
   660.64         17.9020
   660.78         17.8949
   660.92         17.8918
   661.06         17.8973
   661.20         17.9122
   661.34         17.9352
   661.48         17.9645
   661.62         17.9983
   661.76         18.0360
   661.90         18.0769
   662.04         18.1190
   662.18         18.1590
   662.32         18.1931
   662.46         18.2177
   662.60         18.2296
   662.74         18.2268
   662.88         18.2100
   663.02         18.1823
   663.16         18.1480
   663.30         18.1094
   663.44         18.0669
   663.58         18.0197
   663.72         17.9662
   663.86         17.9071
   664.00         17.8459
   664.14         17.7864
   664.28         17.7310
   664.42         17.6810
   664.56         17.6369
   664.70         17.5999
   664.84         17.5717
   664.98         17.5530
   665.12         17.5437
   665.26         17.5432
   665.40         17.5510
   665.54         17.5658
   665.68         17.5843
   665.82         17.6021
   665.96         17.6153
   666.10         17.6220
   666.24         17.6216
   666.38         17.6136
   666.52         17.5974
   666.66         17.5726
   666.80         17.5400
   666.94         17.5017
   667.08         17.4608
   667.22         17.4204
   667.36         17.3837
   667.50         17.3534
   667.64         17.3318
   667.78         17.3203
   667.92         17.3183
   668.06         17.3216
   668.20         17.3243
   668.34         17.3218
   668.48         17.3122
   668.62         17.2962
   668.76         17.2755
   668.90         17.2517
   669.04         17.2261
   669.18         17.2006
   669.32         17.1787
   669.46         17.1642
   669.60         17.1595
   669.74         17.1650
   669.88         17.1801
   670.02         17.2028
   670.16         17.2301
   670.30         17.2584
   670.44         17.2835
   670.58         17.3010
   670.72         17.3083
   670.86         17.3052
   671.00         17.2941
   671.14         17.2777
   671.28         17.2583
   671.42         17.2375
   671.56         17.2159
   671.70         17.1944
   671.84         17.1740
   671.98         17.1574
   672.12         17.1481
   672.26         17.1483
   672.40         17.1594
   672.54         17.1813
   672.68         17.2117
   672.82         17.2465
   672.96         17.2807
   673.10         17.3091
   673.24         17.3279
   673.38         17.3355
   673.52         17.3310
   673.66         17.3147
   673.80         17.2869
   673.94         17.2494
   674.08         17.2047
   674.22         17.1554
   674.36         17.1046
   674.50         17.0568
   674.64         17.0169
   674.78         16.9878
   674.92         16.9700
   675.06         16.9621
   675.20         16.9624
   675.34         16.9686
   675.48         16.9789
   675.62         16.9927
   675.76         17.0089
   675.90         17.0266
   676.04         17.0451
   676.18         17.0628
   676.32         17.0779
   676.46         17.0887
   676.60         17.0936
   676.74         17.0910
   676.88         17.0797
   677.02         17.0593
   677.16         17.0307
   677.30         16.9957
   677.44         16.9572
   677.58         16.9186
   677.72         16.8831
   677.86         16.8526
   678.00         16.8273
   678.14         16.8065
   678.28         16.7881
   678.42         16.7708
   678.56         16.7541
   678.70         16.7380
   678.84         16.7231
   678.98         16.7101
   679.12         16.7007
   679.26         16.6971
   679.40         16.7018
   679.54         16.7173
   679.68         16.7450
   679.82         16.7843
   679.96         16.8317
   680.10         16.8814
   680.24         16.9271
   680.38         16.9618
   680.52         16.9798
   680.66         16.9778
   680.80         16.9565
   680.94         16.9200
   681.08         16.8743
   681.22         16.8251
   681.36         16.7767
   681.50         16.7324
   681.64         16.6950
   681.78         16.6673
   681.92         16.6511
   682.06         16.6455
   682.20         16.6464
   682.34         16.6480
   682.48         16.6447
   682.62         16.6340
   682.76         16.6157
   682.90         16.5903
   683.04         16.5586
   683.18         16.5218
   683.32         16.4822
   683.46         16.4413
   683.60         16.3989
   683.74         16.3554
   683.88         16.3128
   684.02         16.2745
   684.16         16.2442
   684.30         16.2243
   684.44         16.2154
   684.58         16.2146
   684.72         16.2172
   684.86         16.2200
   685.00         16.2214
   685.14         16.2199
   685.28         16.2128
   685.42         16.1944
   685.56         16.1545
   685.70         16.0785
   685.84         15.9521
   685.98         15.7657
   686.12         15.5172
   686.26         15.2132
   686.40         14.8681
   686.54         14.5020
   686.68         14.1373
   686.82         13.7977
   686.96         13.5073
   687.10         13.2875
   687.24         13.1526
   687.38         13.1081
   687.52         13.1504
   687.66         13.2654
   687.80         13.4314
   687.94         13.6241
   688.08         13.8191
   688.22         13.9945
   688.36         14.1352
   688.50         14.2373
   688.64         14.3061
   688.78         14.3502
   688.92         14.3773
   689.06         14.3953
   689.20         14.4104
   689.34         14.4272
   689.48         14.4491
   689.62         14.4779
   689.76         14.5120
   689.90         14.5485
   690.04         14.5858
   690.18         14.6233
   690.32         14.6624
   690.46         14.7067
   690.60         14.7595
   690.74         14.8213
   690.88         14.8908
   691.02         14.9654
   691.16         15.0413
   691.30         15.1141
   691.44         15.1795
   691.58         15.2356
   691.72         15.2823
   691.86         15.3201
   692.00         15.3505
   692.14         15.3761
   692.28         15.4000
   692.42         15.4248
   692.56         15.4525
   692.70         15.4837
   692.84         15.5179
   692.98         15.5548
   693.12         15.5934
   693.26         15.6314
   693.40         15.6666
   693.54         15.6972
   693.68         15.7216
   693.82         15.7398
   693.96         15.7541
   694.10         15.7671
   694.24         15.7799
   694.38         15.7925
   694.52         15.8043
   694.66         15.8149
   694.80         15.8234
   694.94         15.8291
   695.08         15.8320
   695.22         15.8331
   695.36         15.8338
   695.50         15.8357
   695.64         15.8403
   695.78         15.8493
   695.92         15.8637
   696.06         15.8838
   696.20         15.9089
   696.34         15.9368
   696.48         15.9648
   696.62         15.9889
   696.76         16.0044
   696.90         16.0079
   697.04         15.9989
   697.18         15.9788
   697.32         15.9505
   697.46         15.9179
   697.60         15.8848
   697.74         15.8539
   697.88         15.8264
   698.02         15.8014
   698.16         15.7775
   698.30         15.7540
   698.44         15.7297
   698.58         15.7028
   698.72         15.6705
   698.86         15.6304
   699.00         15.5816
   699.14         15.5259
   699.28         15.4678
   699.42         15.4137
   699.56         15.3713
   699.70         15.3466
   699.84         15.3414
   699.98         15.3551
   700.12         15.3856
   700.26         15.4302
   700.40         15.4861
   700.54         15.5481
   700.68         15.6095
   700.82         15.6631
   700.96         15.7036
   701.10         15.7285
   701.24         15.7373
   701.38         15.7304
   701.52         15.7092
   701.66         15.6774
   701.80         15.6407
   701.94         15.6040
   702.08         15.5700
   702.22         15.5387
   702.36         15.5092
   702.50         15.4811
   702.64         15.4553
   702.78         15.4315
   702.92         15.4095
   703.06         15.3882
   703.20         15.3664
   703.34         15.3446
   703.48         15.3242
   703.62         15.3071
   703.76         15.2956
   703.90         15.2910
   704.04         15.2932
   704.18         15.3019
   704.32         15.3170
   704.46         15.3376
   704.60         15.3611
   704.74         15.3852
   704.88         15.4089
   705.02         15.4316
   705.16         15.4528
   705.30         15.4722
   705.44         15.4900
   705.58         15.5076
   705.72         15.5256
   705.86         15.5430
   706.00         15.5588
   706.14         15.5723
   706.28         15.5835
   706.42         15.5931
   706.56         15.6008
   706.70         15.6053
   706.84         15.6056
   706.98         15.6006
   707.12         15.5910
   707.26         15.5780
   707.40         15.5616
   707.54         15.5396
   707.68         15.5100
   707.82         15.4730
   707.96         15.4303
   708.10         15.3842
   708.24         15.3372
   708.38         15.2926
   708.52         15.2547
   708.66         15.2284
   708.80         15.2176
   708.94         15.2233
   709.08         15.2448
   709.22         15.2809
   709.36         15.3287
   709.50         15.3834
   709.64         15.4385
   709.78         15.4865
   709.92         15.5192
   710.06         15.5291
   710.20         15.5123
   710.34         15.4697
   710.48         15.4053
   710.62         15.3249
   710.76         15.2364
   710.90         15.1499
   711.04         15.0753
   711.18         15.0203
   711.32         14.9894
   711.46         14.9844
   711.60         15.0051
   711.74         15.0504
   711.88         15.1168
   712.02         15.1971
   712.16         15.2806
   712.30         15.3565
   712.44         15.4162
   712.58         15.4552
   712.72         15.4725
   712.86         15.4696
   713.00         15.4493
   713.14         15.4151
   713.28         15.3725
   713.42         15.3276
   713.56         15.2854
   713.70         15.2484
   713.84         15.2177
   713.98         15.1945
   714.12         15.1801
   714.26         15.1742
   714.40         15.1749
   714.54         15.1801
   714.68         15.1866
   714.82         15.1917
   714.96         15.1943
   715.10         15.1935
   715.24         15.1894
   715.38         15.1814
   715.52         15.1685
   715.66         15.1508
   715.80         15.1286
   715.94         15.1020
   716.08         15.0704
   716.22         15.0328
   716.36         14.9879
   716.50         14.9340
   716.64         14.8695
   716.78         14.7941
   716.92         14.7090
   717.06         14.6172
   717.20         14.5212
   717.34         14.4213
   717.48         14.3170
   717.62         14.2091
   717.76         14.1008
   717.90         13.9966
   718.04         13.8994
   718.18         13.8115
   718.32         13.7367
   718.46         13.6799
   718.60         13.6454
   718.74         13.6332
   718.88         13.6396
   719.02         13.6592
   719.16         13.6875
   719.30         13.7205
   719.44         13.7546
   719.58         13.7872
   719.72         13.8173
   719.86         13.8448
   720.00         13.8724
   720.14         13.9056
   720.28         13.9527
   720.42         14.0205
   720.56         14.1101
   720.70         14.2192
   720.84         14.3443
   720.98         14.4791
   721.12         14.6125
   721.26         14.7317
   721.40         14.8264
   721.54         14.8914
   721.68         14.9259
   721.82         14.9304
   721.96         14.9059
   722.10         14.8538
   722.24         14.7781
   722.38         14.6849
   722.52         14.5813
   722.66         14.4748
   722.80         14.3728
   722.94         14.2818
   723.08         14.2051
   723.22         14.1429
   723.36         14.0953
   723.50         14.0608
   723.64         14.0386
   723.78         14.0301
   723.92         14.0367
   724.06         14.0565
   724.20         14.0837
   724.34         14.1127
   724.48         14.1399
   724.62         14.1635
   724.76         14.1824
   724.90         14.1977
   725.04         14.2107
   725.18         14.2209
   725.32         14.2257
   725.46         14.2223
   725.60         14.2098
   725.74         14.1878
   725.88         14.1576
   726.02         14.1227
   726.16         14.0874
   726.30         14.0543
   726.44         14.0223
   726.58         13.9876
   726.72         13.9479
   726.86         13.9044
   727.00         13.8601
   727.14         13.8182
   727.28         13.7809
   727.42         13.7497
   727.56         13.7243
   727.70         13.7026
   727.84         13.6816
   727.98         13.6596
   728.12         13.6373
   728.26         13.6169
   728.40         13.6001
   728.54         13.5887
   728.68         13.5846
   728.82         13.5881
   728.96         13.5984
   729.10         13.6150
   729.24         13.6376
   729.38         13.6653
   729.52         13.6951
   729.66         13.7224
   729.80         13.7427
   729.94         13.7533
   730.08         13.7548
   730.22         13.7507
   730.36         13.7466
   730.50         13.7475
   730.64         13.7565
   730.78         13.7743
   730.92         13.8004
   731.06         13.8337
   731.20         13.8722
   731.34         13.9117
   731.48         13.9465
   731.62         13.9711
   731.76         13.9804
   731.90         13.9724
   732.04         13.9476
   732.18         13.9104
   732.32         13.8692
   732.46         13.8345
   732.60         13.8151
   732.74         13.8152
   732.88         13.8336
   733.02         13.8652
   733.16         13.9050
   733.30         13.9489
   733.44         13.9946
   733.58         14.0407
   733.72         14.0861
   733.86         14.1284
   734.00         14.1646
   734.14         14.1920
   734.28         14.2093
   734.42         14.2172
   734.56         14.2181
   734.70         14.2144
   734.84         14.2074
   734.98         14.1972
   735.12         14.1853
   735.26         14.1756
   735.40         14.1710
   735.54         14.1720
   735.68         14.1781
   735.82         14.1887
   735.96         14.2017
   736.10         14.2140
   736.24         14.2233
   736.38         14.2272
   736.52         14.2227
   736.66         14.2083
   736.80         14.1840
   736.94         14.1509
   737.08         14.1091
   737.22         14.0576
   737.36         13.9956
   737.50         13.9234
   737.64         13.8430
   737.78         13.7575
   737.92         13.6686
   738.06         13.5764
   738.20         13.4828
   738.34         13.3930
   738.48         13.3121
   738.62         13.2422
   738.76         13.1844
   738.90         13.1396
   739.04         13.1088
   739.18         13.0932
   739.32         13.0937
   739.46         13.1091
   739.60         13.1358
   739.74         13.1670
   739.88         13.1956
   740.02         13.2154
   740.16         13.2220
   740.30         13.2143
   740.44         13.1942
   740.58         13.1643
   740.72         13.1254
   740.86         13.0775
   741.00         13.0211
   741.14         12.9576
   741.28         12.8907
   741.42         12.8260
   741.56         12.7692
   741.70         12.7241
   741.84         12.6920
   741.98         12.6720
   742.12         12.6614
   742.26         12.6562
   742.40         12.6523
   742.54         12.6477
   742.68         12.6426
   742.82         12.6391
   742.96         12.6391
   743.10         12.6426
   743.24         12.6477
   743.38         12.6523
   743.52         12.6562
   743.66         12.6614
   743.80         12.6720
   743.94         12.6920
   744.08         12.7241
   744.22         12.7692
