# File BD+61220
# Wavelength [nm]    Normalized Amplitude
   349.70         156.3678
   349.84         156.2525
   349.98         156.0488
   350.12         155.7995
   350.26         155.5517
   350.40         155.4156
   350.54         155.4110
   350.68         155.3976
   350.82         155.2655
   350.96         155.0733
   351.10         154.9827
   351.24         155.0733
   351.38         155.2655
   351.52         155.3976
   351.66         155.4110
   351.80         155.4156
   351.94         155.5517
   352.08         155.7995
   352.22         156.0488
   352.36         156.2525
   352.50         156.3678
   352.64         156.3204
   352.78         156.0556
   352.92         155.6402
   353.06         155.2325
   353.20         154.8695
   353.34         154.5070
   353.48         154.1632
   353.62         153.9008
   353.76         153.7774
   353.90         153.7540
   354.04         153.7002
   354.18         153.5614
   354.32         153.4007
   354.46         153.2259
   354.60         152.9014
   354.74         152.2245
   354.88         151.0908
   355.02         149.6396
   355.16         148.0916
   355.30         146.6104
   355.44         145.4068
   355.58         144.6972
   355.72         144.5687
   355.86         144.9297
   356.00         145.6955
   356.14         146.8599
   356.28         148.3677
   356.42         150.0509
   356.56         151.6432
   356.70         152.9105
   356.84         153.7734
   356.98         154.2009
   357.12         154.1563
   357.26         153.7104
   357.40         153.0482
   357.54         152.4042
   357.68         151.9877
   357.82         151.8592
   357.96         152.0146
   358.10         152.4873
   358.24         153.2487
   358.38         154.1986
   358.52         155.2258
   358.66         156.2728
   358.80         157.1917
   358.94         157.7666
   359.08         157.9376
   359.22         157.7696
   359.36         157.3502
   359.50         156.8044
   359.64         156.2988
   359.78         155.9629
   359.92         155.8573
   360.06         155.9508
   360.20         156.1214
   360.34         156.2170
   360.48         156.0889
   360.62         155.6181
   360.76         154.7427
   360.90         153.4540
   361.04         151.8279
   361.18         150.0515
   361.32         148.3574
   361.46         146.9196
   361.60         145.9506
   361.74         145.6764
   361.88         146.1149
   362.02         147.1373
   362.16         148.6361
   362.30         150.5044
   362.44         152.4973
   362.58         154.3070
   362.72         155.7151
   362.86         156.5791
   363.00         156.7985
   363.14         156.3479
   363.28         155.2951
   363.42         153.7954
   363.56         152.1253
   363.70         150.6219
   363.84         149.5188
   363.98         148.8584
   364.12         148.5813
   364.26         148.6744
   364.40         149.1084
   364.54         149.7846
   364.68         150.6047
   364.82         151.4515
   364.96         152.1913
   365.10         152.7351
   365.24         153.1057
   365.38         153.3668
   365.52         153.4824
   365.66         153.3782
   365.80         153.1086
   365.94         152.8197
   366.08         152.6290
   366.22         152.6085
   366.36         152.7325
   366.50         152.8754
   366.64         152.9340
   366.78         152.9240
   366.92         152.9358
   367.06         153.0168
   367.20         153.1486
   367.34         153.3005
   367.48         153.4772
   367.62         153.7441
   367.76         154.1734
   367.90         154.7712
   368.04         155.5118
   368.18         156.3934
   368.32         157.4220
   368.46         158.5550
   368.60         159.6901
   368.74         160.7444
   368.88         161.6677
   369.02         162.4005
   369.16         162.9216
   369.30         163.2957
   369.44         163.6132
   369.58         163.9035
   369.72         164.1675
   369.86         164.4269
   370.00         164.7244
   370.14         165.1533
   370.28         165.8536
   370.42         166.9364
   370.56         168.4250
   370.70         170.2440
   370.84         172.2126
   370.98         174.1339
   371.12         175.9294
   371.26         177.6155
   371.40         179.2066
   371.54         180.6928
   371.68         182.0713
   371.82         183.3345
   371.96         184.4151
   372.10         185.1602
   372.24         185.4058
   372.38         185.1232
   372.52         184.4478
   372.66         183.6172
   372.80         182.9235
   372.94         182.6611
   373.08         183.0605
   373.22         184.2511
   373.36         186.2557
   373.50         188.9565
   373.64         192.0832
   373.78         195.2651
   373.92         198.0824
   374.06         200.1780
   374.20         201.3613
   374.34         201.5876
   374.48         200.9077
   374.62         199.4951
   374.76         197.6981
   374.90         196.0250
   375.04         195.0616
   375.18         195.2471
   375.32         196.6997
   375.46         199.2413
   375.60         202.4768
   375.74         205.8698
   375.88         208.8316
   376.02         210.8515
   376.16         211.6303
   376.30         211.1807
   376.44         209.8397
   376.58         208.1348
   376.72         206.6267
   376.86         205.8068
   377.00         205.9962
   377.14         207.3176
   377.28         209.7774
   377.42         213.2831
   377.56         217.5889
   377.70         222.2945
   377.84         226.8962
   377.98         230.9442
   378.12         234.1200
   378.26         236.2003
   378.40         237.0188
   378.54         236.4403
   378.68         234.4468
   378.82         231.2264
   378.96         227.1466
   379.10         222.6820
   379.24         218.3423
   379.38         214.5933
   379.52         211.7927
   379.66         210.1648
   379.80         209.8066
   379.94         210.7150
   380.08         212.8092
   380.22         215.9060
   380.36         219.7021
   380.50         223.8181
   380.64         227.8386
   380.78         231.3265
   380.92         233.9450
   381.06         235.5555
   381.20         236.2150
   381.34         236.1592
   381.48         235.6938
   381.62         235.0320
   381.76         234.2291
   381.90         233.1898
   382.04         231.7138
   382.18         229.5741
   382.32         226.5801
   382.46         222.6512
   382.60         217.8913
   382.74         212.5817
   382.88         207.1127
   383.02         201.9490
   383.16         197.5778
   383.30         194.4363
   383.44         192.8677
   383.58         193.0757
   383.72         195.0728
   383.86         198.6681
   384.00         203.5039
   384.14         209.0898
   384.28         214.8560
   384.42         220.2292
   384.56         224.7305
   384.70         228.0816
   384.84         230.2263
   384.98         231.2797
   385.12         231.5094
   385.26         231.2630
   385.40         230.8344
   385.54         230.4039
   385.68         230.0252
   385.82         229.6714
   385.96         229.3180
   386.10         228.9297
   386.24         228.4294
   386.38         227.7236
   386.52         226.7463
   386.66         225.4924
   386.80         224.0052
   386.94         222.3560
   387.08         220.6309
   387.22         218.9032
   387.36         217.1767
   387.50         215.3403
   387.64         213.1934
   387.78         210.5675
   387.92         207.4169
   388.06         203.8139
   388.20         199.9320
   388.34         196.0338
   388.48         192.4817
   388.62         189.6761
   388.76         187.9483
   388.90         187.5447
   389.04         188.6301
   389.18         191.2886
   389.32         195.4469
   389.46         200.7813
   389.60         206.7881
   389.74         212.9143
   389.88         218.6250
   390.02         223.4640
   390.16         227.1250
   390.30         229.4905
   390.44         230.6356
   390.58         230.7562
   390.72         230.0784
   390.86         228.8426
   391.00         227.2984
   391.14         225.6619
   391.28         224.0773
   391.42         222.6384
   391.56         221.4247
   391.70         220.4744
   391.84         219.7500
   391.98         219.1209
   392.12         218.3979
   392.26         217.4299
   392.40         216.1631
   392.54         214.6530
   392.68         213.0509
   392.82         211.5504
   392.96         210.3150
   393.10         209.4574
   393.24         209.0687
   393.38         209.2204
   393.52         209.9367
   393.66         211.1888
   393.80         212.9022
   393.94         214.9407
   394.08         217.1088
   394.22         219.1803
   394.36         220.9376
   394.50         222.2141
   394.64         222.9187
   394.78         223.0571
   394.92         222.7250
   395.06         222.0518
   395.20         221.1219
   395.34         219.8999
   395.48         218.2093
   395.62         215.8032
   395.76         212.4954
   395.90         208.2710
   396.04         203.3061
   396.18         197.9337
   396.32         192.5800
   396.46         187.6759
   396.60         183.6074
   396.74         180.7123
   396.88         179.2307
   397.02         179.2597
   397.16         180.7531
   397.30         183.5371
   397.44         187.3304
   397.58         191.7346
   397.72         196.2674
   397.86         200.4654
   398.00         203.9694
   398.14         206.5799
   398.28         208.3007
   398.42         209.3066
   398.56         209.8476
   398.70         210.1549
   398.84         210.3822
   398.98         210.5830
   399.12         210.7217
   399.26         210.7188
   399.40         210.4974
   399.54         210.0020
   399.68         209.2152
   399.82         208.1643
   399.96         206.9137
   400.10         205.5525
   400.24         204.1663
   400.38         202.8409
   400.52         201.6723
   400.66         200.7425
   400.80         200.1155
   400.94         199.8229
   401.08         199.8157
   401.22         199.9684
   401.36         200.1222
   401.50         200.1200
   401.64         199.8456
   401.78         199.2497
   401.92         198.3556
   402.06         197.2548
   402.20         196.0874
   402.34         195.0166
   402.48         194.1858
   402.62         193.6946
   402.76         193.5935
   402.90         193.8696
   403.04         194.4715
   403.18         195.3327
   403.32         196.3624
   403.46         197.4475
   403.60         198.4594
   403.74         199.2829
   403.88         199.8514
   404.02         200.1523
   404.16         200.2239
   404.30         200.1324
   404.44         199.9427
   404.58         199.7110
   404.72         199.4703
   404.86         199.2201
   405.00         198.9375
   405.14         198.5975
   405.28         198.1884
   405.42         197.6951
   405.56         197.0943
   405.70         196.3837
   405.84         195.5722
   405.98         194.6709
   406.12         193.7041
   406.26         192.7062
   406.40         191.7100
   406.54         190.7428
   406.68         189.8362
   406.82         189.0364
   406.96         188.3921
   407.10         187.9454
   407.24         187.7024
   407.38         187.6161
   407.52         187.6301
   407.66         187.7154
   407.80         187.8504
   407.94         188.0040
   408.08         188.1457
   408.22         188.2386
   408.36         188.2139
   408.50         187.9527
   408.64         187.2965
   408.78         186.0599
   408.92         184.0584
   409.06         181.2034
   409.20         177.5746
   409.34         173.3915
   409.48         168.9618
   409.62         164.6482
   409.76         160.8298
   409.90         157.8391
   410.04         155.9360
   410.18         155.2990
   410.32         155.9796
   410.46         157.8665
   410.60         160.7042
   410.74         164.1417
   410.88         167.7815
   411.02         171.2398
   411.16         174.2080
   411.30         176.4943
   411.44         178.0363
   411.58         178.9000
   411.72         179.2621
   411.86         179.3288
   412.00         179.2605
   412.14         179.1661
   412.28         179.1226
   412.42         179.1773
   412.56         179.3409
   412.70         179.5962
   412.84         179.8978
   412.98         180.1667
   413.12         180.3145
   413.26         180.2917
   413.40         180.1056
   413.54         179.8000
   413.68         179.4349
   413.82         179.0789
   413.96         178.7918
   414.10         178.6099
   414.24         178.5561
   414.38         178.6509
   414.52         178.9106
   414.66         179.3349
   414.80         179.8961
   414.94         180.5462
   415.08         181.2289
   415.22         181.8839
   415.36         182.4433
   415.50         182.8360
   415.64         183.0115
   415.78         182.9652
   415.92         182.7323
   416.06         182.3556
   416.20         181.8743
   416.34         181.3293
   416.48         180.7468
   416.62         180.1241
   416.76         179.4451
   416.90         178.7008
   417.04         177.9004
   417.18         177.0804
   417.32         176.2884
   417.46         175.5615
   417.60         174.9255
   417.74         174.3980
   417.88         173.9778
   418.02         173.6414
   418.16         173.3748
   418.30         173.1989
   418.44         173.1491
   418.58         173.2559
   418.72         173.5350
   418.86         173.9705
   419.00         174.5145
   419.14         175.1051
   419.28         175.6832
   419.42         176.1993
   419.56         176.6106
   419.70         176.8842
   419.84         176.9976
   419.98         176.9208
   420.12         176.6240
   420.26         176.1095
   420.40         175.4178
   420.54         174.6028
   420.68         173.7202
   420.82         172.8349
   420.96         172.0061
   421.10         171.2585
   421.24         170.5805
   421.38         169.9465
   421.52         169.3378
   421.66         168.7482
   421.80         168.1742
   421.94         167.6115
   422.08         167.0574
   422.22         166.5169
   422.36         166.0111
   422.50         165.5720
   422.64         165.2370
   422.78         165.0465
   422.92         165.0280
   423.06         165.1887
   423.20         165.5168
   423.34         165.9880
   423.48         166.5719
   423.62         167.2371
   423.76         167.9369
   423.90         168.6068
   424.04         169.1964
   424.18         169.6800
   424.32         170.0306
   424.46         170.2139
   424.60         170.2124
   424.74         170.0253
   424.88         169.6750
   425.02         169.2078
   425.16         168.6724
   425.30         168.1095
   425.44         167.5404
   425.58         166.9740
   425.72         166.4231
   425.86         165.8884
   426.00         165.3576
   426.14         164.8357
   426.28         164.3519
   426.42         163.9408
   426.56         163.6349
   426.70         163.4619
   426.84         163.4318
   426.98         163.5261
   427.12         163.7155
   427.26         163.9795
   427.40         164.3023
   427.54         164.6753
   427.68         165.0905
   427.82         165.5275
   427.96         165.9484
   428.10         166.3126
   428.24         166.6019
   428.38         166.8133
   428.52         166.9447
   428.66         167.0124
   428.80         167.0499
   428.94         167.0799
   429.08         167.0949
   429.22         167.0659
   429.36         166.9656
   429.50         166.7857
   429.64         166.5404
   429.78         166.2604
   429.92         165.9775
   430.06         165.7128
   430.20         165.4691
   430.34         165.2265
   430.48         164.9507
   430.62         164.6212
   430.76         164.2512
   430.90         163.8733
   431.04         163.5097
   431.18         163.1687
   431.32         162.8569
   431.46         162.5871
   431.60         162.3743
   431.74         162.2276
   431.88         162.1394
   432.02         162.0802
   432.16         162.0069
   432.30         161.8633
   432.44         161.5439
   432.58         160.8763
   432.72         159.6671
   432.86         157.7702
   433.00         155.1439
   433.14         151.8755
   433.28         148.1670
   433.42         144.2912
   433.56         140.5479
   433.70         137.2299
   433.84         134.5962
   433.98         132.8528
   434.12         132.1348
   434.26         132.4789
   434.40         133.8122
   434.54         135.9742
   434.68         138.7458
   434.82         141.8637
   434.96         145.0382
   435.10         148.0095
   435.24         150.6081
   435.38         152.7684
   435.52         154.5099
   435.66         155.9098
   435.80         157.0599
   435.94         158.0259
   436.08         158.8325
   436.22         159.4801
   436.36         159.9700
   436.50         160.3115
   436.64         160.5164
   436.78         160.6001
   436.92         160.5817
   437.06         160.4731
   437.20         160.2617
   437.34         159.9111
   437.48         159.3832
   437.62         158.6688
   437.76         157.8037
   437.90         156.8446
   438.04         155.8453
   438.18         154.8679
   438.32         153.9858
   438.46         153.2708
   438.60         152.7720
   438.74         152.5102
   438.88         152.4894
   439.02         152.6953
   439.16         153.0939
   439.30         153.6369
   439.44         154.2565
   439.58         154.8688
   439.72         155.3829
   439.86         155.7249
   440.00         155.8675
   440.14         155.8314
   440.28         155.6707
   440.42         155.4438
   440.56         155.1834
   440.70         154.9015
   440.84         154.6052
   440.98         154.2832
   441.12         153.8917
   441.26         153.3712
   441.40         152.6752
   441.54         151.7780
   441.68         150.6712
   441.82         149.3556
   441.96         147.8244
   442.10         146.0852
   442.24         144.1945
   442.38         142.2532
   442.52         140.3876
   442.66         138.7277
   442.80         137.3844
   442.94         136.4346
   443.08         135.9144
   443.22         135.8237
   443.36         136.1342
   443.50         136.7886
   443.64         137.7048
   443.78         138.7962
   443.92         139.9873
   444.06         141.2115
   444.20         142.4013
   444.34         143.4992
   444.48         144.4824
   444.62         145.3593
   444.76         146.1417
   444.90         146.8245
   445.04         147.3963
   445.18         147.8446
   445.32         148.1564
   445.46         148.3283
   445.60         148.3661
   445.74         148.2681
   445.88         148.0130
   446.02         147.5799
   446.16         146.9753
   446.30         146.2327
   446.44         145.3985
   446.58         144.5245
   446.72         143.6597
   446.86         142.8389
   447.00         142.0951
   447.14         141.4621
   447.28         140.9609
   447.42         140.6078
   447.56         140.4294
   447.70         140.4516
   447.84         140.6808
   447.98         141.0979
   448.12         141.6660
   448.26         142.3362
   448.40         143.0572
   448.54         143.7886
   448.68         144.5081
   448.82         145.2082
   448.96         145.8766
   449.10         146.4820
   449.24         146.9798
   449.38         147.3269
   449.52         147.5068
   449.66         147.5437
   449.80         147.4816
   449.94         147.3714
   450.08         147.2546
   450.22         147.1460
   450.36         147.0439
   450.50         146.9451
   450.64         146.8575
   450.78         146.8013
   450.92         146.7823
   451.06         146.7864
   451.20         146.7911
   451.34         146.7736
   451.48         146.7128
   451.62         146.5946
   451.76         146.4173
   451.90         146.1748
   452.04         145.8654
   452.18         145.5126
   452.32         145.1512
   452.46         144.8100
   452.60         144.5175
   452.74         144.2887
   452.88         144.1155
   453.02         143.9895
   453.16         143.9127
   453.30         143.8824
   453.44         143.8661
   453.58         143.8154
   453.72         143.6910
   453.86         143.4601
   454.00         143.1033
   454.14         142.6307
   454.28         142.0813
   454.42         141.4959
   454.56         140.9063
   454.70         140.3614
   454.84         139.9208
   454.98         139.6260
   455.12         139.4995
   455.26         139.5457
   455.40         139.7442
   455.54         140.0623
   455.68         140.4747
   455.82         140.9562
   455.96         141.4678
   456.10         141.9560
   456.24         142.3645
   456.38         142.6483
   456.52         142.7895
   456.66         142.8062
   456.80         142.7296
   456.94         142.5742
   457.08         142.3360
   457.22         142.0112
   457.36         141.6073
   457.50         141.1352
   457.64         140.6118
   457.78         140.0775
   457.92         139.5932
   458.06         139.2159
   458.20         138.9803
   458.34         138.8905
   458.48         138.9171
   458.62         139.0162
   458.76         139.1624
   458.90         139.3537
   459.04         139.5820
   459.18         139.8224
   459.32         140.0476
   459.46         140.2317
   459.60         140.3547
   459.74         140.4158
   459.88         140.4350
   460.02         140.4388
   460.16         140.4539
   460.30         140.5093
   460.44         140.6299
   460.58         140.8168
   460.72         141.0395
   460.86         141.2532
   461.00         141.4154
   461.14         141.5017
   461.28         141.5186
   461.42         141.4816
   461.56         141.3810
   461.70         141.1976
   461.84         140.9462
   461.98         140.6724
   462.12         140.4152
   462.26         140.1952
   462.40         140.0229
   462.54         139.9049
   462.68         139.8432
   462.82         139.8355
   462.96         139.8760
   463.10         139.9560
   463.24         140.0719
   463.38         140.2294
   463.52         140.4230
   463.66         140.6231
   463.80         140.7975
   463.94         140.9195
   464.08         140.9648
   464.22         140.9138
   464.36         140.7673
   464.50         140.5553
   464.64         140.3187
   464.78         140.0933
   464.92         139.9015
   465.06         139.7473
   465.20         139.6250
   465.34         139.5371
   465.48         139.4978
   465.62         139.5117
   465.76         139.5593
   465.90         139.6059
   466.04         139.6190
   466.18         139.5724
   466.32         139.4556
   466.46         139.2795
   466.60         139.0682
   466.74         138.8596
   466.88         138.6992
   467.02         138.6299
   467.16         138.6840
   467.30         138.8671
   467.44         139.1555
   467.58         139.4984
   467.72         139.8363
   467.86         140.1274
   468.00         140.3409
   468.14         140.4430
   468.28         140.3986
   468.42         140.1917
   468.56         139.8412
   468.70         139.3866
   468.84         138.8621
   468.98         138.2938
   469.12         137.7117
   469.26         137.1575
   469.40         136.6810
   469.54         136.3159
   469.68         136.0650
   469.82         135.9025
   469.96         135.7774
   470.10         135.6323
   470.24         135.4291
   470.38         135.1613
   470.52         134.8487
   470.66         134.5270
   470.80         134.2376
   470.94         134.0128
   471.08         133.8698
   471.22         133.8104
   471.36         133.8075
   471.50         133.8186
   471.64         133.8024
   471.78         133.7241
   471.92         133.5714
   472.06         133.3472
   472.20         133.0571
   472.34         132.7094
   472.48         132.3105
   472.62         131.8730
   472.76         131.4260
   472.90         131.0077
   473.04         130.6453
   473.18         130.3595
   473.32         130.1770
   473.46         130.1123
   473.60         130.1467
   473.74         130.2417
   473.88         130.3651
   474.02         130.5071
   474.16         130.6863
   474.30         130.9297
   474.44         131.2540
   474.58         131.6598
   474.72         132.1102
   474.86         132.5324
   475.00         132.8421
   475.14         132.9666
   475.28         132.8716
   475.42         132.5716
   475.56         132.1149
   475.70         131.5596
   475.84         130.9597
   475.98         130.3579
   476.12         129.7784
   476.26         129.2443
   476.40         128.7937
   476.54         128.4602
   476.68         128.2544
   476.82         128.1603
   476.96         128.1418
   477.10         128.1559
   477.24         128.1601
   477.38         128.1205
   477.52         128.0287
   477.66         127.9138
   477.80         127.8186
   477.94         127.7757
   478.08         127.8039
   478.22         127.8912
   478.36         127.9957
   478.50         128.0740
   478.64         128.0988
   478.78         128.0579
   478.92         127.9470
   479.06         127.7644
   479.20         127.5199
   479.34         127.2547
   479.48         127.0296
   479.62         126.9015
   479.76         126.9122
   479.90         127.0801
   480.04         127.3979
   480.18         127.8315
   480.32         128.3185
   480.46         128.7761
   480.60         129.1197
   480.74         129.2745
   480.88         129.1802
   481.02         128.8216
   481.16         128.2342
   481.30         127.4752
   481.44         126.6145
   481.58         125.7402
   481.72         124.9425
   481.86         124.2948
   482.00         123.8654
   482.14         123.7047
   482.28         123.8234
   482.42         124.2052
   482.56         124.8101
   482.70         125.5816
   482.84         126.4548
   482.98         127.3633
   483.12         128.2464
   483.26         129.0465
   483.40         129.7111
   483.54         130.2043
   483.68         130.5076
   483.82         130.6120
   483.96         130.5116
   484.10         130.2028
   484.24         129.6705
   484.38         128.8781
   484.52         127.7758
   484.66         126.3122
   484.80         124.4265
   484.94         122.0852
   485.08         119.3381
   485.22         116.3140
   485.36         113.1975
   485.50         110.2056
   485.64         107.5648
   485.78         105.4816
   485.92         104.1151
   486.06         103.5584
   486.20         103.8246
   486.34         104.8468
   486.48         106.4868
   486.62         108.5506
   486.76         110.8179
   486.90         113.0753
   487.04         115.1353
   487.18         116.8555
   487.32         118.1663
   487.46         119.0813
   487.60         119.6803
   487.74         120.0741
   487.88         120.3611
   488.02         120.6088
   488.16         120.8564
   488.30         121.1168
   488.44         121.3822
   488.58         121.6319
   488.72         121.8455
   488.86         122.0157
   489.00         122.1501
   489.14         122.2615
   489.28         122.3650
   489.42         122.4784
   489.56         122.6160
   489.70         122.7848
   489.84         122.9953
   489.98         123.2615
   490.12         123.5841
   490.26         123.9420
   490.40         124.2973
   490.54         124.6014
   490.68         124.8049
   490.82         124.8598
   490.96         124.7192
   491.10         124.3486
   491.24         123.7460
   491.38         122.9518
   491.52         122.0420
   491.66         121.1088
   491.80         120.2478
   491.94         119.5542
   492.08         119.1106
   492.22         118.9711
   492.36         119.1564
   492.50         119.6546
   492.64         120.4157
   492.78         121.3575
   492.92         122.3887
   493.06         123.4229
   493.20         124.3825
   493.34         125.1991
   493.48         125.8230
   493.62         126.2303
   493.76         126.4202
   493.90         126.4136
   494.04         126.2419
   494.18         125.9353
   494.32         125.5248
   494.46         125.0480
   494.60         124.5443
   494.74         124.0509
   494.88         123.6032
   495.02         123.2288
   495.16         122.9405
   495.30         122.7336
   495.44         122.5970
   495.58         122.5144
   495.72         122.4536
   495.86         122.3794
   496.00         122.2686
   496.14         122.1078
   496.28         121.8826
   496.42         121.5835
   496.56         121.2295
   496.70         120.8630
   496.84         120.5258
   496.98         120.2508
   497.12         120.0593
   497.26         119.9555
   497.40         119.9330
   497.54         119.9857
   497.68         120.1020
   497.82         120.2609
   497.96         120.4379
   498.10         120.6048
   498.24         120.7310
   498.38         120.7938
   498.52         120.7860
   498.66         120.7064
   498.80         120.5405
   498.94         120.2559
   499.08         119.8331
   499.22         119.2855
   499.36         118.6454
   499.50         117.9550
   499.64         117.2659
   499.78         116.6322
   499.92         116.0935
   500.06         115.6729
   500.20         115.3815
   500.34         115.2062
   500.48         115.1105
   500.62         115.0503
   500.76         114.9861
   500.90         114.8959
   501.04         114.7777
   501.18         114.6416
   501.32         114.5007
   501.46         114.3659
   501.60         114.2520
   501.74         114.1849
   501.88         114.1846
   502.02         114.2539
   502.16         114.3800
   502.30         114.5358
   502.44         114.6851
   502.58         114.7896
   502.72         114.8220
   502.86         114.7651
   503.00         114.6037
   503.14         114.3411
   503.28         114.0130
   503.42         113.6715
   503.56         113.3621
   503.70         113.1171
   503.84         112.9556
   503.98         112.8829
   504.12         112.8918
   504.26         112.9628
   504.40         113.0628
   504.54         113.1579
   504.68         113.2280
   504.82         113.2658
   504.96         113.2695
   505.10         113.2416
   505.24         113.1886
   505.38         113.1177
   505.52         113.0350
   505.66         112.9523
   505.80         112.8921
   505.94         112.8743
   506.08         112.8994
   506.22         112.9515
   506.36         113.0095
   506.50         113.0520
   506.64         113.0590
   506.78         113.0171
   506.92         112.9227
   507.06         112.7859
   507.20         112.6312
   507.34         112.4857
   507.48         112.3638
   507.62         112.2658
   507.76         112.1895
   507.90         112.1350
   508.04         112.1008
   508.18         112.0854
   508.32         112.0890
   508.46         112.1104
   508.60         112.1442
   508.74         112.1827
   508.88         112.2180
   509.02         112.2457
   509.16         112.2677
   509.30         112.2867
   509.44         112.2980
   509.58         112.2897
   509.72         112.2468
   509.86         112.1573
   510.00         112.0201
   510.14         111.8452
   510.28         111.6461
   510.42         111.4377
   510.56         111.2358
   510.70         111.0548
   510.84         110.9088
   510.98         110.8058
   511.12         110.7462
   511.26         110.7245
   511.40         110.7304
   511.54         110.7545
   511.68         110.7871
   511.82         110.8166
   511.96         110.8335
   512.10         110.8344
   512.24         110.8211
   512.38         110.7972
   512.52         110.7662
   512.66         110.7347
   512.80         110.7097
   512.94         110.6973
   513.08         110.7037
   513.22         110.7336
   513.36         110.7792
   513.50         110.8192
   513.64         110.8312
   513.78         110.8003
   513.92         110.7184
   514.06         110.5836
   514.20         110.3995
   514.34         110.1750
   514.48         109.9251
   514.62         109.6644
   514.76         109.3999
   514.90         109.1349
   515.04         108.8738
   515.18         108.6231
   515.32         108.3924
   515.46         108.1869
   515.60         107.9999
   515.74         107.8185
   515.88         107.6364
   516.02         107.4592
   516.16         107.3033
   516.30         107.1897
   516.44         107.1329
   516.58         107.1386
   516.72         107.2053
   516.86         107.3247
   517.00         107.4792
   517.14         107.6423
   517.28         107.7903
   517.42         107.9113
   517.56         108.0062
   517.70         108.0803
   517.84         108.1371
   517.98         108.1769
   518.12         108.1947
   518.26         108.1837
   518.40         108.1498
   518.54         108.1125
   518.68         108.0871
   518.82         108.0773
   518.96         108.0772
   519.10         108.0809
   519.24         108.0861
   519.38         108.0949
   519.52         108.1084
   519.66         108.1228
   519.80         108.1325
   519.94         108.1292
   520.08         108.1001
   520.22         108.0298
   520.36         107.9013
   520.50         107.7013
   520.64         107.4311
   520.78         107.1121
   520.92         106.7799
   521.06         106.4771
   521.20         106.2402
   521.34         106.0889
   521.48         106.0229
   521.62         106.0241
   521.76         106.0697
   521.90         106.1376
   522.04         106.2016
   522.18         106.2287
   522.32         106.1865
   522.46         106.0550
   522.60         105.8386
   522.74         105.5626
   522.88         105.2629
   523.02         104.9800
   523.16         104.7532
   523.30         104.6117
   523.44         104.5642
   523.58         104.5959
   523.72         104.6774
   523.86         104.7753
   524.00         104.8563
   524.14         104.8946
   524.28         104.8798
   524.42         104.8120
   524.56         104.6883
   524.70         104.5027
   524.84         104.2540
   524.98         103.9507
   525.12         103.6110
   525.26         103.2539
   525.40         102.8915
   525.54         102.5301
   525.68         102.1719
   525.82         101.8196
   525.96         101.4797
   526.10         101.1588
   526.24         100.8635
   526.38         100.6006
   526.52         100.3746
   526.66         100.1887
   526.80         100.0442
   526.94         99.9371
   527.08         99.8548
   527.22         99.7786
   527.36         99.6932
   527.50         99.5914
   527.64         99.4735
   527.78         99.3455
   527.92         99.2157
   528.06         99.0928
   528.20         98.9837
   528.34         98.8919
   528.48         98.8177
   528.62         98.7591
   528.76         98.7152
   528.90         98.6896
   529.04         98.6880
   529.18         98.7145
   529.32         98.7687
   529.46         98.8442
   529.60         98.9309
   529.74         99.0208
   529.88         99.1105
   530.02         99.2007
   530.16         99.2900
   530.30         99.3719
   530.44         99.4338
   530.58         99.4607
   530.72         99.4404
   530.86         99.3667
   531.00         99.2415
   531.14         99.0741
   531.28         98.8779
   531.42         98.6627
   531.56         98.4354
   531.70         98.2022
   531.84         97.9683
   531.98         97.7375
   532.12         97.5131
   532.26         97.2992
   532.40         97.1022
   532.54         96.9279
   532.68         96.7800
   532.82         96.6585
   532.96         96.5621
   533.10         96.4910
   533.24         96.4483
   533.38         96.4369
   533.52         96.4567
   533.66         96.5017
   533.80         96.5568
   533.94         96.5998
   534.08         96.6110
   534.22         96.5835
   534.36         96.5190
   534.50         96.4206
   534.64         96.2917
   534.78         96.1390
   534.92         95.9748
   535.06         95.8124
   535.20         95.6605
   535.34         95.5256
   535.48         95.4112
   535.62         95.3168
   535.76         95.2395
   535.90         95.1732
   536.04         95.1097
   536.18         95.0408
   536.32         94.9590
   536.46         94.8617
   536.60         94.7523
   536.74         94.6389
   536.88         94.5279
   537.02         94.4177
   537.16         94.3013
   537.30         94.1781
   537.44         94.0566
   537.58         93.9492
   537.72         93.8650
   537.86         93.8091
   538.00         93.7830
   538.14         93.7799
   538.28         93.7865
   538.42         93.7930
   538.56         93.7959
   538.70         93.7947
   538.84         93.7875
   538.98         93.7720
   539.12         93.7462
   539.26         93.7045
   539.40         93.6433
   539.54         93.5660
   539.68         93.4825
   539.82         93.4054
   539.96         93.3436
   540.10         93.2970
   540.24         93.2581
   540.38         93.2174
   540.52         93.1644
   540.66         93.0859
   540.80         92.9673
   540.94         92.8021
   541.08         92.5959
   541.22         92.3557
   541.36         92.0837
   541.50         91.7830
   541.64         91.4630
   541.78         91.1374
   541.92         90.8209
   542.06         90.5320
   542.20         90.2867
   542.34         90.0928
   542.48         89.9531
   542.62         89.8663
   542.76         89.8292
   542.90         89.8359
   543.04         89.8729
   543.18         89.9258
   543.32         89.9833
   543.46         90.0369
   543.60         90.0795
   543.74         90.1010
   543.88         90.0882
   544.02         90.0308
   544.16         89.9261
   544.30         89.7790
   544.44         89.5994
   544.58         89.4004
   544.72         89.1966
   544.86         89.0018
   545.00         88.8276
   545.14         88.6825
   545.28         88.5683
   545.42         88.4831
   545.56         88.4248
   545.70         88.3928
   545.84         88.3884
   545.98         88.4082
   546.12         88.4426
   546.26         88.4806
   546.40         88.5157
   546.54         88.5450
   546.68         88.5665
   546.82         88.5809
   546.96         88.5909
   547.10         88.5973
   547.24         88.5980
   547.38         88.5903
   547.52         88.5727
   547.66         88.5421
   547.80         88.4954
   547.94         88.4323
   548.08         88.3568
   548.22         88.2748
   548.36         88.1870
   548.50         88.0887
   548.64         87.9788
   548.78         87.8625
   548.92         87.7490
   549.06         87.6487
   549.20         87.5663
   549.34         87.5003
   549.48         87.4449
   549.62         87.3902
   549.76         87.3229
   549.90         87.2318
   550.04         87.1114
   550.18         86.9620
   550.32         86.7924
   550.46         86.6164
   550.60         86.4460
   550.74         86.2898
   550.88         86.1519
   551.02         86.0340
   551.16         85.9396
   551.30         85.8717
   551.44         85.8287
   551.58         85.8035
   551.72         85.7878
   551.86         85.7713
   552.00         85.7435
   552.14         85.6968
   552.28         85.6301
   552.42         85.5482
   552.56         85.4620
   552.70         85.3841
   552.84         85.3238
   552.98         85.2860
   553.12         85.2673
   553.26         85.2586
   553.40         85.2495
   553.54         85.2318
   553.68         85.1991
   553.82         85.1452
   553.96         85.0653
   554.10         84.9600
   554.24         84.8351
   554.38         84.6990
   554.52         84.5606
   554.66         84.4283
   554.80         84.3110
   554.94         84.2163
   555.08         84.1464
   555.22         84.0987
   555.36         84.0690
   555.50         84.0549
   555.64         84.0535
   555.78         84.0597
   555.92         84.0659
   556.06         84.0662
   556.20         84.0616
   556.34         84.0571
   556.48         84.0581
   556.62         84.0696
   556.76         84.0966
   556.90         84.1404
   557.04         84.1964
   557.18         84.2538
   557.32         84.2990
   557.46         84.3228
   557.60         84.3210
   557.74         84.2931
   557.88         84.2432
   558.02         84.1787
   558.16         84.1068
   558.30         84.0312
   558.44         83.9531
   558.58         83.8741
   558.72         83.7988
   558.86         83.7304
   559.00         83.6681
   559.14         83.6102
   559.28         83.5574
   559.42         83.5116
   559.56         83.4733
   559.70         83.4402
   559.84         83.4090
   559.98         83.3763
   560.12         83.3382
   560.26         83.2891
   560.40         83.2223
   560.54         83.1314
   560.68         83.0126
   560.82         82.8662
   560.96         82.6941
   561.10         82.5004
   561.24         82.2895
   561.38         82.0648
   561.52         81.8294
   561.66         81.5904
   561.80         81.3599
   561.94         81.1490
   562.08         80.9667
   562.22         80.8217
   562.36         80.7188
   562.50         80.6556
   562.64         80.6217
   562.78         80.6003
   562.92         80.5722
   563.06         80.5214
   563.20         80.4379
   563.34         80.3149
   563.48         80.1473
   563.62         79.9346
   563.76         79.6824
   563.90         79.4029
   564.04         79.1173
   564.18         78.8519
   564.32         78.6316
   564.46         78.4730
   564.60         78.3814
   564.74         78.3532
   564.88         78.3762
   565.02         78.4303
   565.16         78.4922
   565.30         78.5421
   565.44         78.5686
   565.58         78.5727
   565.72         78.5634
   565.86         78.5477
   566.00         78.5284
   566.14         78.5088
   566.28         78.4916
   566.42         78.4793
   566.56         78.4734
   566.70         78.4706
   566.84         78.4634
   566.98         78.4450
   567.12         78.4128
   567.26         78.3678
   567.40         78.3113
   567.54         78.2424
   567.68         78.1612
   567.82         78.0722
   567.96         77.9836
   568.10         77.9016
   568.24         77.8252
   568.38         77.7483
   568.52         77.6631
   568.66         77.5635
   568.80         77.4474
   568.94         77.3156
   569.08         77.1717
   569.22         77.0174
   569.36         76.8515
   569.50         76.6733
   569.64         76.4862
   569.78         76.2974
   569.92         76.1130
   570.06         75.9373
   570.20         75.7751
   570.34         75.6351
   570.48         75.5264
   570.62         75.4516
   570.76         75.4080
   570.90         75.3930
   571.04         75.4067
   571.18         75.4484
   571.32         75.5135
   571.46         75.5928
   571.60         75.6741
   571.74         75.7466
   571.88         75.8046
   572.02         75.8494
   572.16         75.8874
   572.30         75.9262
   572.44         75.9666
   572.58         75.9988
   572.72         76.0083
   572.86         75.9845
   573.00         75.9234
   573.14         75.8260
   573.28         75.6991
   573.42         75.5537
   573.56         75.3997
   573.70         75.2451
   573.84         75.0998
   573.98         74.9743
   574.12         74.8772
   574.26         74.8132
   574.40         74.7827
   574.54         74.7807
   574.68         74.7981
   574.82         74.8225
   574.96         74.8390
   575.10         74.8327
   575.24         74.7937
   575.38         74.7210
   575.52         74.6218
   575.66         74.5026
   575.80         74.3654
   575.94         74.2089
   576.08         74.0308
   576.22         73.8308
   576.36         73.6143
   576.50         73.3892
   576.64         73.1547
   576.78         72.8946
   576.92         72.5831
   577.06         72.2047
   577.20         71.7653
   577.34         71.2872
   577.48         70.7987
   577.62         70.3290
   577.76         69.9094
   577.90         69.5707
   578.04         69.3379
   578.18         69.2231
   578.32         69.2226
   578.46         69.3221
   578.60         69.5013
   578.74         69.7350
   578.88         69.9960
   579.02         70.2556
   579.16         70.4838
   579.30         70.6541
   579.44         70.7538
   579.58         70.7938
   579.72         70.8036
   579.86         70.8152
   580.00         70.8513
   580.14         70.9239
   580.28         71.0379
   580.42         71.1928
   580.56         71.3817
   580.70         71.5907
   580.84         71.8051
   580.98         72.0112
   581.12         72.1988
   581.26         72.3607
   581.40         72.4922
   581.54         72.5904
   581.68         72.6498
   581.82         72.6641
   581.96         72.6328
   582.10         72.5633
   582.24         72.4688
   582.38         72.3628
   582.52         72.2576
   582.66         72.1630
   582.80         72.0860
   582.94         72.0292
   583.08         71.9893
   583.22         71.9573
   583.36         71.9227
   583.50         71.8778
   583.64         71.8160
   583.78         71.7348
   583.92         71.6368
   584.06         71.5266
   584.20         71.4101
   584.34         71.2950
   584.48         71.1931
   584.62         71.1197
   584.76         71.0869
   584.90         71.0993
   585.04         71.1547
   585.18         71.2474
   585.32         71.3677
   585.46         71.5009
   585.60         71.6279
   585.74         71.7294
   585.88         71.7897
   586.02         71.7961
   586.16         71.7271
   586.30         71.5512
   586.44         71.2511
   586.58         70.8372
   586.72         70.3375
   586.86         69.7885
   587.00         69.2320
   587.14         68.7098
   587.28         68.2558
   587.42         67.8886
   587.56         67.6042
   587.70         67.3675
   587.84         67.1345
   587.98         66.8785
   588.12         66.5852
   588.26         66.2386
   588.40         65.8229
   588.54         65.3419
   588.68         64.8275
   588.82         64.3289
   588.96         63.9116
   589.10         63.6515
   589.24         63.6077
   589.38         63.8028
   589.52         64.2265
   589.66         64.8435
   589.80         65.5973
   589.94         66.4148
   590.08         67.2151
   590.22         67.9237
   590.36         68.4940
   590.50         68.9192
   590.64         69.2097
   590.78         69.3687
   590.92         69.4023
   591.06         69.3337
   591.20         69.2000
   591.34         69.0353
   591.48         68.8591
   591.62         68.6823
   591.76         68.5170
   591.90         68.3759
   592.04         68.2683
   592.18         68.1996
   592.32         68.1696
   592.46         68.1723
   592.60         68.1996
   592.74         68.2428
   592.88         68.2931
   593.02         68.3414
   593.16         68.3765
   593.30         68.3866
   593.44         68.3611
   593.58         68.2910
   593.72         68.1723
   593.86         68.0108
   594.00         67.8216
   594.14         67.6225
   594.28         67.4314
   594.42         67.2628
   594.56         67.1235
   594.70         67.0118
   594.84         66.9208
   594.98         66.8417
   595.12         66.7687
   595.26         66.7013
   595.40         66.6397
   595.54         66.5831
   595.68         66.5324
   595.82         66.4903
   595.96         66.4592
   596.10         66.4418
   596.24         66.4399
   596.38         66.4478
   596.52         66.4522
   596.66         66.4414
   596.80         66.4112
   596.94         66.3598
   597.08         66.2870
   597.22         66.1977
   597.36         66.1009
   597.50         66.0041
   597.64         65.9136
   597.78         65.8347
   597.92         65.7676
   598.06         65.7080
   598.20         65.6520
   598.34         65.5989
   598.48         65.5477
   598.62         65.4951
   598.76         65.4351
   598.90         65.3621
   599.04         65.2721
   599.18         65.1673
   599.32         65.0585
   599.46         64.9551
   599.60         64.8573
   599.74         64.7615
   599.88         64.6642
   600.02         64.5612
   600.16         64.4500
   600.30         64.3314
   600.44         64.2087
   600.58         64.0868
   600.72         63.9724
   600.86         63.8725
   601.00         63.7928
   601.14         63.7394
   601.28         63.7166
   601.42         63.7193
   601.56         63.7357
   601.70         63.7526
   601.84         63.7600
   601.98         63.7527
   602.12         63.7259
   602.26         63.6732
   602.40         63.5911
   602.54         63.4804
   602.68         63.3465
   602.82         63.1970
   602.96         63.0397
   603.10         62.8859
   603.24         62.7461
   603.38         62.6272
   603.52         62.5366
   603.66         62.4832
   603.80         62.4776
   603.94         62.5255
   604.08         62.6246
   604.22         62.7712
   604.36         62.9591
   604.50         63.1736
   604.64         63.3948
   604.78         63.6047
   604.92         63.7903
   605.06         63.9424
   605.20         64.0531
   605.34         64.1167
   605.48         64.1299
   605.62         64.0940
   605.76         64.0159
   605.90         63.9070
   606.04         63.7837
   606.18         63.6666
   606.32         63.5716
   606.46         63.5055
   606.60         63.4626
   606.74         63.4283
   606.88         63.3899
   607.02         63.3421
   607.16         63.2852
   607.30         63.2248
   607.44         63.1694
   607.58         63.1243
   607.72         63.0947
   607.86         63.0885
   608.00         63.1094
   608.14         63.1532
   608.28         63.2109
   608.42         63.2728
   608.56         63.3298
   608.70         63.3709
   608.84         63.3830
   608.98         63.3542
   609.12         63.2809
   609.26         63.1702
   609.40         63.0373
   609.54         62.9017
   609.68         62.7794
   609.82         62.6788
   609.96         62.6020
   610.10         62.5466
   610.24         62.5078
   610.38         62.4807
   610.52         62.4600
   610.66         62.4392
   610.80         62.4147
   610.94         62.3854
   611.08         62.3489
   611.22         62.3010
   611.36         62.2392
   611.50         62.1659
   611.64         62.0865
   611.78         62.0055
   611.92         61.9278
   612.06         61.8576
   612.20         61.7929
   612.34         61.7243
   612.48         61.6420
   612.62         61.5445
   612.76         61.4370
   612.90         61.3217
   613.04         61.1939
   613.18         61.0451
   613.32         60.8661
   613.46         60.6490
   613.60         60.3923
   613.74         60.1098
   613.88         59.8266
   614.02         59.5680
   614.16         59.3522
   614.30         59.1872
   614.44         59.0739
   614.58         59.0096
   614.72         58.9877
   614.86         58.9997
   615.00         59.0407
   615.14         59.1106
   615.28         59.2060
   615.42         59.3135
   615.56         59.4130
   615.70         59.4880
   615.84         59.5320
   615.98         59.5474
   616.12         59.5403
   616.26         59.5172
   616.40         59.4831
   616.54         59.4371
   616.68         59.3735
   616.82         59.2885
   616.96         59.1822
   617.10         59.0594
   617.24         58.9305
   617.38         58.8064
   617.52         58.6949
   617.66         58.6013
   617.80         58.5292
   617.94         58.4806
   618.08         58.4578
   618.22         58.4648
   618.36         58.5072
   618.50         58.5894
   618.64         58.7102
   618.78         58.8590
   618.92         59.0168
   619.06         59.1604
   619.20         59.2663
   619.34         59.3147
   619.48         59.2953
   619.62         59.2113
   619.76         59.0775
   619.90         58.9157
   620.04         58.7449
   620.18         58.5771
   620.32         58.4206
   620.46         58.2813
   620.60         58.1650
   620.74         58.0758
   620.88         58.0159
   621.02         57.9863
   621.16         57.9851
   621.30         58.0080
   621.44         58.0475
   621.58         58.0951
   621.72         58.1447
   621.86         58.1964
   622.00         58.2538
   622.14         58.3207
   622.28         58.3990
   622.42         58.4847
   622.56         58.5674
   622.70         58.6348
   622.84         58.6798
   622.98         58.7066
   623.12         58.7259
   623.26         58.7466
   623.40         58.7726
   623.54         58.8055
   623.68         58.8451
   623.82         58.8861
   623.96         58.9202
   624.10         58.9410
   624.24         58.9463
   624.38         58.9393
   624.52         58.9249
   624.66         58.9049
   624.80         58.8773
   624.94         58.8388
   625.08         58.7875
   625.22         58.7256
   625.36         58.6527
   625.50         58.5648
   625.64         58.4583
   625.78         58.3268
   625.92         58.1628
   626.06         57.9653
   626.20         57.7402
   626.34         57.4955
   626.48         57.2379
   626.62         56.9703
   626.76         56.6885
   626.90         56.3810
   627.04         56.0330
   627.18         55.6307
   627.32         55.1731
   627.46         54.6800
   627.60         54.1878
   627.74         53.7388
   627.88         53.3723
   628.02         53.1183
   628.16         53.0013
   628.30         53.0383
   628.44         53.2313
   628.58         53.5683
   628.72         54.0240
   628.86         54.5582
   629.00         55.1225
   629.14         55.6687
   629.28         56.1553
   629.42         56.5537
   629.56         56.8518
   629.70         57.0532
   629.84         57.1753
   629.98         57.2468
   630.12         57.2969
   630.26         57.3424
   630.40         57.3881
   630.54         57.4328
   630.68         57.4717
   630.82         57.4961
   630.96         57.4929
   631.10         57.4501
   631.24         57.3637
   631.38         57.2413
   631.52         57.1009
   631.66         56.9674
   631.80         56.8620
   631.94         56.7952
   632.08         56.7677
   632.22         56.7761
   632.36         56.8148
   632.50         56.8745
   632.64         56.9436
   632.78         57.0081
   632.92         57.0546
   633.06         57.0739
   633.20         57.0550
   633.34         56.9799
   633.48         56.8322
   633.62         56.6105
   633.76         56.3302
   633.90         56.0144
   634.04         55.6882
   634.18         55.3777
   634.32         55.1061
   634.46         54.8914
   634.60         54.7482
   634.74         54.6904
   634.88         54.7254
   635.02         54.8485
   635.16         55.0450
   635.30         55.2930
   635.44         55.5649
   635.58         55.8275
   635.72         56.0409
   635.86         56.1654
   636.00         56.1808
   636.14         56.0958
   636.28         55.9361
   636.42         55.7289
   636.56         55.4978
   636.70         55.2643
   636.84         55.0471
   636.98         54.8596
   637.12         54.7098
   637.26         54.5998
   637.40         54.5265
   637.54         54.4825
   637.68         54.4585
   637.82         54.4473
   637.96         54.4453
   638.10         54.4511
   638.24         54.4641
   638.38         54.4855
   638.52         54.5214
   638.66         54.5788
   638.80         54.6570
   638.94         54.7487
   639.08         54.8461
   639.22         54.9434
   639.36         55.0367
   639.50         55.1250
   639.64         55.2079
   639.78         55.2809
   639.92         55.3374
   640.06         55.3724
   640.20         55.3812
   640.34         55.3596
   640.48         55.3059
   640.62         55.2223
   640.76         55.1149
   640.90         54.9954
   641.04         54.8804
   641.18         54.7850
   641.32         54.7168
   641.46         54.6755
   641.60         54.6596
   641.74         54.6688
   641.88         54.7008
   642.02         54.7508
   642.16         54.8119
   642.30         54.8738
   642.44         54.9267
   642.58         54.9646
   642.72         54.9839
   642.86         54.9846
   643.00         54.9716
   643.14         54.9519
   643.28         54.9295
   643.42         54.9023
   643.56         54.8588
   643.70         54.7836
   643.84         54.6660
   643.98         54.5040
   644.12         54.3030
   644.26         54.0739
   644.40         53.8301
   644.54         53.5882
   644.68         53.3665
   644.82         53.1806
   644.96         53.0431
   645.10         52.9632
   645.24         52.9454
   645.38         52.9851
   645.52         53.0664
   645.66         53.1651
   645.80         53.2562
   645.94         53.3224
   646.08         53.3537
   646.22         53.3473
   646.36         53.3096
   646.50         53.2537
   646.64         53.1912
   646.78         53.1282
   646.92         53.0691
   647.06         53.0227
   647.20         52.9977
   647.34         52.9969
   647.48         53.0192
   647.62         53.0621
   647.76         53.1215
   647.90         53.1923
   648.04         53.2671
   648.18         53.3400
   648.32         53.4122
   648.46         53.4903
   648.60         53.5788
   648.74         53.6777
   648.88         53.7863
   649.02         53.9021
   649.16         54.0172
   649.30         54.1208
   649.44         54.2034
   649.58         54.2567
   649.72         54.2747
   649.86         54.2544
   650.00         54.1979
   650.14         54.1103
   650.28         53.9957
   650.42         53.8587
   650.56         53.7084
   650.70         53.5585
   650.84         53.4270
   650.98         53.3326
   651.12         53.2896
   651.26         53.3054
   651.40         53.3785
   651.54         53.4988
   651.68         53.6495
   651.82         53.8129
   651.96         53.9719
   652.10         54.1107
   652.24         54.2168
   652.38         54.2842
   652.52         54.3154
   652.66         54.3156
   652.80         54.2908
   652.94         54.2459
   653.08         54.1840
   653.22         54.1078
   653.36         54.0228
   653.50         53.9336
   653.64         53.8408
   653.78         53.7438
   653.92         53.6426
   654.06         53.5373
   654.20         53.4291
   654.34         53.3197
   654.48         53.2047
   654.62         53.0678
   654.76         52.8807
   654.90         52.6094
   655.04         52.2276
   655.18         51.7316
   655.32         51.1428
   655.46         50.5017
   655.60         49.8610
   655.74         49.2791
   655.88         48.8146
   656.02         48.5188
   656.16         48.4254
   656.30         48.5463
   656.44         48.8714
   656.58         49.3689
   656.72         49.9896
   656.86         50.6742
   657.00         51.3598
   657.14         51.9861
   657.28         52.5064
   657.42         52.8989
   657.56         53.1696
   657.70         53.3429
   657.84         53.4487
   657.98         53.5099
   658.12         53.5393
   658.26         53.5438
   658.40         53.5281
   658.54         53.4992
   658.68         53.4685
   658.82         53.4477
   658.96         53.4453
   659.10         53.4664
   659.24         53.5137
   659.38         53.5885
   659.52         53.6894
   659.66         53.8115
   659.80         53.9448
   659.94         54.0713
   660.08         54.1694
   660.22         54.2203
   660.36         54.2154
   660.50         54.1578
   660.64         54.0583
   660.78         53.9315
   660.92         53.7955
   661.06         53.6719
   661.20         53.5805
   661.34         53.5334
   661.48         53.5333
   661.62         53.5756
   661.76         53.6512
   661.90         53.7478
   662.04         53.8506
   662.18         53.9423
   662.32         54.0061
   662.46         54.0274
   662.60         53.9975
   662.74         53.9184
   662.88         53.8020
   663.02         53.6650
   663.16         53.5225
   663.30         53.3849
   663.44         53.2587
   663.58         53.1486
   663.72         53.0579
   663.86         52.9842
   664.00         52.9201
   664.14         52.8574
   664.28         52.7912
   664.42         52.7188
   664.56         52.6371
   664.70         52.5434
   664.84         52.4384
   664.98         52.3265
   665.12         52.2138
   665.26         52.1055
   665.40         52.0070
   665.54         51.9246
   665.68         51.8625
   665.82         51.8198
   665.96         51.7914
   666.10         51.7682
   666.24         51.7336
   666.38         51.6646
   666.52         51.5407
   666.66         51.3543
   666.80         51.1132
   666.94         50.8340
   667.08         50.5338
   667.22         50.2295
   667.36         49.9426
   667.50         49.6972
   667.64         49.5168
   667.78         49.4228
   667.92         49.4291
   668.06         49.5350
   668.20         49.7229
   668.34         49.9630
   668.48         50.2221
   668.62         50.4684
   668.76         50.6748
   668.90         50.8243
   669.04         50.9147
   669.18         50.9579
   669.32         50.9716
   669.46         50.9707
   669.60         50.9628
   669.74         50.9511
   669.88         50.9404
   670.02         50.9374
   670.16         50.9468
   670.30         50.9676
   670.44         50.9925
   670.58         51.0058
   670.72         50.9914
   670.86         50.9432
   671.00         50.8680
   671.14         50.7787
   671.28         50.6878
   671.42         50.6062
   671.56         50.5417
   671.70         50.4974
   671.84         50.4727
   671.98         50.4643
   672.12         50.4670
   672.26         50.4758
   672.40         50.4879
   672.54         50.5018
   672.68         50.5156
   672.82         50.5254
   672.96         50.5262
   673.10         50.5161
   673.24         50.4996
   673.38         50.4843
   673.52         50.4744
   673.66         50.4669
   673.80         50.4551
   673.94         50.4329
   674.08         50.3961
   674.22         50.3412
   674.36         50.2661
   674.50         50.1739
   674.64         50.0760
   674.78         49.9895
   674.92         49.9307
   675.06         49.9083
   675.20         49.9222
   675.34         49.9668
   675.48         50.0328
   675.62         50.1098
   675.76         50.1882
   675.90         50.2581
   676.04         50.3095
   676.18         50.3369
   676.32         50.3424
   676.46         50.3327
   676.60         50.3152
   676.74         50.2968
   676.88         50.2863
   677.02         50.2926
   677.16         50.3220
   677.30         50.3736
   677.44         50.4396
   677.58         50.5082
   677.72         50.5650
   677.86         50.5976
   678.00         50.5999
   678.14         50.5714
   678.28         50.5155
   678.42         50.4379
   678.56         50.3477
   678.70         50.2565
   678.84         50.1728
   678.98         50.0979
   679.12         50.0282
   679.26         49.9606
   679.40         49.8971
   679.54         49.8418
   679.68         49.7981
   679.82         49.7677
   679.96         49.7502
   680.10         49.7423
   680.24         49.7379
   680.38         49.7305
   680.52         49.7155
   680.66         49.6899
   680.80         49.6510
   680.94         49.5958
   681.08         49.5238
   681.22         49.4381
   681.36         49.3433
   681.50         49.2434
   681.64         49.1426
   681.78         49.0479
   681.92         48.9679
   682.06         48.9080
   682.20         48.8691
   682.34         48.8466
   682.48         48.8304
   682.62         48.8093
   682.76         48.7748
   682.90         48.7232
   683.04         48.6568
   683.18         48.5808
   683.32         48.5010
   683.46         48.4215
   683.60         48.3447
   683.74         48.2757
   683.88         48.2211
   684.02         48.1847
   684.16         48.1656
   684.30         48.1583
   684.44         48.1543
   684.58         48.1431
   684.72         48.1160
   684.86         48.0708
   685.00         48.0084
   685.14         47.9282
   685.28         47.8260
   685.42         47.6859
   685.56         47.4739
   685.70         47.1466
   685.84         46.6655
   685.98         46.0085
   686.12         45.1752
   686.26         44.1888
   686.40         43.0948
   686.54         41.9537
   686.68         40.8365
   686.82         39.8209
   686.96         38.9840
   687.10         38.3925
   687.24         38.0893
   687.38         38.0852
   687.52         38.3565
   687.66         38.8439
   687.80         39.4635
   687.94         40.1244
   688.08         40.7398
   688.22         41.2438
   688.36         41.6050
   688.50         41.8252
   688.64         41.9278
   688.78         41.9446
   688.92         41.9107
   689.06         41.8631
   689.20         41.8341
   689.34         41.8480
   689.48         41.9209
   689.62         42.0574
   689.76         42.2497
   689.90         42.4813
   690.04         42.7325
   690.18         42.9843
   690.32         43.2237
   690.46         43.4499
   690.60         43.6658
   690.74         43.8699
   690.88         44.0614
   691.02         44.2412
   691.16         44.4091
   691.30         44.5622
   691.44         44.6946
   691.58         44.8010
   691.72         44.8767
   691.86         44.9212
   692.00         44.9392
   692.14         44.9353
   692.28         44.9110
   692.42         44.8684
   692.56         44.8115
   692.70         44.7417
   692.84         44.6580
   692.98         44.5612
   693.12         44.4555
   693.26         44.3463
   693.40         44.2424
   693.54         44.1568
   693.68         44.0988
   693.82         44.0714
   693.96         44.0751
   694.10         44.1097
   694.24         44.1733
   694.38         44.2620
   694.52         44.3716
   694.66         44.4959
   694.80         44.6246
   694.94         44.7445
   695.08         44.8452
   695.22         44.9215
   695.36         44.9738
   695.50         45.0083
   695.64         45.0360
   695.78         45.0707
   695.92         45.1217
   696.06         45.1861
   696.20         45.2523
   696.34         45.3087
   696.48         45.3490
   696.62         45.3728
   696.76         45.3848
   696.90         45.3896
   697.04         45.3900
   697.18         45.3898
   697.32         45.3922
   697.46         45.3941
   697.60         45.3872
   697.74         45.3669
   697.88         45.3336
   698.02         45.2852
   698.16         45.2157
   698.30         45.1208
   698.44         45.0036
   698.58         44.8716
   698.72         44.7351
   698.86         44.6094
   699.00         44.5132
   699.14         44.4608
   699.28         44.4555
   699.42         44.4919
   699.56         44.5607
   699.70         44.6533
   699.84         44.7594
   699.98         44.8670
   700.12         44.9672
   700.26         45.0588
   700.40         45.1472
   700.54         45.2370
   700.68         45.3268
   700.82         45.4106
   700.96         45.4819
   701.10         45.5342
   701.24         45.5601
   701.38         45.5499
   701.52         45.4942
   701.66         45.3892
   701.80         45.2394
   701.94         45.0551
   702.08         44.8520
   702.22         44.6511
   702.36         44.4690
   702.50         44.3142
   702.64         44.1911
   702.78         44.1032
   702.92         44.0529
   703.06         44.0393
   703.20         44.0571
   703.34         44.0976
   703.48         44.1479
   703.62         44.1952
   703.76         44.2297
   703.90         44.2454
   704.04         44.2398
   704.18         44.2154
   704.32         44.1805
   704.46         44.1418
   704.60         44.1002
   704.74         44.0566
   704.88         44.0120
   705.02         43.9619
   705.16         43.8980
   705.30         43.8165
   705.44         43.7195
   705.58         43.6102
   705.72         43.4896
   705.86         43.3606
   706.00         43.2320
   706.14         43.1167
   706.28         43.0280
   706.42         42.9755
   706.56         42.9622
   706.70         42.9874
   706.84         43.0485
   706.98         43.1407
   707.12         43.2572
   707.26         43.3898
   707.40         43.5301
   707.54         43.6676
   707.68         43.7919
   707.82         43.8970
   707.96         43.9839
   708.10         44.0579
   708.24         44.1238
   708.38         44.1846
   708.52         44.2416
   708.66         44.2932
   708.80         44.3323
   708.94         44.3496
   709.08         44.3399
   709.22         44.3034
   709.36         44.2458
   709.50         44.1730
   709.64         44.0882
   709.78         43.9944
   709.92         43.8962
   710.06         43.8019
   710.20         43.7220
   710.34         43.6659
   710.48         43.6376
   710.62         43.6377
   710.76         43.6681
   710.90         43.7286
   711.04         43.8126
   711.18         43.9112
   711.32         44.0152
   711.46         44.1143
   711.60         44.2018
   711.74         44.2762
   711.88         44.3387
   712.02         44.3940
   712.16         44.4477
   712.30         44.5038
   712.44         44.5643
   712.58         44.6300
   712.72         44.7005
   712.86         44.7742
   713.00         44.8470
   713.14         44.9127
   713.28         44.9683
   713.42         45.0119
   713.56         45.0365
   713.70         45.0327
   713.84         44.9978
   713.98         44.9350
   714.12         44.8491
   714.26         44.7449
   714.40         44.6299
   714.54         44.5158
   714.68         44.4133
   714.82         44.3254
   714.96         44.2486
   715.10         44.1811
   715.24         44.1242
   715.38         44.0763
   715.52         44.0303
   715.66         43.9731
   715.80         43.8888
   715.94         43.7657
   716.08         43.5975
   716.22         43.3821
   716.36         43.1212
   716.50         42.8189
   716.64         42.4840
   716.78         42.1324
   716.92         41.7838
   717.06         41.4559
   717.20         41.1532
   717.34         40.8660
   717.48         40.5863
   717.62         40.3205
   717.76         40.0800
   717.90         39.8689
   718.04         39.6873
   718.18         39.5375
   718.32         39.4248
   718.46         39.3526
   718.60         39.3182
   718.74         39.3118
   718.88         39.3224
   719.02         39.3401
   719.16         39.3585
   719.30         39.3793
   719.44         39.4124
   719.58         39.4693
   719.72         39.5628
   719.86         39.7076
   720.00         39.9192
   720.14         40.2124
   720.28         40.5904
   720.42         41.0383
   720.56         41.5318
   720.70         42.0444
   720.84         42.5438
   720.98         42.9942
   721.12         43.3617
   721.26         43.6248
   721.40         43.7790
   721.54         43.8350
   721.68         43.8105
   721.82         43.7233
   721.96         43.5895
   722.10         43.4186
   722.24         43.2138
   722.38         42.9822
   722.52         42.7339
   722.66         42.4729
   722.80         42.1991
   722.94         41.9143
   723.08         41.6245
   723.22         41.3383
   723.36         41.0681
   723.50         40.8302
   723.64         40.6426
   723.78         40.5190
   723.92         40.4602
   724.06         40.4566
   724.20         40.4998
   724.34         40.5816
   724.48         40.6922
   724.62         40.8270
   724.76         40.9887
   724.90         41.1807
   725.04         41.3953
   725.18         41.6075
   725.32         41.7886
   725.46         41.9238
   725.60         42.0149
   725.74         42.0705
   725.88         42.0959
   726.02         42.0889
   726.16         42.0416
   726.30         41.9439
   726.44         41.7921
   726.58         41.5958
   726.72         41.3779
   726.86         41.1659
   727.00         40.9843
   727.14         40.8552
   727.28         40.7923
   727.42         40.7914
   727.56         40.8283
   727.70         40.8695
   727.84         40.8882
   727.98         40.8703
   728.12         40.8073
   728.26         40.6924
   728.40         40.5225
   728.54         40.3006
   728.68         40.0381
   728.82         39.7577
   728.96         39.4891
   729.10         39.2612
   729.24         39.0970
   729.38         39.0112
   729.52         39.0091
   729.66         39.0817
   729.80         39.2016
   729.94         39.3299
   730.08         39.4324
   730.22         39.4916
   730.36         39.5068
   730.50         39.4874
   730.64         39.4458
   730.78         39.3947
   730.92         39.3472
   731.06         39.3155
   731.20         39.3061
   731.34         39.3162
   731.48         39.3377
   731.62         39.3612
   731.76         39.3770
   731.90         39.3778
   732.04         39.3588
   732.18         39.3162
   732.32         39.2488
   732.46         39.1626
   732.60         39.0718
   732.74         38.9934
   732.88         38.9395
   733.02         38.9112
   733.16         38.9044
   733.30         38.9170
   733.44         38.9486
   733.58         38.9946
   733.72         39.0449
   733.86         39.0855
   734.00         39.1028
   734.14         39.0895
   734.28         39.0453
   734.42         38.9723
   734.56         38.8744
   734.70         38.7600
   734.84         38.6396
   734.98         38.5231
   735.12         38.4174
   735.26         38.3249
   735.40         38.2421
   735.54         38.1596
   735.68         38.0680
   735.82         37.9629
   735.96         37.8412
   736.10         37.6983
   736.24         37.5316
   736.38         37.3447
   736.52         37.1481
   736.66         36.9580
   736.80         36.7922
   736.94         36.6626
   737.08         36.5721
   737.22         36.5161
   737.36         36.4853
   737.50         36.4683
   737.64         36.4522
   737.78         36.4232
   737.92         36.3729
   738.06         36.2990
   738.20         36.2058
   738.34         36.1042
   738.48         36.0057
   738.62         35.9192
   738.76         35.8527
   738.90         35.8150
   739.04         35.8120
   739.18         35.8424
   739.32         35.8963
   739.46         35.9567
   739.60         36.0027
   739.74         36.0151
   739.88         35.9825
   740.02         35.9032
   740.16         35.7830
   740.30         35.6300
   740.44         35.4537
   740.58         35.2685
   740.72         35.0952
   740.86         34.9586
   741.00         34.8815
   741.14         34.8787
   741.28         34.9583
   741.42         35.1232
   741.56         35.3688
   741.70         35.6811
   741.84         36.0380
   741.98         36.4133
   742.12         36.7805
   742.26         37.1165
   742.40         37.4060
   742.54         37.6397
   742.68         37.8073
   742.82         37.8959
   742.96         37.8959
   743.10         37.8073
   743.24         37.6397
   743.38         37.4060
   743.52         37.1165
   743.66         36.7805
   743.80         36.4133
   743.94         36.0380
   744.08         35.6811
   744.22         35.3688
