# File BD+61339
# Wavelength [nm]    Normalized Amplitude
   349.70         15.8825
   349.84         15.9664
   349.98         16.0642
   350.12         16.1724
   350.26         16.2941
   350.40         16.4317
   350.54         16.5779
   350.68         16.7169
   350.82         16.8304
   350.96         16.9036
   351.10         16.9286
   351.24         16.9036
   351.38         16.8304
   351.52         16.7169
   351.66         16.5779
   351.80         16.4317
   351.94         16.2941
   352.08         16.1724
   352.22         16.0642
   352.36         15.9664
   352.50         15.8825
   352.64         15.8228
   352.78         15.7963
   352.92         15.8038
   353.06         15.8393
   353.20         15.8995
   353.34         15.9870
   353.48         16.1061
   353.62         16.2587
   353.76         16.4380
   353.90         16.6264
   354.04         16.8022
   354.18         16.9447
   354.32         17.0360
   354.46         17.0666
   354.60         17.0348
   354.74         16.9410
   354.88         16.7919
   355.02         16.6042
   355.16         16.3970
   355.30         16.1852
   355.44         15.9822
   355.58         15.8023
   355.72         15.6581
   355.86         15.5560
   356.00         15.4941
   356.14         15.4637
   356.28         15.4568
   356.42         15.4706
   356.56         15.5044
   356.70         15.5560
   356.84         15.6206
   356.98         15.6916
   357.12         15.7632
   357.26         15.8314
   357.40         15.8932
   357.54         15.9468
   357.68         15.9867
   357.82         16.0064
   357.96         16.0017
   358.10         15.9706
   358.24         15.9103
   358.38         15.8199
   358.52         15.7053
   358.66         15.5740
   358.80         15.4315
   358.94         15.2823
   359.08         15.1325
   359.22         14.9913
   359.36         14.8708
   359.50         14.7822
   359.64         14.7322
   359.78         14.7239
   359.92         14.7589
   360.06         14.8317
   360.20         14.9286
   360.34         15.0312
   360.48         15.1263
   360.62         15.2067
   360.76         15.2679
   360.90         15.3095
   361.04         15.3344
   361.18         15.3430
   361.32         15.3312
   361.46         15.2996
   361.60         15.2574
   361.74         15.2184
   361.88         15.1953
   362.02         15.1929
   362.16         15.2080
   362.30         15.2356
   362.44         15.2718
   362.58         15.3105
   362.72         15.3453
   362.86         15.3747
   363.00         15.4018
   363.14         15.4296
   363.28         15.4598
   363.42         15.4948
   363.56         15.5357
   363.70         15.5779
   363.84         15.6146
   363.98         15.6402
   364.12         15.6528
   364.26         15.6529
   364.40         15.6381
   364.54         15.6040
   364.68         15.5495
   364.82         15.4787
   364.96         15.3976
   365.10         15.3097
   365.24         15.2186
   365.38         15.1319
   365.52         15.0600
   365.66         15.0078
   365.80         14.9688
   365.94         14.9336
   366.08         14.8956
   366.22         14.8502
   366.36         14.7973
   366.50         14.7417
   366.64         14.6894
   366.78         14.6468
   366.92         14.6191
   367.06         14.6066
   367.20         14.6059
   367.34         14.6127
   367.48         14.6228
   367.62         14.6320
   367.76         14.6368
   367.90         14.6334
   368.04         14.6177
   368.18         14.5852
   368.32         14.5324
   368.46         14.4601
   368.60         14.3789
   368.74         14.3047
   368.88         14.2471
   369.02         14.2052
   369.16         14.1753
   369.30         14.1580
   369.44         14.1557
   369.58         14.1706
   369.72         14.2075
   369.86         14.2749
   370.00         14.3763
   370.14         14.5082
   370.28         14.6648
   370.42         14.8430
   370.56         15.0395
   370.70         15.2458
   370.84         15.4480
   370.98         15.6301
   371.12         15.7770
   371.26         15.8818
   371.40         15.9446
   371.54         15.9707
   371.68         15.9753
   371.82         15.9782
   371.96         15.9923
   372.10         16.0182
   372.24         16.0500
   372.38         16.0807
   372.52         16.1036
   372.66         16.1137
   372.80         16.1193
   372.94         16.1448
   373.08         16.2182
   373.22         16.3548
   373.36         16.5536
   373.50         16.8013
   373.64         17.0754
   373.78         17.3471
   373.92         17.5827
   374.06         17.7492
   374.20         17.8282
   374.34         17.8230
   374.48         17.7557
   374.62         17.6647
   374.76         17.5981
   374.90         17.6044
   375.04         17.7251
   375.18         17.9857
   375.32         18.3888
   375.46         18.9098
   375.60         19.4937
   375.74         20.0578
   375.88         20.5088
   376.02         20.7683
   376.16         20.7921
   376.30         20.5796
   376.44         20.1748
   376.58         19.6588
   376.72         19.1416
   376.86         18.7444
   377.00         18.5725
   377.14         18.6957
   377.28         19.1417
   377.42         19.8936
   377.56         20.8964
   377.70         22.0706
   377.84         23.3202
   377.98         24.5377
   378.12         25.6143
   378.26         26.4519
   378.40         26.9722
   378.54         27.1244
   378.68         26.8916
   378.82         26.2952
   378.96         25.3957
   379.10         24.2866
   379.24         23.0853
   379.38         21.9228
   379.52         20.9260
   379.66         20.2017
   379.80         19.8311
   379.94         19.8646
   380.08         20.3152
   380.22         21.1606
   380.36         22.3510
   380.50         23.8120
   380.64         25.4469
   380.78         27.1469
   380.92         28.8039
   381.06         30.3244
   381.20         31.6386
   381.34         32.7050
   381.48         33.5042
   381.62         34.0260
   381.76         34.2623
   381.90         34.2067
   382.04         33.8516
   382.18         33.1876
   382.32         32.2130
   382.46         30.9450
   382.60         29.4269
   382.74         27.7304
   382.88         25.9554
   383.02         24.2198
   383.16         22.6418
   383.30         21.3293
   383.44         20.3778
   383.58         19.8626
   383.72         19.8272
   383.86         20.2739
   384.00         21.1659
   384.14         22.4323
   384.28         23.9769
   384.42         25.6910
   384.56         27.4640
   384.70         29.1959
   384.84         30.8090
   384.98         32.2538
   385.12         33.5073
   385.26         34.5659
   385.40         35.4378
   385.54         36.1373
   385.68         36.6823
   385.82         37.0929
   385.96         37.3908
   386.10         37.5951
   386.24         37.7124
   386.38         37.7377
   386.52         37.6641
   386.66         37.4844
   386.80         37.1871
   386.94         36.7567
   387.08         36.1772
   387.22         35.4358
   387.36         34.5228
   387.50         33.4283
   387.64         32.1434
   387.78         30.6703
   387.92         29.0329
   388.06         27.2821
   388.20         25.4932
   388.34         23.7558
   388.48         22.1660
   388.62         20.8212
   388.76         19.8123
   388.90         19.2117
   389.04         19.0665
   389.18         19.3939
   389.32         20.1735
   389.46         21.3486
   389.60         22.8371
   389.74         24.5429
   389.88         26.3638
   390.02         28.1985
   390.16         29.9557
   390.30         31.5668
   390.44         32.9951
   390.58         34.2297
   390.72         35.2731
   390.86         36.1356
   391.00         36.8365
   391.14         37.4052
   391.28         37.8734
   391.42         38.2679
   391.56         38.6063
   391.70         38.8952
   391.84         39.1339
   391.98         39.3165
   392.12         39.4328
   392.26         39.4726
   392.40         39.4313
   392.54         39.3128
   392.68         39.1284
   392.82         38.8970
   392.96         38.6457
   393.10         38.4030
   393.24         38.1917
   393.38         38.0267
   393.52         37.9175
   393.66         37.8681
   393.80         37.8724
   393.94         37.9116
   394.08         37.9580
   394.22         37.9767
   394.36         37.9285
   394.50         37.7780
   394.64         37.4967
   394.78         37.0643
   394.92         36.4729
   395.06         35.7266
   395.20         34.8325
   395.34         33.7977
   395.48         32.6299
   395.62         31.3344
   395.76         29.9157
   395.90         28.3827
   396.04         26.7593
   396.18         25.0905
   396.32         23.4406
   396.46         21.8866
   396.60         20.5138
   396.74         19.4068
   396.88         18.6371
   397.02         18.2562
   397.16         18.2899
   397.30         18.7353
   397.44         19.5600
   397.58         20.7048
   397.72         22.0898
   397.86         23.6264
   398.00         25.2263
   398.14         26.8059
   398.28         28.2933
   398.42         29.6411
   398.56         30.8329
   398.70         31.8786
   398.84         32.7988
   398.98         33.6130
   399.12         34.3364
   399.26         34.9799
   399.40         35.5485
   399.54         36.0418
   399.68         36.4558
   399.82         36.7848
   399.96         37.0241
   400.10         37.1731
   400.24         37.2367
   400.38         37.2244
   400.52         37.1490
   400.66         37.0252
   400.80         36.8690
   400.94         36.7013
   401.08         36.5459
   401.22         36.4217
   401.36         36.3361
   401.50         36.2854
   401.64         36.2614
   401.78         36.2566
   401.92         36.2670
   402.06         36.2905
   402.20         36.3224
   402.34         36.3546
   402.48         36.3787
   402.62         36.3897
   402.76         36.3867
   402.90         36.3728
   403.04         36.3538
   403.18         36.3381
   403.32         36.3323
   403.46         36.3382
   403.60         36.3544
   403.74         36.3753
   403.88         36.3922
   404.02         36.3979
   404.16         36.3873
   404.30         36.3577
   404.44         36.3095
   404.58         36.2450
   404.72         36.1644
   404.86         36.0646
   405.00         35.9431
   405.14         35.8015
   405.28         35.6440
   405.42         35.4758
   405.56         35.3025
   405.70         35.1282
   405.84         34.9560
   405.98         34.7866
   406.12         34.6210
   406.26         34.4606
   406.40         34.3029
   406.54         34.1424
   406.68         33.9736
   406.82         33.7943
   406.96         33.6049
   407.10         33.4043
   407.24         33.1874
   407.38         32.9470
   407.52         32.6776
   407.66         32.3785
   407.80         32.0502
   407.94         31.6890
   408.08         31.2834
   408.22         30.8171
   408.36         30.2705
   408.50         29.6222
   408.64         28.8496
   408.78         27.9335
   408.92         26.8618
   409.06         25.6374
   409.20         24.2844
   409.34         22.8500
   409.48         21.4009
   409.62         20.0155
   409.76         18.7765
   409.90         17.7660
   410.04         17.0564
   410.18         16.7012
   410.32         16.7267
   410.46         17.1265
   410.60         17.8647
   410.74         18.8845
   410.88         20.1150
   411.02         21.4742
   411.16         22.8750
   411.30         24.2370
   411.44         25.4958
   411.58         26.6116
   411.72         27.5687
   411.86         28.3700
   412.00         29.0316
   412.14         29.5748
   412.28         30.0179
   412.42         30.3760
   412.56         30.6635
   412.70         30.8949
   412.84         31.0841
   412.98         31.2417
   413.12         31.3755
   413.26         31.4913
   413.40         31.5940
   413.54         31.6868
   413.68         31.7713
   413.82         31.8516
   413.96         31.9357
   414.10         32.0310
   414.24         32.1408
   414.38         32.2619
   414.52         32.3884
   414.66         32.5141
   414.80         32.6332
   414.94         32.7434
   415.08         32.8482
   415.22         32.9518
   415.36         33.0544
   415.50         33.1513
   415.64         33.2353
   415.78         33.3004
   415.92         33.3427
   416.06         33.3601
   416.20         33.3489
   416.34         33.3064
   416.48         33.2330
   416.62         33.1299
   416.76         32.9982
   416.90         32.8423
   417.04         32.6713
   417.18         32.4977
   417.32         32.3343
   417.46         32.1913
   417.60         32.0755
   417.74         31.9897
   417.88         31.9351
   418.02         31.9109
   418.16         31.9128
   418.30         31.9352
   418.44         31.9707
   418.58         32.0113
   418.72         32.0484
   418.86         32.0750
   419.00         32.0863
   419.14         32.0792
   419.28         32.0516
   419.42         32.0034
   419.56         31.9375
   419.70         31.8588
   419.84         31.7722
   419.98         31.6815
   420.12         31.5901
   420.26         31.5020
   420.40         31.4228
   420.54         31.3579
   420.68         31.3081
   420.82         31.2716
   420.96         31.2480
   421.10         31.2369
   421.24         31.2366
   421.38         31.2419
   421.52         31.2465
   421.66         31.2457
   421.80         31.2373
   421.94         31.2201
   422.08         31.1922
   422.22         31.1523
   422.36         31.1018
   422.50         31.0438
   422.64         30.9832
   422.78         30.9251
   422.92         30.8751
   423.06         30.8376
   423.20         30.8138
   423.34         30.7999
   423.48         30.7908
   423.62         30.7818
   423.76         30.7681
   423.90         30.7450
   424.04         30.7094
   424.18         30.6638
   424.32         30.6135
   424.46         30.5628
   424.60         30.5137
   424.74         30.4659
   424.88         30.4202
   425.02         30.3807
   425.16         30.3518
   425.30         30.3342
   425.44         30.3244
   425.58         30.3168
   425.72         30.3041
   425.86         30.2768
   426.00         30.2270
   426.14         30.1517
   426.28         30.0517
   426.42         29.9308
   426.56         29.7962
   426.70         29.6575
   426.84         29.5250
   426.98         29.4060
   427.12         29.3037
   427.26         29.2184
   427.40         29.1506
   427.54         29.1035
   427.68         29.0809
   427.82         29.0815
   427.96         29.0972
   428.10         29.1176
   428.24         29.1346
   428.38         29.1424
   428.52         29.1382
   428.66         29.1225
   428.80         29.0972
   428.94         29.0646
   429.08         29.0263
   429.22         28.9838
   429.36         28.9374
   429.50         28.8861
   429.64         28.8285
   429.78         28.7649
   429.92         28.6981
   430.06         28.6321
   430.20         28.5688
   430.34         28.5056
   430.48         28.4362
   430.62         28.3539
   430.76         28.2550
   430.90         28.1386
   431.04         28.0038
   431.18         27.8476
   431.32         27.6663
   431.46         27.4558
   431.60         27.2113
   431.74         26.9277
   431.88         26.5993
   432.02         26.2190
   432.16         25.7783
   432.30         25.2672
   432.44         24.6744
   432.58         23.9866
   432.72         23.1901
   432.86         22.2766
   433.00         21.2507
   433.14         20.1333
   433.28         18.9626
   433.42         17.7908
   433.56         16.6784
   433.70         15.6872
   433.84         14.8766
   433.98         14.2976
   434.12         13.9878
   434.26         13.9678
   434.40         14.2382
   434.54         14.7793
   434.68         15.5537
   434.82         16.5088
   434.96         17.5829
   435.10         18.7127
   435.24         19.8393
   435.38         20.9128
   435.52         21.8977
   435.66         22.7744
   435.80         23.5364
   435.94         24.1855
   436.08         24.7294
   436.22         25.1790
   436.36         25.5459
   436.50         25.8423
   436.64         26.0805
   436.78         26.2720
   436.92         26.4272
   437.06         26.5545
   437.20         26.6589
   437.34         26.7414
   437.48         26.8013
   437.62         26.8388
   437.76         26.8551
   437.90         26.8497
   438.04         26.8247
   438.18         26.7884
   438.32         26.7512
   438.46         26.7214
   438.60         26.7046
   438.74         26.7037
   438.88         26.7183
   439.02         26.7457
   439.16         26.7830
   439.30         26.8269
   439.44         26.8746
   439.58         26.9238
   439.72         26.9709
   439.86         27.0114
   440.00         27.0441
   440.14         27.0707
   440.28         27.0923
   440.42         27.1076
   440.56         27.1162
   440.70         27.1198
   440.84         27.1188
   440.98         27.1079
   441.12         27.0794
   441.26         27.0275
   441.40         26.9513
   441.54         26.8534
   441.68         26.7388
   441.82         26.6129
   441.96         26.4798
   442.10         26.3442
   442.24         26.2100
   442.38         26.0794
   442.52         25.9558
   442.66         25.8440
   442.80         25.7478
   442.94         25.6701
   443.08         25.6130
   443.22         25.5780
   443.36         25.5640
   443.50         25.5658
   443.64         25.5777
   443.78         25.5972
   443.92         25.6247
   444.06         25.6591
   444.20         25.6976
   444.34         25.7370
   444.48         25.7759
   444.62         25.8164
   444.76         25.8617
   444.90         25.9125
   445.04         25.9675
   445.18         26.0252
   445.32         26.0834
   445.46         26.1376
   445.60         26.1806
   445.74         26.2055
   445.88         26.2074
   446.02         26.1834
   446.16         26.1332
   446.30         26.0623
   446.44         25.9807
   446.58         25.8965
   446.72         25.8123
   446.86         25.7249
   447.00         25.6305
   447.14         25.5282
   447.28         25.4204
   447.42         25.3101
   447.56         25.2024
   447.70         25.1030
   447.84         25.0177
   447.98         24.9494
   448.12         24.8982
   448.26         24.8644
   448.40         24.8496
   448.54         24.8554
   448.68         24.8816
   448.82         24.9255
   448.96         24.9834
   449.10         25.0489
   449.24         25.1140
   449.38         25.1717
   449.52         25.2188
   449.66         25.2564
   449.80         25.2873
   449.94         25.3133
   450.08         25.3333
   450.22         25.3459
   450.36         25.3501
   450.50         25.3448
   450.64         25.3300
   450.78         25.3082
   450.92         25.2829
   451.06         25.2552
   451.20         25.2243
   451.34         25.1884
   451.48         25.1465
   451.62         25.1010
   451.76         25.0573
   451.90         25.0192
   452.04         24.9863
   452.18         24.9578
   452.32         24.9327
   452.46         24.9109
   452.60         24.8932
   452.74         24.8790
   452.88         24.8650
   453.02         24.8472
   453.16         24.8233
   453.30         24.7918
   453.44         24.7503
   453.58         24.6943
   453.72         24.6207
   453.86         24.5307
   454.00         24.4299
   454.14         24.3250
   454.28         24.2231
   454.42         24.1289
   454.56         24.0420
   454.70         23.9625
   454.84         23.8927
   454.98         23.8347
   455.12         23.7889
   455.26         23.7547
   455.40         23.7305
   455.54         23.7132
   455.68         23.7013
   455.82         23.6952
   455.96         23.6927
   456.10         23.6902
   456.24         23.6867
   456.38         23.6856
   456.52         23.6913
   456.66         23.7059
   456.80         23.7293
   456.94         23.7589
   457.08         23.7894
   457.22         23.8161
   457.36         23.8366
   457.50         23.8489
   457.64         23.8485
   457.78         23.8310
   457.92         23.7950
   458.06         23.7423
   458.20         23.6775
   458.34         23.6071
   458.48         23.5366
   458.62         23.4702
   458.76         23.4122
   458.90         23.3673
   459.04         23.3366
   459.18         23.3179
   459.32         23.3089
   459.46         23.3068
   459.60         23.3068
   459.74         23.3033
   459.88         23.2930
   460.02         23.2750
   460.16         23.2492
   460.30         23.2155
   460.44         23.1776
   460.58         23.1430
   460.72         23.1195
   460.86         23.1107
   461.00         23.1152
   461.14         23.1299
   461.28         23.1526
   461.42         23.1795
   461.56         23.2034
   461.70         23.2163
   461.84         23.2129
   461.98         23.1900
   462.12         23.1449
   462.26         23.0779
   462.40         22.9935
   462.54         22.8997
   462.68         22.8051
   462.82         22.7170
   462.96         22.6412
   463.10         22.5824
   463.24         22.5431
   463.38         22.5238
   463.52         22.5254
   463.66         22.5483
   463.80         22.5913
   463.94         22.6500
   464.08         22.7173
   464.22         22.7853
   464.36         22.8483
   464.50         22.9033
   464.64         22.9479
   464.78         22.9796
   464.92         22.9972
   465.06         23.0020
   465.20         22.9956
   465.34         22.9773
   465.48         22.9456
   465.62         22.9001
   465.76         22.8424
   465.90         22.7787
   466.04         22.7178
   466.18         22.6661
   466.32         22.6248
   466.46         22.5928
   466.60         22.5699
   466.74         22.5585
   466.88         22.5596
   467.02         22.5733
   467.16         22.5973
   467.30         22.6275
   467.44         22.6609
   467.58         22.6958
   467.72         22.7290
   467.86         22.7547
   468.00         22.7670
   468.14         22.7639
   468.28         22.7490
   468.42         22.7274
   468.56         22.7024
   468.70         22.6736
   468.84         22.6381
   468.98         22.5936
   469.12         22.5400
   469.26         22.4791
   469.40         22.4133
   469.54         22.3445
   469.68         22.2738
   469.82         22.2019
   469.96         22.1302
   470.10         22.0608
   470.24         21.9949
   470.38         21.9333
   470.52         21.8778
   470.66         21.8311
   470.80         21.7968
   470.94         21.7778
   471.08         21.7741
   471.22         21.7838
   471.36         21.8037
   471.50         21.8296
   471.64         21.8574
   471.78         21.8842
   471.92         21.9103
   472.06         21.9357
   472.20         21.9581
   472.34         21.9737
   472.48         21.9797
   472.62         21.9738
   472.76         21.9539
   472.90         21.9202
   473.04         21.8760
   473.18         21.8255
   473.32         21.7719
   473.46         21.7163
   473.60         21.6574
   473.74         21.5938
   473.88         21.5264
   474.02         21.4582
   474.16         21.3940
   474.30         21.3387
   474.44         21.2951
   474.58         21.2618
   474.72         21.2339
   474.86         21.2066
   475.00         21.1764
   475.14         21.1393
   475.28         21.0937
   475.42         21.0414
   475.56         20.9867
   475.70         20.9339
   475.84         20.8840
   475.98         20.8357
   476.12         20.7875
   476.26         20.7393
   476.40         20.6947
   476.54         20.6601
   476.68         20.6391
   476.82         20.6299
   476.96         20.6283
   477.10         20.6299
   477.24         20.6307
   477.38         20.6275
   477.52         20.6180
   477.66         20.5999
   477.80         20.5711
   477.94         20.5310
   478.08         20.4803
   478.22         20.4196
   478.36         20.3493
   478.50         20.2710
   478.64         20.1886
   478.78         20.1079
   478.92         20.0367
   479.06         19.9828
   479.20         19.9495
   479.34         19.9346
   479.48         19.9345
   479.62         19.9468
   479.76         19.9709
   479.90         20.0060
   480.04         20.0498
   480.18         20.0983
   480.32         20.1458
   480.46         20.1875
   480.60         20.2186
   480.74         20.2344
   480.88         20.2322
   481.02         20.2119
   481.16         20.1755
   481.30         20.1263
   481.44         20.0681
   481.58         20.0033
   481.72         19.9311
   481.86         19.8513
   482.00         19.7662
   482.14         19.6788
   482.28         19.5918
   482.42         19.5075
   482.56         19.4258
   482.70         19.3453
   482.84         19.2651
   482.98         19.1854
   483.12         19.1050
   483.26         19.0213
   483.40         18.9333
   483.54         18.8401
   483.68         18.7360
   483.82         18.6116
   483.96         18.4565
   484.10         18.2620
   484.24         18.0227
   484.38         17.7358
   484.52         17.4014
   484.66         17.0194
   484.80         16.5879
   484.94         16.1061
   485.08         15.5744
   485.22         14.9944
   485.36         14.3722
   485.50         13.7194
   485.64         13.0527
   485.78         12.3954
   485.92         11.7780
   486.06         11.2347
   486.20         10.7974
   486.34         10.4932
   486.48         10.3424
   486.62         10.3560
   486.76         10.5341
   486.90         10.8641
   487.04         11.3225
   487.18         11.8796
   487.32         12.5022
   487.46         13.1549
   487.60         13.8034
   487.74         14.4178
   487.88         14.9775
   488.02         15.4723
   488.16         15.9002
   488.30         16.2654
   488.44         16.5763
   488.58         16.8425
   488.72         17.0724
   488.86         17.2752
   489.00         17.4598
   489.14         17.6319
   489.28         17.7943
   489.42         17.9490
   489.56         18.0979
   489.70         18.2413
   489.84         18.3759
   489.98         18.4969
   490.12         18.6008
   490.26         18.6875
   490.40         18.7596
   490.54         18.8207
   490.68         18.8744
   490.82         18.9240
   490.96         18.9719
   491.10         19.0193
   491.24         19.0649
   491.38         19.1057
   491.52         19.1382
   491.66         19.1578
   491.80         19.1600
   491.94         19.1429
   492.08         19.1089
   492.22         19.0619
   492.36         19.0055
   492.50         18.9437
   492.64         18.8830
   492.78         18.8307
   492.92         18.7937
   493.06         18.7776
   493.20         18.7852
   493.34         18.8150
   493.48         18.8616
   493.62         18.9169
   493.76         18.9721
   493.90         19.0184
   494.04         19.0504
   494.18         19.0656
   494.32         19.0626
   494.46         19.0402
   494.60         19.0000
   494.74         18.9470
   494.88         18.8879
   495.02         18.8286
   495.16         18.7756
   495.30         18.7352
   495.44         18.7113
   495.58         18.7040
   495.72         18.7088
   495.86         18.7177
   496.00         18.7230
   496.14         18.7192
   496.28         18.7031
   496.42         18.6734
   496.56         18.6306
   496.70         18.5761
   496.84         18.5122
   496.98         18.4427
   497.12         18.3731
   497.26         18.3089
   497.40         18.2539
   497.54         18.2101
   497.68         18.1786
   497.82         18.1589
   497.96         18.1488
   498.10         18.1436
   498.24         18.1381
   498.38         18.1282
   498.52         18.1136
   498.66         18.0964
   498.80         18.0784
   498.94         18.0600
   499.08         18.0388
   499.22         18.0083
   499.36         17.9628
   499.50         17.9027
   499.64         17.8315
   499.78         17.7531
   499.92         17.6718
   500.06         17.5930
   500.20         17.5228
   500.34         17.4661
   500.48         17.4265
   500.62         17.4063
   500.76         17.4051
   500.90         17.4204
   501.04         17.4491
   501.18         17.4852
   501.32         17.5198
   501.46         17.5438
   501.60         17.5533
   501.74         17.5498
   501.88         17.5384
   502.02         17.5266
   502.16         17.5203
   502.30         17.5213
   502.44         17.5291
   502.58         17.5427
   502.72         17.5606
   502.86         17.5796
   503.00         17.5952
   503.14         17.6022
   503.28         17.5957
   503.42         17.5715
   503.56         17.5271
   503.70         17.4628
   503.84         17.3817
   503.98         17.2899
   504.12         17.1968
   504.26         17.1109
   504.40         17.0370
   504.54         16.9757
   504.68         16.9267
   504.82         16.8893
   504.96         16.8617
   505.10         16.8410
   505.24         16.8242
   505.38         16.8091
   505.52         16.7949
   505.66         16.7816
   505.80         16.7695
   505.94         16.7585
   506.08         16.7494
   506.22         16.7443
   506.36         16.7445
   506.50         16.7503
   506.64         16.7616
   506.78         16.7780
   506.92         16.7990
   507.06         16.8241
   507.20         16.8519
   507.34         16.8820
   507.48         16.9142
   507.62         16.9485
   507.76         16.9843
   507.90         17.0204
   508.04         17.0544
   508.18         17.0837
   508.32         17.1057
   508.46         17.1175
   508.60         17.1178
   508.74         17.1075
   508.88         17.0879
   509.02         17.0607
   509.16         17.0291
   509.30         16.9975
   509.44         16.9690
   509.58         16.9457
   509.72         16.9275
   509.86         16.9116
   510.00         16.8945
   510.14         16.8727
   510.28         16.8428
   510.42         16.8033
   510.56         16.7554
   510.70         16.7015
   510.84         16.6444
   510.98         16.5864
   511.12         16.5292
   511.26         16.4756
   511.40         16.4292
   511.54         16.3928
   511.68         16.3667
   511.82         16.3502
   511.96         16.3419
   512.10         16.3401
   512.24         16.3419
   512.38         16.3443
   512.52         16.3468
   512.66         16.3513
   512.80         16.3597
   512.94         16.3731
   513.08         16.3902
   513.22         16.4074
   513.36         16.4216
   513.50         16.4312
   513.64         16.4355
   513.78         16.4353
   513.92         16.4319
   514.06         16.4264
   514.20         16.4189
   514.34         16.4100
   514.48         16.4002
   514.62         16.3898
   514.76         16.3791
   514.90         16.3692
   515.04         16.3625
   515.18         16.3591
   515.32         16.3553
   515.46         16.3464
   515.60         16.3292
   515.74         16.3017
   515.88         16.2640
   516.02         16.2175
   516.16         16.1636
   516.30         16.1032
   516.44         16.0374
   516.58         15.9684
   516.72         15.8989
   516.86         15.8309
   517.00         15.7658
   517.14         15.7053
   517.28         15.6533
   517.42         15.6144
   517.56         15.5905
   517.70         15.5808
   517.84         15.5832
   517.98         15.5962
   518.12         15.6191
   518.26         15.6511
   518.40         15.6897
   518.54         15.7313
   518.68         15.7724
   518.82         15.8096
   518.96         15.8413
   519.10         15.8666
   519.24         15.8855
   519.38         15.8983
   519.52         15.9062
   519.66         15.9103
   519.80         15.9111
   519.94         15.9084
   520.08         15.9011
   520.22         15.8880
   520.36         15.8687
   520.50         15.8431
   520.64         15.8103
   520.78         15.7694
   520.92         15.7208
   521.06         15.6661
   521.20         15.6078
   521.34         15.5485
   521.48         15.4916
   521.62         15.4409
   521.76         15.3987
   521.90         15.3658
   522.04         15.3412
   522.18         15.3224
   522.32         15.3056
   522.46         15.2886
   522.60         15.2715
   522.74         15.2552
   522.88         15.2396
   523.02         15.2245
   523.16         15.2104
   523.30         15.1995
   523.44         15.1949
   523.58         15.1990
   523.72         15.2114
   523.86         15.2294
   524.00         15.2498
   524.14         15.2705
   524.28         15.2898
   524.42         15.3050
   524.56         15.3138
   524.70         15.3153
   524.84         15.3093
   524.98         15.2958
   525.12         15.2756
   525.26         15.2503
   525.40         15.2217
   525.54         15.1915
   525.68         15.1619
   525.82         15.1343
   525.96         15.1085
   526.10         15.0830
   526.24         15.0567
   526.38         15.0297
   526.52         15.0034
   526.66         14.9794
   526.80         14.9585
   526.94         14.9401
   527.08         14.9236
   527.22         14.9087
   527.36         14.8952
   527.50         14.8832
   527.64         14.8730
   527.78         14.8655
   527.92         14.8620
   528.06         14.8625
   528.20         14.8653
   528.34         14.8689
   528.48         14.8716
   528.62         14.8734
   528.76         14.8755
   528.90         14.8787
   529.04         14.8829
   529.18         14.8866
   529.32         14.8871
   529.46         14.8816
   529.60         14.8682
   529.74         14.8465
   529.88         14.8175
   530.02         14.7823
   530.16         14.7424
   530.30         14.6994
   530.44         14.6554
   530.58         14.6116
   530.72         14.5685
   530.86         14.5267
   531.00         14.4879
   531.14         14.4539
   531.28         14.4261
   531.42         14.4047
   531.56         14.3892
   531.70         14.3786
   531.84         14.3711
   531.98         14.3645
   532.12         14.3573
   532.26         14.3491
   532.40         14.3396
   532.54         14.3284
   532.68         14.3149
   532.82         14.2994
   532.96         14.2825
   533.10         14.2641
   533.24         14.2439
   533.38         14.2234
   533.52         14.2045
   533.66         14.1894
   533.80         14.1787
   533.94         14.1725
   534.08         14.1703
   534.22         14.1716
   534.36         14.1756
   534.50         14.1812
   534.64         14.1874
   534.78         14.1924
   534.92         14.1943
   535.06         14.1914
   535.20         14.1840
   535.34         14.1730
   535.48         14.1588
   535.62         14.1414
   535.76         14.1208
   535.90         14.0979
   536.04         14.0748
   536.18         14.0539
   536.32         14.0376
   536.46         14.0276
   536.60         14.0247
   536.74         14.0290
   536.88         14.0397
   537.02         14.0547
   537.16         14.0704
   537.30         14.0839
   537.44         14.0938
   537.58         14.1012
   537.72         14.1079
   537.86         14.1147
   538.00         14.1207
   538.14         14.1235
   538.28         14.1210
   538.42         14.1128
   538.56         14.0998
   538.70         14.0829
   538.84         14.0624
   538.98         14.0381
   539.12         14.0092
   539.26         13.9756
   539.40         13.9379
   539.54         13.8974
   539.68         13.8556
   539.82         13.8152
   539.96         13.7798
   540.10         13.7515
   540.24         13.7304
   540.38         13.7149
   540.52         13.7027
   540.66         13.6922
   540.80         13.6823
   540.94         13.6719
   541.08         13.6602
   541.22         13.6469
   541.36         13.6323
   541.50         13.6168
   541.64         13.5995
   541.78         13.5797
   541.92         13.5575
   542.06         13.5339
   542.20         13.5100
   542.34         13.4869
   542.48         13.4666
   542.62         13.4510
   542.76         13.4411
   542.90         13.4370
   543.04         13.4375
   543.18         13.4413
   543.32         13.4465
   543.46         13.4509
   543.60         13.4529
   543.74         13.4518
   543.88         13.4472
   544.02         13.4379
   544.16         13.4219
   544.30         13.3990
   544.44         13.3706
   544.58         13.3390
   544.72         13.3063
   544.86         13.2757
   545.00         13.2508
   545.14         13.2350
   545.28         13.2295
   545.42         13.2332
   545.56         13.2447
   545.70         13.2620
   545.84         13.2822
   545.98         13.3013
   546.12         13.3154
   546.26         13.3221
   546.40         13.3196
   546.54         13.3068
   546.68         13.2838
   546.82         13.2522
   546.96         13.2146
   547.10         13.1741
   547.24         13.1336
   547.38         13.0965
   547.52         13.0669
   547.66         13.0475
   547.80         13.0394
   547.94         13.0422
   548.08         13.0546
   548.22         13.0740
   548.36         13.0960
   548.50         13.1166
   548.64         13.1343
   548.78         13.1489
   548.92         13.1608
   549.06         13.1694
   549.20         13.1735
   549.34         13.1726
   549.48         13.1668
   549.62         13.1572
   549.76         13.1447
   549.90         13.1305
   550.04         13.1167
   550.18         13.1048
   550.32         13.0944
   550.46         13.0845
   550.60         13.0735
   550.74         13.0592
   550.88         13.0398
   551.02         13.0146
   551.16         12.9857
   551.30         12.9557
   551.44         12.9265
   551.58         12.8989
   551.72         12.8726
   551.86         12.8464
   552.00         12.8193
   552.14         12.7911
   552.28         12.7629
   552.42         12.7363
   552.56         12.7132
   552.70         12.6942
   552.84         12.6790
   552.98         12.6665
   553.12         12.6552
   553.26         12.6432
   553.40         12.6296
   553.54         12.6141
   553.68         12.5977
   553.82         12.5814
   553.96         12.5659
   554.10         12.5514
   554.24         12.5381
   554.38         12.5258
   554.52         12.5150
   554.66         12.5072
   554.80         12.5035
   554.94         12.5029
   555.08         12.5030
   555.22         12.5011
   555.36         12.4955
   555.50         12.4853
   555.64         12.4715
   555.78         12.4558
   555.92         12.4403
   556.06         12.4264
   556.20         12.4147
   556.34         12.4061
   556.48         12.4014
   556.62         12.3994
   556.76         12.3984
   556.90         12.3965
   557.04         12.3911
   557.18         12.3804
   557.32         12.3640
   557.46         12.3418
   557.60         12.3157
   557.74         12.2894
   557.88         12.2674
   558.02         12.2528
   558.16         12.2462
   558.30         12.2464
   558.44         12.2506
   558.58         12.2549
   558.72         12.2562
   558.86         12.2523
   559.00         12.2423
   559.14         12.2246
   559.28         12.1982
   559.42         12.1642
   559.56         12.1254
   559.70         12.0857
   559.84         12.0489
   559.98         12.0184
   560.12         11.9956
   560.26         11.9812
   560.40         11.9750
   560.54         11.9759
   560.68         11.9812
   560.82         11.9869
   560.96         11.9892
   561.10         11.9859
   561.24         11.9771
   561.38         11.9641
   561.52         11.9481
   561.66         11.9301
   561.80         11.9108
   561.94         11.8915
   562.08         11.8746
   562.22         11.8608
   562.36         11.8489
   562.50         11.8364
   562.64         11.8219
   562.78         11.8048
   562.92         11.7854
   563.06         11.7637
   563.20         11.7391
   563.34         11.7102
   563.48         11.6765
   563.62         11.6401
   563.76         11.6040
   563.90         11.5709
   564.04         11.5413
   564.18         11.5154
   564.32         11.4930
   564.46         11.4748
   564.60         11.4612
   564.74         11.4529
   564.88         11.4495
   565.02         11.4498
   565.16         11.4529
   565.30         11.4580
   565.44         11.4638
   565.58         11.4685
   565.72         11.4708
   565.86         11.4702
   566.00         11.4665
   566.14         11.4597
   566.28         11.4492
   566.42         11.4349
   566.56         11.4179
   566.70         11.4005
   566.84         11.3854
   566.98         11.3746
   567.12         11.3693
   567.26         11.3700
   567.40         11.3771
   567.54         11.3896
   567.68         11.4052
   567.82         11.4212
   567.96         11.4352
   568.10         11.4447
   568.24         11.4476
   568.38         11.4414
   568.52         11.4235
   568.66         11.3923
   568.80         11.3490
   568.94         11.2978
   569.08         11.2447
   569.22         11.1953
   569.36         11.1538
   569.50         11.1220
   569.64         11.0996
   569.78         11.0854
   569.92         11.0776
   570.06         11.0731
   570.20         11.0687
   570.34         11.0620
   570.48         11.0526
   570.62         11.0407
   570.76         11.0270
   570.90         11.0125
   571.04         10.9989
   571.18         10.9879
   571.32         10.9821
   571.46         10.9836
   571.60         10.9923
   571.74         11.0058
   571.88         11.0201
   572.02         11.0310
   572.16         11.0356
   572.30         11.0324
   572.44         11.0206
   572.58         11.0006
   572.72         10.9740
   572.86         10.9436
   573.00         10.9114
   573.14         10.8788
   573.28         10.8465
   573.42         10.8152
   573.56         10.7848
   573.70         10.7551
   573.84         10.7272
   573.98         10.7027
   574.12         10.6826
   574.26         10.6670
   574.40         10.6559
   574.54         10.6499
   574.68         10.6501
   574.82         10.6574
   574.96         10.6708
   575.10         10.6889
   575.24         10.7111
   575.38         10.7371
   575.52         10.7660
   575.66         10.7953
   575.80         10.8221
   575.94         10.8431
   576.08         10.8559
   576.22         10.8600
   576.36         10.8563
   576.50         10.8462
   576.64         10.8301
   576.78         10.8089
   576.92         10.7844
   577.06         10.7587
   577.20         10.7326
   577.34         10.7050
   577.48         10.6738
   577.62         10.6377
   577.76         10.5973
   577.90         10.5545
   578.04         10.5103
   578.18         10.4656
   578.32         10.4222
   578.46         10.3830
   578.60         10.3505
   578.74         10.3268
   578.88         10.3126
   579.02         10.3069
   579.16         10.3084
   579.30         10.3156
   579.44         10.3264
   579.58         10.3390
   579.72         10.3513
   579.86         10.3619
   580.00         10.3701
   580.14         10.3765
   580.28         10.3824
   580.42         10.3888
   580.56         10.3962
   580.70         10.4051
   580.84         10.4170
   580.98         10.4327
   581.12         10.4512
   581.26         10.4713
   581.40         10.4914
   581.54         10.5091
   581.68         10.5220
   581.82         10.5290
   581.96         10.5286
   582.10         10.5199
   582.24         10.5030
   582.38         10.4791
   582.52         10.4505
   582.66         10.4199
   582.80         10.3904
   582.94         10.3650
   583.08         10.3466
   583.22         10.3379
   583.36         10.3405
   583.50         10.3534
   583.64         10.3735
   583.78         10.3964
   583.92         10.4182
   584.06         10.4356
   584.20         10.4470
   584.34         10.4525
   584.48         10.4528
   584.62         10.4488
   584.76         10.4418
   584.90         10.4324
   585.04         10.4199
   585.18         10.4035
   585.32         10.3820
   585.46         10.3554
   585.60         10.3244
   585.74         10.2892
   585.88         10.2500
   586.02         10.2082
   586.16         10.1653
   586.30         10.1239
   586.44         10.0878
   586.58         10.0608
   586.72         10.0460
   586.86         10.0447
   587.00         10.0565
   587.14         10.0782
   587.28         10.1052
   587.42         10.1322
   587.56         10.1539
   587.70         10.1660
   587.84         10.1655
   587.98         10.1494
   588.12         10.1137
   588.26         10.0544
   588.40         9.9715
   588.54         9.8705
   588.68         9.7582
   588.82         9.6398
   588.96         9.5228
   589.10         9.4168
   589.24         9.3300
   589.38         9.2681
   589.52         9.2349
   589.66         9.2317
   589.80         9.2571
   589.94         9.3078
   590.08         9.3780
   590.22         9.4596
   590.36         9.5437
   590.50         9.6232
   590.64         9.6925
   590.78         9.7482
   590.92         9.7900
   591.06         9.8193
   591.20         9.8371
   591.34         9.8434
   591.48         9.8406
   591.62         9.8326
   591.76         9.8226
   591.90         9.8121
   592.04         9.8027
   592.18         9.7961
   592.32         9.7926
   592.46         9.7907
   592.60         9.7885
   592.74         9.7851
   592.88         9.7806
   593.02         9.7761
   593.16         9.7718
   593.30         9.7668
   593.44         9.7600
   593.58         9.7504
   593.72         9.7375
   593.86         9.7216
   594.00         9.7038
   594.14         9.6848
   594.28         9.6654
   594.42         9.6462
   594.56         9.6270
   594.70         9.6065
   594.84         9.5831
   594.98         9.5562
   595.12         9.5265
   595.26         9.4962
   595.40         9.4675
   595.54         9.4425
   595.68         9.4229
   595.82         9.4088
   595.96         9.4001
   596.10         9.3959
   596.24         9.3947
   596.38         9.3954
   596.52         9.3967
   596.66         9.3970
   596.80         9.3941
   596.94         9.3854
   597.08         9.3694
   597.22         9.3466
   597.36         9.3198
   597.50         9.2929
   597.64         9.2694
   597.78         9.2518
   597.92         9.2417
   598.06         9.2394
   598.20         9.2447
   598.34         9.2563
   598.48         9.2723
   598.62         9.2906
   598.76         9.3096
   598.90         9.3261
   599.04         9.3367
   599.18         9.3383
   599.32         9.3290
   599.46         9.3097
   599.60         9.2823
   599.74         9.2501
   599.88         9.2166
   600.02         9.1844
   600.16         9.1542
   600.30         9.1260
   600.44         9.1009
   600.58         9.0799
   600.72         9.0647
   600.86         9.0569
   601.00         9.0576
   601.14         9.0671
   601.28         9.0845
   601.42         9.1072
   601.56         9.1316
   601.70         9.1550
   601.84         9.1759
   601.98         9.1931
   602.12         9.2050
   602.26         9.2097
   602.40         9.2065
   602.54         9.1964
   602.68         9.1810
   602.82         9.1618
   602.96         9.1408
   603.10         9.1190
   603.24         9.0974
   603.38         9.0766
   603.52         9.0572
   603.66         9.0386
   603.80         9.0204
   603.94         9.0020
   604.08         8.9836
   604.22         8.9657
   604.36         8.9496
   604.50         8.9363
   604.64         8.9263
   604.78         8.9195
   604.92         8.9161
   605.06         8.9158
   605.20         8.9173
   605.34         8.9182
   605.48         8.9162
   605.62         8.9097
   605.76         8.8990
   605.90         8.8852
   606.04         8.8701
   606.18         8.8552
   606.32         8.8422
   606.46         8.8325
   606.60         8.8266
   606.74         8.8245
   606.88         8.8256
   607.02         8.8293
   607.16         8.8346
   607.30         8.8408
   607.44         8.8470
   607.58         8.8522
   607.72         8.8554
   607.86         8.8556
   608.00         8.8523
   608.14         8.8460
   608.28         8.8371
   608.42         8.8262
   608.56         8.8136
   608.70         8.7997
   608.84         8.7849
   608.98         8.7695
   609.12         8.7545
   609.26         8.7407
   609.40         8.7288
   609.54         8.7199
   609.68         8.7149
   609.82         8.7145
   609.96         8.7185
   610.10         8.7256
   610.24         8.7335
   610.38         8.7397
   610.52         8.7422
   610.66         8.7396
   610.80         8.7314
   610.94         8.7182
   611.08         8.7009
   611.22         8.6808
   611.36         8.6592
   611.50         8.6375
   611.64         8.6170
   611.78         8.5988
   611.92         8.5839
   612.06         8.5735
   612.20         8.5685
   612.34         8.5685
   612.48         8.5715
   612.62         8.5749
   612.76         8.5771
   612.90         8.5773
   613.04         8.5750
   613.18         8.5696
   613.32         8.5610
   613.46         8.5495
   613.60         8.5359
   613.74         8.5213
   613.88         8.5072
   614.02         8.4950
   614.16         8.4860
   614.30         8.4804
   614.44         8.4775
   614.58         8.4760
   614.72         8.4740
   614.86         8.4697
   615.00         8.4614
   615.14         8.4489
   615.28         8.4332
   615.42         8.4157
   615.56         8.3969
   615.70         8.3772
   615.84         8.3573
   615.98         8.3383
   616.12         8.3212
   616.26         8.3070
   616.40         8.2962
   616.54         8.2888
   616.68         8.2838
   616.82         8.2798
   616.96         8.2756
   617.10         8.2706
   617.24         8.2653
   617.38         8.2607
   617.52         8.2577
   617.66         8.2565
   617.80         8.2575
   617.94         8.2608
   618.08         8.2663
   618.22         8.2736
   618.36         8.2822
   618.50         8.2916
   618.64         8.3014
   618.78         8.3114
   618.92         8.3205
   619.06         8.3275
   619.20         8.3313
   619.34         8.3310
   619.48         8.3265
   619.62         8.3179
   619.76         8.3058
   619.90         8.2916
   620.04         8.2765
   620.18         8.2617
   620.32         8.2485
   620.46         8.2375
   620.60         8.2287
   620.74         8.2217
   620.88         8.2158
   621.02         8.2109
   621.16         8.2068
   621.30         8.2036
   621.44         8.2010
   621.58         8.1987
   621.72         8.1961
   621.86         8.1928
   622.00         8.1884
   622.14         8.1827
   622.28         8.1757
   622.42         8.1683
   622.56         8.1611
   622.70         8.1543
   622.84         8.1477
   622.98         8.1414
   623.12         8.1356
   623.26         8.1306
   623.40         8.1268
   623.54         8.1242
   623.68         8.1224
   623.82         8.1212
   623.96         8.1207
   624.10         8.1210
   624.24         8.1221
   624.38         8.1237
   624.52         8.1261
   624.66         8.1292
   624.80         8.1332
   624.94         8.1374
   625.08         8.1400
   625.22         8.1384
   625.36         8.1302
   625.50         8.1145
   625.64         8.0916
   625.78         8.0625
   625.92         8.0281
   626.06         7.9903
   626.20         7.9517
   626.34         7.9149
   626.48         7.8817
   626.62         7.8523
   626.76         7.8253
   626.90         7.7989
   627.04         7.7708
   627.18         7.7394
   627.32         7.7035
   627.46         7.6634
   627.60         7.6207
   627.74         7.5780
   627.88         7.5390
   628.02         7.5077
   628.16         7.4877
   628.30         7.4812
   628.44         7.4886
   628.58         7.5094
   628.72         7.5421
   628.86         7.5843
   629.00         7.6324
   629.14         7.6820
   629.28         7.7290
   629.42         7.7705
   629.56         7.8053
   629.70         7.8331
   629.84         7.8544
   629.98         7.8701
   630.12         7.8809
   630.26         7.8867
   630.40         7.8874
   630.54         7.8825
   630.68         7.8722
   630.82         7.8573
   630.96         7.8397
   631.10         7.8215
   631.24         7.8051
   631.38         7.7917
   631.52         7.7818
   631.66         7.7756
   631.80         7.7729
   631.94         7.7736
   632.08         7.7775
   632.22         7.7837
   632.36         7.7906
   632.50         7.7965
   632.64         7.7997
   632.78         7.7995
   632.92         7.7958
   633.06         7.7886
   633.20         7.7787
   633.34         7.7662
   633.48         7.7518
   633.62         7.7356
   633.76         7.7174
   633.90         7.6965
   634.04         7.6735
   634.18         7.6494
   634.32         7.6255
   634.46         7.6027
   634.60         7.5822
   634.74         7.5652
   634.88         7.5522
   635.02         7.5434
   635.16         7.5384
   635.30         7.5364
   635.44         7.5364
   635.58         7.5368
   635.72         7.5364
   635.86         7.5334
   636.00         7.5266
   636.14         7.5158
   636.28         7.5018
   636.42         7.4859
   636.56         7.4699
   636.70         7.4553
   636.84         7.4429
   636.98         7.4333
   637.12         7.4272
   637.26         7.4248
   637.40         7.4254
   637.54         7.4278
   637.68         7.4302
   637.82         7.4318
   637.96         7.4327
   638.10         7.4328
   638.24         7.4320
   638.38         7.4299
   638.52         7.4267
   638.66         7.4233
   638.80         7.4205
   638.94         7.4187
   639.08         7.4176
   639.22         7.4170
   639.36         7.4171
   639.50         7.4182
   639.64         7.4202
   639.78         7.4227
   639.92         7.4246
   640.06         7.4250
   640.20         7.4237
   640.34         7.4202
   640.48         7.4143
   640.62         7.4056
   640.76         7.3939
   640.90         7.3794
   641.04         7.3630
   641.18         7.3462
   641.32         7.3299
   641.46         7.3149
   641.60         7.3020
   641.74         7.2922
   641.88         7.2862
   642.02         7.2841
   642.16         7.2849
   642.30         7.2873
   642.44         7.2904
   642.58         7.2935
   642.72         7.2966
   642.86         7.2991
   643.00         7.3003
   643.14         7.2994
   643.28         7.2963
   643.42         7.2914
   643.56         7.2847
   643.70         7.2759
   643.84         7.2651
   643.98         7.2530
   644.12         7.2401
   644.26         7.2269
   644.40         7.2137
   644.54         7.2010
   644.68         7.1895
   644.82         7.1801
   644.96         7.1738
   645.10         7.1711
   645.24         7.1719
   645.38         7.1750
   645.52         7.1790
   645.66         7.1822
   645.80         7.1837
   645.94         7.1834
   646.08         7.1814
   646.22         7.1778
   646.36         7.1727
   646.50         7.1668
   646.64         7.1607
   646.78         7.1550
   646.92         7.1502
   647.06         7.1473
   647.20         7.1467
   647.34         7.1485
   647.48         7.1527
   647.62         7.1585
   647.76         7.1646
   647.90         7.1693
   648.04         7.1713
   648.18         7.1697
   648.32         7.1647
   648.46         7.1574
   648.60         7.1493
   648.74         7.1415
   648.88         7.1348
   649.02         7.1300
   649.16         7.1279
   649.30         7.1288
   649.44         7.1323
   649.58         7.1373
   649.72         7.1428
   649.86         7.1480
   650.00         7.1517
   650.14         7.1528
   650.28         7.1501
   650.42         7.1424
   650.56         7.1299
   650.70         7.1138
   650.84         7.0957
   650.98         7.0774
   651.12         7.0601
   651.26         7.0445
   651.40         7.0305
   651.54         7.0176
   651.68         7.0047
   651.82         6.9905
   651.96         6.9745
   652.10         6.9562
   652.24         6.9355
   652.38         6.9118
   652.52         6.8853
   652.66         6.8562
   652.80         6.8253
   652.94         6.7931
   653.08         6.7596
   653.22         6.7248
   653.36         6.6881
   653.50         6.6487
   653.64         6.6054
   653.78         6.5568
   653.92         6.5014
   654.06         6.4381
   654.20         6.3655
   654.34         6.2828
   654.48         6.1897
   654.62         6.0859
   654.76         5.9704
   654.90         5.8416
   655.04         5.6984
   655.18         5.5421
   655.32         5.3764
   655.46         5.2078
   655.60         5.0448
   655.74         4.8967
   655.88         4.7734
   656.02         4.6834
   656.16         4.6336
   656.30         4.6275
   656.44         4.6660
   656.58         4.7469
   656.72         4.8652
   656.86         5.0132
   657.00         5.1811
   657.14         5.3582
   657.28         5.5343
   657.42         5.7004
   657.56         5.8508
   657.70         5.9827
   657.84         6.0968
   657.98         6.1946
   658.12         6.2779
   658.26         6.3480
   658.40         6.4065
   658.54         6.4548
   658.68         6.4946
   658.82         6.5281
   658.96         6.5575
   659.10         6.5849
   659.24         6.6118
   659.38         6.6382
   659.52         6.6633
   659.66         6.6868
   659.80         6.7084
   659.94         6.7279
   660.08         6.7446
   660.22         6.7573
   660.36         6.7655
   660.50         6.7696
   660.64         6.7704
   660.78         6.7688
   660.92         6.7659
   661.06         6.7625
   661.20         6.7592
   661.34         6.7568
   661.48         6.7555
   661.62         6.7548
   661.76         6.7541
   661.90         6.7521
   662.04         6.7481
   662.18         6.7421
   662.32         6.7344
   662.46         6.7252
   662.60         6.7147
   662.74         6.7031
   662.88         6.6918
   663.02         6.6820
   663.16         6.6738
   663.30         6.6667
   663.44         6.6599
   663.58         6.6532
   663.72         6.6463
   663.86         6.6390
   664.00         6.6310
   664.14         6.6220
   664.28         6.6115
   664.42         6.5998
   664.56         6.5869
   664.70         6.5730
   664.84         6.5584
   664.98         6.5430
   665.12         6.5274
   665.26         6.5123
   665.40         6.4984
   665.54         6.4861
   665.68         6.4752
   665.82         6.4653
   665.96         6.4568
   666.10         6.4496
   666.24         6.4440
   666.38         6.4400
   666.52         6.4373
   666.66         6.4354
   666.80         6.4331
   666.94         6.4299
   667.08         6.4256
   667.22         6.4200
   667.36         6.4134
   667.50         6.4066
   667.64         6.4004
   667.78         6.3956
   667.92         6.3929
   668.06         6.3926
   668.20         6.3949
   668.34         6.3998
   668.48         6.4066
   668.62         6.4148
   668.76         6.4233
   668.90         6.4316
   669.04         6.4386
   669.18         6.4434
   669.32         6.4450
   669.46         6.4437
   669.60         6.4398
   669.74         6.4339
   669.88         6.4268
   670.02         6.4190
   670.16         6.4110
   670.30         6.4033
   670.44         6.3960
   670.58         6.3892
   670.72         6.3825
   670.86         6.3749
   671.00         6.3658
   671.14         6.3550
   671.28         6.3430
   671.42         6.3304
   671.56         6.3178
   671.70         6.3053
   671.84         6.2933
   671.98         6.2818
   672.12         6.2713
   672.26         6.2621
   672.40         6.2549
   672.54         6.2499
   672.68         6.2478
   672.82         6.2488
   672.96         6.2524
   673.10         6.2578
   673.24         6.2643
   673.38         6.2713
   673.52         6.2791
   673.66         6.2875
   673.80         6.2963
   673.94         6.3045
   674.08         6.3108
   674.22         6.3145
   674.36         6.3148
   674.50         6.3114
   674.64         6.3042
   674.78         6.2943
   674.92         6.2829
   675.06         6.2712
   675.20         6.2607
   675.34         6.2525
   675.48         6.2472
   675.62         6.2451
   675.76         6.2461
   675.90         6.2503
   676.04         6.2566
   676.18         6.2636
   676.32         6.2697
   676.46         6.2734
   676.60         6.2736
   676.74         6.2697
   676.88         6.2613
   677.02         6.2488
   677.16         6.2332
   677.30         6.2157
   677.44         6.1977
   677.58         6.1806
   677.72         6.1654
   677.86         6.1529
   678.00         6.1436
   678.14         6.1371
   678.28         6.1326
   678.42         6.1294
   678.56         6.1272
   678.70         6.1261
   678.84         6.1259
   678.98         6.1263
   679.12         6.1268
   679.26         6.1269
   679.40         6.1263
   679.54         6.1249
   679.68         6.1229
   679.82         6.1201
   679.96         6.1168
   680.10         6.1131
   680.24         6.1093
   680.38         6.1056
   680.52         6.1016
   680.66         6.0966
   680.80         6.0900
   680.94         6.0816
   681.08         6.0717
   681.22         6.0604
   681.36         6.0477
   681.50         6.0336
   681.64         6.0182
   681.78         6.0025
   681.92         5.9874
   682.06         5.9743
   682.20         5.9638
   682.34         5.9562
   682.48         5.9517
   682.62         5.9500
   682.76         5.9503
   682.90         5.9518
   683.04         5.9532
   683.18         5.9536
   683.32         5.9519
   683.46         5.9474
   683.60         5.9396
   683.74         5.9291
   683.88         5.9170
   684.02         5.9051
   684.16         5.8950
   684.30         5.8879
   684.44         5.8838
   684.58         5.8822
   684.72         5.8821
   684.86         5.8821
   685.00         5.8810
   685.14         5.8779
   685.28         5.8716
   685.42         5.8604
   685.56         5.8409
   685.70         5.8083
   685.84         5.7573
   685.98         5.6844
   686.12         5.5888
   686.26         5.4732
   686.40         5.3434
   686.54         5.2069
   686.68         5.0723
   686.82         4.9483
   686.96         4.8441
   687.10         4.7675
   687.24         4.7241
   687.38         4.7162
   687.52         4.7419
   687.66         4.7958
   687.80         4.8693
   687.94         4.9521
   688.08         5.0334
   688.22         5.1035
   688.36         5.1561
   688.50         5.1892
   688.64         5.2046
   688.78         5.2065
   688.92         5.1999
   689.06         5.1893
   689.20         5.1787
   689.34         5.1719
   689.48         5.1717
   689.62         5.1794
   689.76         5.1945
   689.90         5.2153
   690.04         5.2403
   690.18         5.2679
   690.32         5.2969
   690.46         5.3265
   690.60         5.3567
   690.74         5.3868
   690.88         5.4162
   691.02         5.4443
   691.16         5.4702
   691.30         5.4931
   691.44         5.5125
   691.58         5.5277
   691.72         5.5385
   691.86         5.5451
   692.00         5.5479
   692.14         5.5477
   692.28         5.5454
   692.42         5.5420
   692.56         5.5389
   692.70         5.5367
   692.84         5.5358
   692.98         5.5361
   693.12         5.5377
   693.26         5.5408
   693.40         5.5451
   693.54         5.5506
   693.68         5.5568
   693.82         5.5634
   693.96         5.5698
   694.10         5.5759
   694.24         5.5813
   694.38         5.5858
   694.52         5.5892
   694.66         5.5914
   694.80         5.5926
   694.94         5.5931
   695.08         5.5933
   695.22         5.5933
   695.36         5.5935
   695.50         5.5944
   695.64         5.5971
   695.78         5.6026
   695.92         5.6114
   696.06         5.6231
   696.20         5.6373
   696.34         5.6528
   696.48         5.6687
   696.62         5.6840
   696.76         5.6975
   696.90         5.7079
   697.04         5.7140
   697.18         5.7148
   697.32         5.7103
   697.46         5.7013
   697.60         5.6890
   697.74         5.6745
   697.88         5.6583
   698.02         5.6409
   698.16         5.6227
   698.30         5.6049
   698.44         5.5884
   698.58         5.5738
   698.72         5.5615
   698.86         5.5511
   699.00         5.5421
   699.14         5.5336
   699.28         5.5248
   699.42         5.5153
   699.56         5.5050
   699.70         5.4944
   699.84         5.4850
   699.98         5.4784
   700.12         5.4763
   700.26         5.4790
   700.40         5.4859
   700.54         5.4962
   700.68         5.5091
   700.82         5.5243
   700.96         5.5408
   701.10         5.5568
   701.24         5.5697
   701.38         5.5770
   701.52         5.5771
   701.66         5.5698
   701.80         5.5556
   701.94         5.5365
   702.08         5.5149
   702.22         5.4930
   702.36         5.4729
   702.50         5.4558
   702.64         5.4423
   702.78         5.4320
   702.92         5.4245
   703.06         5.4196
   703.20         5.4176
   703.34         5.4181
   703.48         5.4206
   703.62         5.4237
   703.76         5.4263
   703.90         5.4280
   704.04         5.4287
   704.18         5.4285
   704.32         5.4278
   704.46         5.4268
   704.60         5.4255
   704.74         5.4237
   704.88         5.4214
   705.02         5.4183
   705.16         5.4142
   705.30         5.4092
   705.44         5.4030
   705.58         5.3953
   705.72         5.3855
   705.86         5.3734
   706.00         5.3584
   706.14         5.3404
   706.28         5.3201
   706.42         5.2988
   706.56         5.2779
   706.70         5.2591
   706.84         5.2436
   706.98         5.2328
   707.12         5.2268
   707.26         5.2256
   707.40         5.2289
   707.54         5.2362
   707.68         5.2459
   707.82         5.2568
   707.96         5.2680
   708.10         5.2789
   708.24         5.2898
   708.38         5.3005
   708.52         5.3110
   708.66         5.3207
   708.80         5.3290
   708.94         5.3357
   709.08         5.3407
   709.22         5.3435
   709.36         5.3436
   709.50         5.3410
   709.64         5.3354
   709.78         5.3268
   709.92         5.3157
   710.06         5.3031
   710.20         5.2899
   710.34         5.2770
   710.48         5.2656
   710.62         5.2565
   710.76         5.2502
   710.90         5.2465
   711.04         5.2453
   711.18         5.2461
   711.32         5.2489
   711.46         5.2537
   711.60         5.2606
   711.74         5.2692
   711.88         5.2791
   712.02         5.2895
   712.16         5.2991
   712.30         5.3067
   712.44         5.3117
   712.58         5.3137
   712.72         5.3123
   712.86         5.3070
   713.00         5.2975
   713.14         5.2841
   713.28         5.2677
   713.42         5.2501
   713.56         5.2330
   713.70         5.2179
   713.84         5.2057
   713.98         5.1973
   714.12         5.1930
   714.26         5.1925
   714.40         5.1950
   714.54         5.1995
   714.68         5.2050
   714.82         5.2107
   714.96         5.2166
   715.10         5.2226
   715.24         5.2286
   715.38         5.2341
   715.52         5.2385
   715.66         5.2416
   715.80         5.2432
   715.94         5.2424
   716.08         5.2379
   716.22         5.2282
   716.36         5.2121
   716.50         5.1892
   716.64         5.1601
   716.78         5.1260
   716.92         5.0884
   717.06         5.0489
   717.20         5.0088
   717.34         4.9692
   717.48         4.9311
   717.62         4.8958
   717.76         4.8642
   717.90         4.8365
   718.04         4.8128
   718.18         4.7932
   718.32         4.7778
   718.46         4.7666
   718.60         4.7600
   718.74         4.7582
   718.88         4.7613
   719.02         4.7693
   719.16         4.7817
   719.30         4.7980
   719.44         4.8165
   719.58         4.8362
   719.72         4.8564
   719.86         4.8777
   720.00         4.9008
   720.14         4.9273
   720.28         4.9579
   720.42         4.9919
   720.56         5.0279
   720.70         5.0647
   720.84         5.1010
   720.98         5.1353
   721.12         5.1657
   721.26         5.1902
   721.40         5.2075
   721.54         5.2174
   721.68         5.2201
   721.82         5.2163
   721.96         5.2070
   722.10         5.1930
   722.24         5.1752
   722.38         5.1544
   722.52         5.1315
   722.66         5.1073
   722.80         5.0821
   722.94         5.0557
   723.08         5.0282
   723.22         4.9999
   723.36         4.9724
   723.50         4.9473
   723.64         4.9261
   723.78         4.9098
   723.92         4.8988
   724.06         4.8926
   724.20         4.8901
   724.34         4.8899
   724.48         4.8908
   724.62         4.8916
   724.76         4.8918
   724.90         4.8915
   725.04         4.8913
   725.18         4.8912
   725.32         4.8903
   725.46         4.8876
   725.60         4.8833
   725.74         4.8780
   725.88         4.8725
   726.02         4.8671
   726.16         4.8614
   726.30         4.8541
   726.44         4.8439
   726.58         4.8304
   726.72         4.8147
   726.86         4.7991
   727.00         4.7856
   727.14         4.7757
   727.28         4.7705
   727.42         4.7704
   727.56         4.7750
   727.70         4.7825
   727.84         4.7910
   727.98         4.7992
   728.12         4.8063
   728.26         4.8118
   728.40         4.8148
   728.54         4.8146
   728.68         4.8116
   728.82         4.8066
   728.96         4.8003
   729.10         4.7936
   729.24         4.7876
   729.38         4.7831
   729.52         4.7802
   729.66         4.7783
   729.80         4.7764
   729.94         4.7738
   730.08         4.7700
   730.22         4.7646
   730.36         4.7575
   730.50         4.7500
   730.64         4.7435
   730.78         4.7390
   730.92         4.7365
   731.06         4.7359
   731.20         4.7374
   731.34         4.7410
   731.48         4.7465
   731.62         4.7535
   731.76         4.7614
   731.90         4.7699
   732.04         4.7781
   732.18         4.7851
   732.32         4.7904
   732.46         4.7937
   732.60         4.7949
   732.74         4.7940
   732.88         4.7913
   733.02         4.7879
   733.16         4.7849
   733.30         4.7826
   733.44         4.7805
   733.58         4.7780
   733.72         4.7748
   733.86         4.7706
   734.00         4.7653
   734.14         4.7586
   734.28         4.7506
   734.42         4.7414
   734.56         4.7312
   734.70         4.7207
   734.84         4.7109
   734.98         4.7029
   735.12         4.6976
   735.26         4.6951
   735.40         4.6952
   735.54         4.6973
   735.68         4.7004
   735.82         4.7030
   735.96         4.7033
   736.10         4.7002
   736.24         4.6934
   736.38         4.6840
   736.52         4.6737
   736.66         4.6647
   736.80         4.6583
   736.94         4.6545
   737.08         4.6527
   737.22         4.6524
   737.36         4.6537
   737.50         4.6566
   737.64         4.6603
   737.78         4.6638
   737.92         4.6658
   738.06         4.6659
   738.20         4.6641
   738.34         4.6608
   738.48         4.6566
   738.62         4.6520
   738.76         4.6477
   738.90         4.6446
   739.04         4.6433
   739.18         4.6440
   739.32         4.6460
   739.46         4.6478
   739.60         4.6486
   739.74         4.6486
   739.88         4.6482
   740.02         4.6469
   740.16         4.6439
   740.30         4.6387
   740.44         4.6312
   740.58         4.6224
   740.72         4.6131
   740.86         4.6039
   741.00         4.5955
   741.14         4.5878
   741.28         4.5809
   741.42         4.5747
   741.56         4.5692
   741.70         4.5640
   741.84         4.5586
   741.98         4.5527
   742.12         4.5461
   742.26         4.5393
   742.40         4.5326
   742.54         4.5266
   742.68         4.5217
   742.82         4.5189
   742.96         4.5189
   743.10         4.5217
   743.24         4.5266
   743.38         4.5326
   743.52         4.5393
   743.66         4.5461
   743.80         4.5527
   743.94         4.5586
   744.08         4.5640
   744.22         4.5692
