# File BD+62249
# Wavelength [nm]    Normalized Amplitude
   349.70         378.5943
   349.84         377.9054
   349.98         376.8264
   350.12         375.4220
   350.26         373.7542
   350.40         371.8989
   350.54         369.9782
   350.68         368.1739
   350.82         366.6924
   350.96         365.7164
   351.10         365.3745
   351.24         365.7164
   351.38         366.6924
   351.52         368.1739
   351.66         369.9782
   351.80         371.8989
   351.94         373.7542
   352.08         375.4220
   352.22         376.8264
   352.36         377.9054
   352.50         378.5943
   352.64         378.7806
   352.78         378.4028
   352.92         377.5460
   353.06         376.3869
   353.20         375.1408
   353.34         374.0024
   353.48         373.1275
   353.62         372.6411
   353.76         372.6455
   353.90         373.2169
   354.04         374.3696
   354.18         376.0095
   354.32         377.9255
   354.46         379.8537
   354.60         381.5371
   354.74         382.7438
   354.88         383.3031
   355.02         383.1441
   355.16         382.3004
   355.30         380.9008
   355.44         379.1462
   355.58         377.2336
   355.72         375.3308
   355.86         373.6111
   356.00         372.2650
   356.14         371.4720
   356.28         371.3227
   356.42         371.7523
   356.56         372.5216
   356.70         373.2751
   356.84         373.6647
   356.98         373.4540
   357.12         372.5741
   357.26         371.0909
   357.40         369.1563
   357.54         366.9607
   357.68         364.6431
   357.82         362.2555
   357.96         359.7987
   358.10         357.2785
   358.24         354.7600
   358.38         352.3619
   358.52         350.1836
   358.66         348.2621
   358.80         346.5820
   358.94         345.0916
   359.08         343.7473
   359.22         342.5654
   359.36         341.6146
   359.50         340.9564
   359.64         340.5938
   359.78         340.4910
   359.92         340.6033
   360.06         340.8791
   360.20         341.2642
   360.34         341.7258
   360.48         342.2780
   360.62         342.9844
   360.76         343.9424
   360.90         345.2077
   361.04         346.7222
   361.18         348.3566
   361.32         349.9740
   361.46         351.4414
   361.60         352.6303
   361.74         353.4175
   361.88         353.6830
   362.02         353.2958
   362.16         352.1474
   362.30         350.2397
   362.44         347.7437
   362.58         344.9429
   362.72         342.1069
   362.86         339.4282
   363.00         337.0189
   363.14         334.9702
   363.28         333.4043
   363.42         332.4293
   363.56         332.0890
   363.70         332.3999
   363.84         333.3883
   363.98         335.0120
   364.12         337.0997
   364.26         339.4008
   364.40         341.6424
   364.54         343.5737
   364.68         345.0105
   364.82         345.8825
   364.96         346.2428
   365.10         346.2044
   365.24         345.8824
   365.38         345.3463
   365.52         344.6347
   365.66         343.8330
   365.80         343.0914
   365.94         342.5426
   366.08         342.2343
   366.22         342.1561
   366.36         342.2444
   366.50         342.3649
   366.64         342.3464
   366.78         342.0725
   366.92         341.5255
   367.06         340.7462
   367.20         339.8200
   367.34         338.8898
   367.48         338.0938
   367.62         337.4956
   367.76         337.0939
   367.90         336.8398
   368.04         336.6245
   368.18         336.3475
   368.32         336.0211
   368.46         335.7166
   368.60         335.4650
   368.74         335.2330
   368.88         334.9506
   369.02         334.5494
   369.16         333.9829
   369.30         333.2332
   369.44         332.2956
   369.58         331.1621
   369.72         329.8294
   369.86         328.2945
   370.00         326.5337
   370.14         324.5121
   370.28         322.2525
   370.42         319.8691
   370.56         317.5415
   370.70         315.4713
   370.84         313.8238
   370.98         312.7057
   371.12         312.1296
   371.26         312.0232
   371.40         312.2823
   371.54         312.7917
   371.68         313.4334
   371.82         314.0834
   371.96         314.6216
   372.10         314.9270
   372.24         314.8675
   372.38         314.3372
   372.52         313.3244
   372.66         311.9680
   372.80         310.5372
   372.94         309.3298
   373.08         308.5843
   373.22         308.4503
   373.36         308.9617
   373.50         310.0362
   373.64         311.5232
   373.78         313.1915
   373.92         314.7133
   374.06         315.7397
   374.20         316.0432
   374.34         315.5738
   374.48         314.4030
   374.62         312.6840
   374.76         310.6425
   374.90         308.5589
   375.04         306.7539
   375.18         305.5523
   375.32         305.1717
   375.46         305.6188
   375.60         306.6722
   375.74         307.9454
   375.88         308.9932
   376.02         309.3975
   376.16         308.8518
   376.30         307.2532
   376.44         304.7337
   376.58         301.6252
   376.72         298.3839
   376.86         295.5112
   377.00         293.4569
   377.14         292.5453
   377.28         292.9456
   377.42         294.6522
   377.56         297.5118
   377.70         301.3047
   377.84         305.7593
   377.98         310.5135
   378.12         315.1337
   378.26         319.1783
   378.40         322.2617
   378.54         324.0953
   378.68         324.5204
   378.82         323.5506
   378.96         321.3792
   379.10         318.3264
   379.24         314.7743
   379.38         311.1421
   379.52         307.8722
   379.66         305.3928
   379.80         304.0527
   379.94         304.0667
   380.08         305.4934
   380.22         308.2210
   380.36         311.9609
   380.50         316.2516
   380.64         320.5440
   380.78         324.3396
   380.92         327.2794
   381.06         329.1723
   381.20         329.9863
   381.34         329.8637
   381.48         329.0973
   381.62         328.0197
   381.76         326.8765
   381.90         325.7610
   382.04         324.6389
   382.18         323.3994
   382.32         321.8952
   382.46         319.9778
   382.60         317.5434
   382.74         314.5585
   382.88         311.0865
   383.02         307.3368
   383.16         303.6497
   383.30         300.4312
   383.44         298.0688
   383.58         296.8301
   383.72         296.8080
   383.86         297.9376
   384.00         300.0575
   384.14         302.9310
   384.28         306.2433
   384.42         309.6488
   384.56         312.8298
   384.70         315.5549
   384.84         317.6926
   384.98         319.1924
   385.12         320.0912
   385.26         320.5033
   385.40         320.5674
   385.54         320.4179
   385.68         320.1819
   385.82         319.9489
   385.96         319.7606
   386.10         319.6155
   386.24         319.4655
   386.38         319.2381
   386.52         318.8790
   386.66         318.3668
   386.80         317.6777
   386.94         316.7576
   387.08         315.5267
   387.22         313.8862
   387.36         311.7195
   387.50         308.8893
   387.64         305.2850
   387.78         300.8978
   387.92         295.8523
   388.06         290.3971
   388.20         284.8728
   388.34         279.6707
   388.48         275.1833
   388.62         271.7535
   388.76         269.6337
   388.90         268.9641
   389.04         269.7972
   389.18         272.1023
   389.32         275.7095
   389.46         280.2695
   389.60         285.2938
   389.74         290.2690
   389.88         294.7208
   390.02         298.2551
   390.16         300.6469
   390.30         301.8787
   390.44         302.0806
   390.58         301.4455
   390.72         300.1876
   390.86         298.5156
   391.00         296.6214
   391.14         294.6658
   391.28         292.7848
   391.42         291.1081
   391.56         289.7451
   391.70         288.7570
   391.84         288.1013
   391.98         287.6163
   392.12         287.1108
   392.26         286.4658
   392.40         285.6736
   392.54         284.7812
   392.68         283.8454
   392.82         282.9467
   392.96         282.1817
   393.10         281.6415
   393.24         281.3960
   393.38         281.4942
   393.52         281.9540
   393.66         282.7347
   393.80         283.7444
   393.94         284.8754
   394.08         285.9933
   394.22         286.9301
   394.36         287.5182
   394.50         287.6282
   394.64         287.2106
   394.78         286.3110
   394.92         285.0255
   395.06         283.4452
   395.20         281.6269
   395.34         279.5790
   395.48         277.2513
   395.62         274.5238
   395.76         271.2329
   395.90         267.2601
   396.04         262.6369
   396.18         257.5527
   396.32         252.3087
   396.46         247.2843
   396.60         242.8678
   396.74         239.4001
   396.88         237.1614
   397.02         236.3318
   397.16         236.9484
   397.30         238.9003
   397.44         241.9470
   397.58         245.7487
   397.72         249.9184
   397.86         254.0806
   398.00         257.9034
   398.14         261.1238
   398.28         263.6036
   398.42         265.3623
   398.56         266.5528
   398.70         267.3831
   398.84         268.0121
   398.98         268.5157
   399.12         268.9098
   399.26         269.1695
   399.40         269.2607
   399.54         269.1536
   399.68         268.8193
   399.82         268.2406
   399.96         267.4223
   400.10         266.4021
   400.24         265.2600
   400.38         264.1099
   400.52         263.0687
   400.66         262.2133
   400.80         261.5662
   400.94         261.1147
   401.08         260.8125
   401.22         260.5639
   401.36         260.2283
   401.50         259.6554
   401.64         258.7505
   401.78         257.5144
   401.92         256.0170
   402.06         254.3648
   402.20         252.6829
   402.34         251.1055
   402.48         249.7701
   402.62         248.8037
   402.76         248.3122
   402.90         248.3586
   403.04         248.9274
   403.18         249.9149
   403.32         251.1600
   403.46         252.4823
   403.60         253.7104
   403.74         254.7106
   403.88         255.4144
   404.02         255.8246
   404.16         255.9945
   404.30         255.9963
   404.44         255.8921
   404.58         255.7128
   404.72         255.4703
   404.86         255.1749
   405.00         254.8404
   405.14         254.4897
   405.28         254.1480
   405.42         253.8186
   405.56         253.4612
   405.70         253.0025
   405.84         252.3694
   405.98         251.5071
   406.12         250.3873
   406.26         249.0236
   406.40         247.4655
   406.54         245.7751
   406.68         244.0153
   406.82         242.2478
   406.96         240.5379
   407.10         238.9605
   407.24         237.5962
   407.38         236.5066
   407.52         235.7017
   407.66         235.1394
   407.80         234.7488
   407.94         234.4343
   408.08         234.0712
   408.22         233.5276
   408.36         232.7011
   408.50         231.5253
   408.64         229.9516
   408.78         227.9284
   408.92         225.4003
   409.06         222.3337
   409.20         218.7691
   409.34         214.8675
   409.48         210.8987
   409.62         207.1793
   409.76         204.0053
   409.90         201.6050
   410.04         200.1202
   410.18         199.6121
   410.32         200.0792
   410.46         201.4582
   410.60         203.6011
   410.74         206.2718
   410.88         209.1951
   411.02         212.1093
   411.16         214.7880
   411.30         217.0648
   411.44         218.8631
   411.58         220.2072
   411.72         221.2027
   411.86         221.9905
   412.00         222.6939
   412.14         223.3715
   412.28         224.0183
   412.42         224.6100
   412.56         225.1373
   412.70         225.5976
   412.84         225.9732
   412.98         226.2232
   413.12         226.2854
   413.26         226.0919
   413.40         225.6089
   413.54         224.8801
   413.68         224.0098
   413.82         223.1070
   413.96         222.2544
   414.10         221.5039
   414.24         220.8867
   414.38         220.4259
   414.52         220.1375
   414.66         220.0310
   414.80         220.1089
   414.94         220.3582
   415.08         220.7361
   415.22         221.1646
   415.36         221.5518
   415.50         221.8135
   415.64         221.8796
   415.78         221.7147
   415.92         221.3377
   416.06         220.8140
   416.20         220.2242
   416.34         219.6219
   416.48         219.0258
   416.62         218.4480
   416.76         217.9179
   416.90         217.4733
   417.04         217.1293
   417.18         216.8617
   417.32         216.6191
   417.46         216.3426
   417.60         215.9768
   417.74         215.4816
   417.88         214.8445
   418.02         214.0788
   418.16         213.2099
   418.30         212.2801
   418.44         211.3522
   418.58         210.4846
   418.72         209.7198
   418.86         209.0903
   419.00         208.6133
   419.14         208.2832
   419.28         208.0836
   419.42         208.0005
   419.56         208.0139
   419.70         208.0912
   419.84         208.2041
   419.98         208.3411
   420.12         208.5020
   420.26         208.6861
   420.40         208.8912
   420.54         209.1114
   420.68         209.3282
   420.82         209.5098
   420.96         209.6203
   421.10         209.6286
   421.24         209.5164
   421.38         209.2926
   421.52         208.9889
   421.66         208.6480
   421.80         208.3115
   421.94         208.0013
   422.08         207.7198
   422.22         207.4563
   422.36         207.2009
   422.50         206.9576
   422.64         206.7269
   422.78         206.5062
   422.92         206.3067
   423.06         206.1415
   423.20         206.0085
   423.34         205.8930
   423.48         205.7799
   423.62         205.6600
   423.76         205.5205
   423.90         205.3401
   424.04         205.0940
   424.18         204.7551
   424.32         204.3034
   424.46         203.7184
   424.60         202.9836
   424.74         202.1170
   424.88         201.1707
   425.02         200.2126
   425.16         199.2987
   425.30         198.4577
   425.44         197.7194
   425.58         197.1224
   425.72         196.6965
   425.86         196.4542
   426.00         196.3867
   426.14         196.4658
   426.28         196.6514
   426.42         196.8994
   426.56         197.1713
   426.70         197.4339
   426.84         197.6651
   426.98         197.8584
   427.12         198.0107
   427.26         198.1279
   427.40         198.2231
   427.54         198.3018
   427.68         198.3640
   427.82         198.4054
   427.96         198.4228
   428.10         198.4170
   428.24         198.3884
   428.38         198.3375
   428.52         198.2589
   428.66         198.1403
   428.80         197.9734
   428.94         197.7578
   429.08         197.4920
   429.22         197.1697
   429.36         196.7889
   429.50         196.3608
   429.64         195.9071
   429.78         195.4591
   429.92         195.0533
   430.06         194.7145
   430.20         194.4503
   430.34         194.2537
   430.48         194.0983
   430.62         193.9435
   430.76         193.7464
   430.90         193.4737
   431.04         193.1050
   431.18         192.6222
   431.32         192.0112
   431.46         191.2751
   431.60         190.4371
   431.74         189.5363
   431.88         188.6242
   432.02         187.7546
   432.16         186.9688
   432.30         186.2786
   432.44         185.6411
   432.58         184.9467
   432.72         184.0420
   432.86         182.7756
   433.00         181.0503
   433.14         178.8512
   433.28         176.2443
   433.42         173.3651
   433.56         170.4093
   433.70         167.6096
   433.84         165.1962
   433.98         163.3710
   434.12         162.2955
   434.26         162.0728
   434.40         162.7305
   434.54         164.2083
   434.68         166.3611
   434.82         168.9886
   434.96         171.8485
   435.10         174.6730
   435.24         177.2236
   435.38         179.3452
   435.52         180.9814
   435.66         182.1455
   435.80         182.8795
   435.94         183.2468
   436.08         183.3359
   436.22         183.2384
   436.36         183.0238
   436.50         182.7353
   436.64         182.4038
   436.78         182.0615
   436.92         181.7347
   437.06         181.4329
   437.20         181.1423
   437.34         180.8292
   437.48         180.4486
   437.62         179.9490
   437.76         179.2980
   437.90         178.5141
   438.04         177.6601
   438.18         176.8072
   438.32         176.0063
   438.46         175.3014
   438.60         174.7434
   438.74         174.3626
   438.88         174.1513
   439.02         174.0862
   439.16         174.1483
   439.30         174.3157
   439.44         174.5487
   439.58         174.7889
   439.72         174.9734
   439.86         175.0475
   440.00         174.9737
   440.14         174.7400
   440.28         174.3642
   440.42         173.8864
   440.56         173.3497
   440.70         172.7805
   440.84         172.1838
   440.98         171.5535
   441.12         170.8802
   441.26         170.1448
   441.40         169.3189
   441.54         168.3856
   441.68         167.3468
   441.82         166.2119
   441.96         164.9919
   442.10         163.7073
   442.24         162.3964
   442.38         161.1097
   442.52         159.9032
   442.66         158.8333
   442.80         157.9555
   442.94         157.3221
   443.08         156.9736
   443.22         156.9291
   443.36         157.1821
   443.50         157.6980
   443.64         158.4286
   443.78         159.3293
   443.92         160.3560
   444.06         161.4590
   444.20         162.5863
   444.34         163.6785
   444.48         164.6710
   444.62         165.5121
   444.76         166.1676
   444.90         166.6172
   445.04         166.8530
   445.18         166.8829
   445.32         166.7295
   445.46         166.4168
   445.60         165.9620
   445.74         165.3619
   445.88         164.5879
   446.02         163.6161
   446.16         162.4652
   446.30         161.2053
   446.44         159.9323
   446.58         158.7430
   446.72         157.7243
   446.86         156.9515
   447.00         156.4797
   447.14         156.3448
   447.28         156.5660
   447.42         157.1368
   447.56         158.0219
   447.70         159.1515
   447.84         160.4237
   447.98         161.7138
   448.12         162.8923
   448.26         163.8514
   448.40         164.5266
   448.54         164.9092
   448.68         165.0510
   448.82         165.0332
   448.96         164.9260
   449.10         164.7757
   449.24         164.6059
   449.38         164.4238
   449.52         164.2323
   449.66         164.0342
   449.80         163.8313
   449.94         163.6275
   450.08         163.4205
   450.22         163.1908
   450.36         162.9149
   450.50         162.5872
   450.64         162.2294
   450.78         161.8795
   450.92         161.5722
   451.06         161.3381
   451.20         161.2024
   451.34         161.1692
   451.48         161.2116
   451.62         161.2833
   451.76         161.3327
   451.90         161.3110
   452.04         161.1826
   452.18         160.9327
   452.32         160.5747
   452.46         160.1480
   452.60         159.6972
   452.74         159.2501
   452.88         158.8309
   453.02         158.4792
   453.16         158.2379
   453.30         158.1368
   453.44         158.1818
   453.58         158.3552
   453.72         158.6252
   453.86         158.9490
   454.00         159.2737
   454.14         159.5537
   454.28         159.7719
   454.42         159.9371
   454.56         160.0697
   454.70         160.1971
   454.84         160.3457
   454.98         160.5298
   455.12         160.7415
   455.26         160.9506
   455.40         161.1132
   455.54         161.1869
   455.68         161.1366
   455.82         160.9326
   455.96         160.5562
   456.10         160.0068
   456.24         159.3019
   456.38         158.4740
   456.52         157.5744
   456.66         156.6739
   456.80         155.8531
   456.94         155.1888
   457.08         154.7383
   457.22         154.5248
   457.36         154.5370
   457.50         154.7372
   457.64         155.0690
   457.78         155.4619
   457.92         155.8407
   458.06         156.1394
   458.20         156.3113
   458.34         156.3349
   458.48         156.2130
   458.62         155.9671
   458.76         155.6358
   458.90         155.2574
   459.04         154.8571
   459.18         154.4577
   459.32         154.0803
   459.46         153.7365
   459.60         153.4333
   459.74         153.1837
   459.88         153.0008
   460.02         152.8894
   460.16         152.8438
   460.30         152.8504
   460.44         152.8982
   460.58         152.9852
   460.72         153.1113
   460.86         153.2645
   461.00         153.4196
   461.14         153.5516
   461.28         153.6383
   461.42         153.6548
   461.56         153.5667
   461.70         153.3476
   461.84         152.9951
   461.98         152.5276
   462.12         151.9754
   462.26         151.3710
   462.40         150.7376
   462.54         150.0847
   462.68         149.4183
   462.82         148.7521
   462.96         148.1112
   463.10         147.5200
   463.24         146.9851
   463.38         146.4896
   463.52         145.9940
   463.66         145.4514
   463.80         144.8323
   463.94         144.1323
   464.08         143.3693
   464.22         142.5857
   464.36         141.8463
   464.50         141.2286
   464.64         140.8068
   464.78         140.6411
   464.92         140.7682
   465.06         141.1928
   465.20         141.8914
   465.34         142.8205
   465.48         143.9166
   465.62         145.0946
   465.76         146.2520
   465.90         147.2830
   466.04         148.0986
   466.18         148.6500
   466.32         148.9403
   466.46         149.0179
   466.60         148.9496
   466.74         148.7857
   466.88         148.5498
   467.02         148.2534
   467.16         147.8928
   467.30         147.4449
   467.44         146.8853
   467.58         146.2058
   467.72         145.4223
   467.86         144.5722
   468.00         143.7074
   468.14         142.8845
   468.28         142.1585
   468.42         141.5859
   468.56         141.2171
   468.70         141.0780
   468.84         141.1597
   468.98         141.4230
   469.12         141.8174
   469.26         142.2788
   469.40         142.7394
   469.54         143.1555
   469.68         143.4996
   469.82         143.7381
   469.96         143.8416
   470.10         143.8101
   470.24         143.6676
   470.38         143.4423
   470.52         143.1644
   470.66         142.8731
   470.80         142.6082
   470.94         142.3992
   471.08         142.2640
   471.22         142.2065
   471.36         142.2188
   471.50         142.2944
   471.64         142.4309
   471.78         142.6171
   471.92         142.8228
   472.06         143.0136
   472.20         143.1532
   472.34         143.2016
   472.48         143.1442
   472.62         143.0046
   472.76         142.8294
   472.90         142.6637
   473.04         142.5376
   473.18         142.4655
   473.32         142.4458
   473.46         142.4580
   473.60         142.4724
   473.74         142.4589
   473.88         142.3887
   474.02         142.2402
   474.16         142.0020
   474.30         141.6704
   474.44         141.2563
   474.58         140.7906
   474.72         140.3154
   474.86         139.8702
   475.00         139.4857
   475.14         139.1873
   475.28         138.9897
   475.42         138.8957
   475.56         138.9009
   475.70         138.9888
   475.84         139.1357
   475.98         139.3213
   476.12         139.5241
   476.26         139.7233
   476.40         139.9029
   476.54         140.0442
   476.68         140.1233
   476.82         140.1202
   476.96         140.0313
   477.10         139.8666
   477.24         139.6391
   477.38         139.3645
   477.52         139.0622
   477.66         138.7549
   477.80         138.4708
   477.94         138.2382
   478.08         138.0817
   478.22         138.0200
   478.36         138.0657
   478.50         138.2259
   478.64         138.4924
   478.78         138.8343
   478.92         139.2081
   479.06         139.5701
   479.20         139.8802
   479.34         140.1076
   479.48         140.2387
   479.62         140.2787
   479.76         140.2379
   479.90         140.1194
   480.04         139.9215
   480.18         139.6458
   480.32         139.3023
   480.46         138.9086
   480.60         138.4859
   480.74         138.0568
   480.88         137.6349
   481.02         137.2137
   481.16         136.7715
   481.30         136.2877
   481.44         135.7529
   481.58         135.1711
   481.72         134.5583
   481.86         133.9381
   482.00         133.3358
   482.14         132.7801
   482.28         132.3007
   482.42         131.9187
   482.56         131.6435
   482.70         131.4837
   482.84         131.4557
   482.98         131.5612
   483.12         131.7692
   483.26         132.0313
   483.40         132.3043
   483.54         132.5475
   483.68         132.7203
   483.82         132.7914
   483.96         132.7369
   484.10         132.5344
   484.24         132.1641
   484.38         131.6032
   484.52         130.8181
   484.66         129.7625
   484.80         128.3852
   484.94         126.6427
   485.08         124.5217
   485.22         122.0648
   485.36         119.3800
   485.50         116.6190
   485.64         113.9530
   485.78         111.5732
   485.92         109.6809
   486.06         108.4390
   486.20         107.9251
   486.34         108.1255
   486.48         108.9568
   486.62         110.2838
   486.76         111.9367
   486.90         113.7308
   487.04         115.4900
   487.18         117.0686
   487.32         118.3704
   487.46         119.3653
   487.60         120.0924
   487.74         120.6364
   487.88         121.0940
   488.02         121.5481
   488.16         122.0583
   488.30         122.6654
   488.44         123.3775
   488.58         124.1568
   488.72         124.9343
   488.86         125.6401
   489.00         126.2292
   489.14         126.6757
   489.28         126.9615
   489.42         127.0838
   489.56         127.0601
   489.70         126.9231
   489.84         126.7077
   489.98         126.4531
   490.12         126.2041
   490.26         125.9929
   490.40         125.8330
   490.54         125.7304
   490.68         125.6781
   490.82         125.6348
   490.96         125.5291
   491.10         125.2963
   491.24         124.9096
   491.38         124.3845
   491.52         123.7652
   491.66         123.1099
   491.80         122.4831
   491.94         121.9550
   492.08         121.5967
   492.22         121.4551
   492.36         121.5350
   492.50         121.8114
   492.64         122.2457
   492.78         122.7751
   492.92         123.3105
   493.06         123.7760
   493.20         124.1220
   493.34         124.3156
   493.48         124.3542
   493.62         124.2772
   493.76         124.1556
   493.90         124.0590
   494.04         124.0251
   494.18         124.0558
   494.32         124.1302
   494.46         124.2173
   494.60         124.2834
   494.74         124.3034
   494.88         124.2600
   495.02         124.1468
   495.16         123.9771
   495.30         123.7710
   495.44         123.5443
   495.58         123.3178
   495.72         123.1303
   495.86         123.0083
   496.00         122.9449
   496.14         122.9159
   496.28         122.8931
   496.42         122.8538
   496.56         122.7777
   496.70         122.6429
   496.84         122.4366
   496.98         122.1682
   497.12         121.8701
   497.26         121.5886
   497.40         121.3692
   497.54         121.2414
   497.68         121.2192
   497.82         121.3038
   497.96         121.4790
   498.10         121.7123
   498.24         121.9647
   498.38         122.2005
   498.52         122.3793
   498.66         122.4575
   498.80         122.4090
   498.94         122.2272
   499.08         121.9150
   499.22         121.4821
   499.36         120.9509
   499.50         120.3602
   499.64         119.7582
   499.78         119.1884
   499.92         118.6782
   500.06         118.2363
   500.20         117.8546
   500.34         117.5117
   500.48         117.1777
   500.62         116.8326
   500.76         116.4816
   500.90         116.1437
   501.04         115.8368
   501.18         115.5727
   501.32         115.3586
   501.46         115.2016
   501.60         115.1042
   501.74         115.0587
   501.88         115.0569
   502.02         115.1031
   502.16         115.2112
   502.30         115.3865
   502.44         115.6150
   502.58         115.8642
   502.72         116.0942
   502.86         116.2737
   503.00         116.3906
   503.14         116.4509
   503.28         116.4603
   503.42         116.4116
   503.56         116.2957
   503.70         116.1178
   503.84         115.8973
   503.98         115.6602
   504.12         115.4361
   504.26         115.2495
   504.40         115.1214
   504.54         115.0745
   504.68         115.1216
   504.82         115.2473
   504.96         115.4056
   505.10         115.5389
   505.24         115.6020
   505.38         115.5737
   505.52         115.4491
   505.66         115.2286
   505.80         114.9146
   505.94         114.5159
   506.08         114.0603
   506.22         113.5888
   506.36         113.1358
   506.50         112.7224
   506.64         112.3618
   506.78         112.0642
   506.92         111.8332
   507.06         111.6685
   507.20         111.5695
   507.34         111.5312
   507.48         111.5411
   507.62         111.5863
   507.76         111.6615
   507.90         111.7666
   508.04         111.9007
   508.18         112.0526
   508.32         112.1943
   508.46         112.2921
   508.60         112.3276
   508.74         112.2963
   508.88         112.2013
   509.02         112.0576
   509.16         111.8841
   509.30         111.6914
   509.44         111.4848
   509.58         111.2684
   509.72         111.0475
   509.86         110.8272
   510.00         110.6127
   510.14         110.4110
   510.28         110.2279
   510.42         110.0654
   510.56         109.9173
   510.70         109.7702
   510.84         109.6074
   510.98         109.4192
   511.12         109.2151
   511.26         109.0211
   511.40         108.8600
   511.54         108.7434
   511.68         108.6725
   511.82         108.6339
   511.96         108.6096
   512.10         108.5946
   512.24         108.5939
   512.38         108.6075
   512.52         108.6264
   512.66         108.6408
   512.80         108.6422
   512.94         108.6162
   513.08         108.5438
   513.22         108.4118
   513.36         108.2212
   513.50         107.9878
   513.64         107.7354
   513.78         107.4895
   513.92         107.2732
   514.06         107.0949
   514.20         106.9505
   514.34         106.8358
   514.48         106.7451
   514.62         106.6743
   514.76         106.6229
   514.90         106.5903
   515.04         106.5704
   515.18         106.5541
   515.32         106.5342
   515.46         106.5020
   515.60         106.4416
   515.74         106.3412
   515.88         106.2030
   516.02         106.0391
   516.16         105.8622
   516.30         105.6857
   516.44         105.5281
   516.58         105.4063
   516.72         105.3259
   516.86         105.2880
   517.00         105.2897
   517.14         105.3205
   517.28         105.3653
   517.42         105.4056
   517.56         105.4209
   517.70         105.3916
   517.84         105.3073
   517.98         105.1701
   518.12         104.9901
   518.26         104.7825
   518.40         104.5670
   518.54         104.3651
   518.68         104.1927
   518.82         104.0570
   518.96         103.9608
   519.10         103.9031
   519.24         103.8687
   519.38         103.8297
   519.52         103.7621
   519.66         103.6535
   519.80         103.5024
   519.94         103.3129
   520.08         103.0972
   520.22         102.8785
   520.36         102.6845
   520.50         102.5351
   520.64         102.4351
   520.78         102.3769
   520.92         102.3462
   521.06         102.3269
   521.20         102.3050
   521.34         102.2737
   521.48         102.2350
   521.62         102.1914
   521.76         102.1420
   521.90         102.0810
   522.04         102.0004
   522.18         101.8953
   522.32         101.7620
   522.46         101.5972
   522.60         101.3923
   522.74         101.1407
   522.88         100.8441
   523.02         100.5109
   523.16         100.1532
   523.30         99.7860
   523.44         99.4285
   523.58         99.1019
   523.72         98.8269
   523.86         98.6204
   524.00         98.4890
   524.14         98.4246
   524.28         98.4027
   524.42         98.3902
   524.56         98.3521
   524.70         98.2638
   524.84         98.1221
   524.98         97.9440
   525.12         97.7530
   525.26         97.5680
   525.40         97.4072
   525.54         97.2897
   525.68         97.2265
   525.82         97.2155
   525.96         97.2458
   526.10         97.3062
   526.24         97.3850
   526.38         97.4664
   526.52         97.5309
   526.66         97.5607
   526.80         97.5448
   526.94         97.4773
   527.08         97.3587
   527.22         97.1993
   527.36         97.0151
   527.50         96.8188
   527.64         96.6157
   527.78         96.4033
   527.92         96.1747
   528.06         95.9248
   528.20         95.6493
   528.34         95.3433
   528.48         95.0045
   528.62         94.6390
   528.76         94.2625
   528.90         93.8928
   529.04         93.5476
   529.18         93.2470
   529.32         93.0116
   529.46         92.8618
   529.60         92.8139
   529.74         92.8754
   529.88         93.0400
   530.02         93.2821
   530.16         93.5587
   530.30         93.8209
   530.44         94.0234
   530.58         94.1338
   530.72         94.1332
   530.86         94.0168
   531.00         93.7977
   531.14         93.5040
   531.28         93.1733
   531.42         92.8430
   531.56         92.5422
   531.70         92.2946
   531.84         92.1200
   531.98         92.0305
   532.12         92.0286
   532.26         92.1022
   532.40         92.2250
   532.54         92.3652
   532.68         92.4949
   532.82         92.5946
   532.96         92.6487
   533.10         92.6432
   533.24         92.5658
   533.38         92.4083
   533.52         92.1771
   533.66         91.8976
   533.80         91.6029
   533.94         91.3226
   534.08         91.0783
   534.22         90.8867
   534.36         90.7608
   534.50         90.7068
   534.64         90.7210
   534.78         90.7848
   534.92         90.8639
   535.06         90.9153
   535.20         90.8988
   535.34         90.7860
   535.48         90.5631
   535.62         90.2303
   535.76         89.8046
   535.90         89.3203
   536.04         88.8232
   536.18         88.3602
   536.32         87.9657
   536.46         87.6584
   536.60         87.4459
   536.74         87.3298
   536.88         87.3055
   537.02         87.3583
   537.16         87.4633
   537.30         87.5869
   537.44         87.6925
   537.58         87.7520
   537.72         87.7553
   537.86         87.7068
   538.00         87.6202
   538.14         87.5102
   538.28         87.3886
   538.42         87.2684
   538.56         87.1685
   538.70         87.1065
   538.84         87.0921
   538.98         87.1276
   539.12         87.2060
   539.26         87.3072
   539.40         87.4017
   539.54         87.4573
   539.68         87.4378
   539.82         87.3054
   539.96         87.0313
   540.10         86.6143
   540.24         86.0869
   540.38         85.4986
   540.52         84.8967
   540.66         84.3235
   540.80         83.8157
   540.94         83.4020
   541.08         83.1005
   541.22         82.9161
   541.36         82.8403
   541.50         82.8551
   541.64         82.9361
   541.78         83.0523
   541.92         83.1749
   542.06         83.2839
   542.20         83.3681
   542.34         83.4242
   542.48         83.4566
   542.62         83.4775
   542.76         83.5009
   542.90         83.5294
   543.04         83.5508
   543.18         83.5514
   543.32         83.5258
   543.46         83.4698
   543.60         83.3736
   543.74         83.2266
   543.88         83.0263
   544.02         82.7806
   544.16         82.5024
   544.30         82.2032
   544.44         81.8942
   544.58         81.5911
   544.72         81.3108
   544.86         81.0675
   545.00         80.8693
   545.14         80.7168
   545.28         80.6091
   545.42         80.5471
   545.56         80.5327
   545.70         80.5667
   545.84         80.6458
   545.98         80.7583
   546.12         80.8900
   546.26         81.0326
   546.40         81.1770
   546.54         81.3096
   546.68         81.4156
   546.82         81.4786
   546.96         81.4821
   547.10         81.4154
   547.24         81.2764
   547.38         81.0720
   547.52         80.8136
   547.66         80.5167
   547.80         80.2004
   547.94         79.8857
   548.08         79.5952
   548.22         79.3521
   548.36         79.1765
   548.50         79.0804
   548.64         79.0648
   548.78         79.1221
   548.92         79.2333
   549.06         79.3705
   549.20         79.5120
   549.34         79.6449
   549.48         79.7575
   549.62         79.8382
   549.76         79.8799
   549.90         79.8819
   550.04         79.8472
   550.18         79.7814
   550.32         79.6949
   550.46         79.6002
   550.60         79.5077
   550.74         79.4246
   550.88         79.3534
   551.02         79.2858
   551.16         79.2064
   551.30         79.1013
   551.44         78.9609
   551.58         78.7788
   551.72         78.5508
   551.86         78.2768
   552.00         77.9614
   552.14         77.6133
   552.28         77.2424
   552.42         76.8608
   552.56         76.4848
   552.70         76.1315
   552.84         75.8131
   552.98         75.5346
   553.12         75.2949
   553.26         75.0898
   553.40         74.9182
   553.54         74.7869
   553.68         74.7080
   553.82         74.6911
   553.96         74.7394
   554.10         74.8498
   554.24         75.0136
   554.38         75.2157
   554.52         75.4371
   554.66         75.6583
   554.80         75.8616
   554.94         76.0346
   555.08         76.1676
   555.22         76.2487
   555.36         76.2641
   555.50         76.2058
   555.64         76.0800
   555.78         75.9071
   555.92         75.7178
   556.06         75.5421
   556.20         75.3985
   556.34         75.2891
   556.48         75.2010
   556.62         75.1196
   556.76         75.0364
   556.90         74.9447
   557.04         74.8383
   557.18         74.7113
   557.32         74.5608
   557.46         74.3885
   557.60         74.1980
   557.74         73.9926
   557.88         73.7783
   558.02         73.5665
   558.16         73.3734
   558.30         73.2145
   558.44         73.0981
   558.58         73.0243
   558.72         72.9848
   558.86         72.9708
   559.00         72.9746
   559.14         72.9887
   559.28         73.0117
   559.42         73.0429
   559.56         73.0771
   559.70         73.1062
   559.84         73.1205
   559.98         73.1151
   560.12         73.0913
   560.26         73.0490
   560.40         72.9828
   560.54         72.8863
   560.68         72.7567
   560.82         72.5976
   560.96         72.4176
   561.10         72.2263
   561.24         72.0312
   561.38         71.8356
   561.52         71.6406
   561.66         71.4475
   561.80         71.2632
   561.94         71.0995
   562.08         70.9649
   562.22         70.8661
   562.36         70.8096
   562.50         70.8019
   562.64         70.8502
   562.78         70.9572
   562.92         71.1147
   563.06         71.3073
   563.20         71.5158
   563.34         71.7184
   563.48         71.8893
   563.62         72.0008
   563.76         72.0298
   563.90         71.9635
   564.04         71.8023
   564.18         71.5581
   564.32         71.2485
   564.46         70.8927
   564.60         70.5098
   564.74         70.1197
   564.88         69.7471
   565.02         69.4180
   565.16         69.1532
   565.30         68.9624
   565.44         68.8410
   565.58         68.7736
   565.72         68.7453
   565.86         68.7437
   566.00         68.7567
   566.14         68.7741
   566.28         68.7924
   566.42         68.8112
   566.56         68.8239
   566.70         68.8199
   566.84         68.7931
   566.98         68.7457
   567.12         68.6865
   567.26         68.6253
   567.40         68.5689
   567.54         68.5211
   567.68         68.4827
   567.82         68.4521
   567.96         68.4270
   568.10         68.4062
   568.24         68.3897
   568.38         68.3753
   568.52         68.3549
   568.66         68.3185
   568.80         68.2593
   568.94         68.1731
   569.08         68.0573
   569.22         67.9107
   569.36         67.7360
   569.50         67.5400
   569.64         67.3282
   569.78         67.1027
   569.92         66.8663
   570.06         66.6247
   570.20         66.3879
   570.34         66.1686
   570.48         65.9769
   570.62         65.8157
   570.76         65.6798
   570.90         65.5584
   571.04         65.4416
   571.18         65.3255
   571.32         65.2102
   571.46         65.0980
   571.60         64.9960
   571.74         64.9163
   571.88         64.8700
   572.02         64.8623
   572.16         64.8918
   572.30         64.9498
   572.44         65.0222
   572.58         65.0930
   572.72         65.1470
   572.86         65.1745
   573.00         65.1735
   573.14         65.1454
   573.28         65.0911
   573.42         65.0106
   573.56         64.9056
   573.70         64.7830
   573.84         64.6531
   573.98         64.5258
   574.12         64.4115
   574.26         64.3206
   574.40         64.2589
   574.54         64.2276
   574.68         64.2245
   574.82         64.2474
   574.96         64.2937
   575.10         64.3597
   575.24         64.4390
   575.38         64.5210
   575.52         64.5931
   575.66         64.6424
   575.80         64.6526
   575.94         64.6067
   576.08         64.4930
   576.22         64.3088
   576.36         64.0590
   576.50         63.7506
   576.64         63.3869
   576.78         62.9647
   576.92         62.4803
   577.06         61.9425
   577.20         61.3768
   577.34         60.8173
   577.48         60.2995
   577.62         59.8543
   577.76         59.5034
   577.90         59.2589
   578.04         59.1213
   578.18         59.0830
   578.32         59.1280
   578.46         59.2315
   578.60         59.3674
   578.74         59.5124
   578.88         59.6435
   579.02         59.7393
   579.16         59.7866
   579.30         59.7797
   579.44         59.7210
   579.58         59.6280
   579.72         59.5315
   579.86         59.4586
   580.00         59.4213
   580.14         59.4181
   580.28         59.4394
   580.42         59.4737
   580.56         59.5139
   580.70         59.5600
   580.84         59.6189
   580.98         59.6990
   581.12         59.8060
   581.26         59.9440
   581.40         60.1104
   581.54         60.2945
   581.68         60.4840
   581.82         60.6659
   581.96         60.8213
   582.10         60.9307
   582.24         60.9840
   582.38         60.9809
   582.52         60.9215
   582.66         60.8034
   582.80         60.6261
   582.94         60.3954
   583.08         60.1270
   583.22         59.8452
   583.36         59.5726
   583.50         59.3233
   583.64         59.1076
   583.78         58.9361
   583.92         58.8150
   584.06         58.7404
   584.20         58.7002
   584.34         58.6784
   584.48         58.6627
   584.62         58.6484
   584.76         58.6366
   584.90         58.6338
   585.04         58.6463
   585.18         58.6754
   585.32         58.7183
   585.46         58.7717
   585.60         58.8345
   585.74         58.9052
   585.88         58.9724
   586.02         59.0100
   586.16         58.9840
   586.30         58.8607
   586.44         58.6172
   586.58         58.2544
   586.72         57.7997
   586.86         57.2981
   587.00         56.8031
   587.14         56.3709
   587.28         56.0478
   587.42         55.8558
   587.56         55.7845
   587.70         55.7887
   587.84         55.8073
   587.98         55.7875
   588.12         55.6877
   588.26         55.4700
   588.40         55.1060
   588.54         54.5929
   588.68         53.9640
   588.82         53.2827
   588.96         52.6294
   589.10         52.0882
   589.24         51.7287
   589.38         51.5899
   589.52         51.6756
   589.66         51.9614
   589.80         52.4040
   589.94         52.9479
   590.08         53.5271
   590.22         54.0760
   590.36         54.5489
   590.50         54.9298
   590.64         55.2207
   590.78         55.4245
   590.92         55.5466
   591.06         55.6040
   591.20         55.6212
   591.34         55.6185
   591.48         55.6072
   591.62         55.5962
   591.76         55.5966
   591.90         55.6205
   592.04         55.6757
   592.18         55.7605
   592.32         55.8677
   592.46         55.9884
   592.60         56.1097
   592.74         56.2169
   592.88         56.2980
   593.02         56.3502
   593.16         56.3772
   593.30         56.3820
   593.44         56.3629
   593.58         56.3175
   593.72         56.2463
   593.86         56.1547
   594.00         56.0513
   594.14         55.9453
   594.28         55.8409
   594.42         55.7355
   594.56         55.6239
   594.70         55.5036
   594.84         55.3737
   594.98         55.2389
   595.12         55.1131
   595.26         55.0133
   595.40         54.9496
   595.54         54.9248
   595.68         54.9380
   595.82         54.9802
   595.96         55.0325
   596.10         55.0767
   596.24         55.1011
   596.38         55.0993
   596.52         55.0677
   596.66         55.0062
   596.80         54.9183
   596.94         54.8074
   597.08         54.6796
   597.22         54.5451
   597.36         54.4144
   597.50         54.2929
   597.64         54.1859
   597.78         54.0972
   597.92         54.0207
   598.06         53.9447
   598.20         53.8617
   598.34         53.7682
   598.48         53.6586
   598.62         53.5275
   598.76         53.3723
   598.90         53.1920
   599.04         52.9886
   599.18         52.7711
   599.32         52.5544
   599.46         52.3531
   599.60         52.1730
   599.74         52.0109
   599.88         51.8616
   600.02         51.7227
   600.16         51.5928
   600.30         51.4716
   600.44         51.3582
   600.58         51.2514
   600.72         51.1497
   600.86         51.0525
   601.00         50.9635
   601.14         50.8918
   601.28         50.8458
   601.42         50.8248
   601.56         50.8254
   601.70         50.8497
   601.84         50.9019
   601.98         50.9801
   602.12         51.0771
   602.26         51.1859
   602.40         51.2966
   602.54         51.3993
   602.68         51.4861
   602.82         51.5461
   602.96         51.5743
   603.10         51.5733
   603.24         51.5453
   603.38         51.4912
   603.52         51.4133
   603.66         51.3166
   603.80         51.2023
   603.94         51.0685
   604.08         50.9183
   604.22         50.7649
   604.36         50.6249
   604.50         50.5090
   604.64         50.4223
   604.78         50.3683
   604.92         50.3480
   605.06         50.3575
   605.20         50.3929
   605.34         50.4495
   605.48         50.5201
   605.62         50.6006
   605.76         50.6829
   605.90         50.7560
   606.04         50.8145
   606.18         50.8568
   606.32         50.8827
   606.46         50.8934
   606.60         50.8901
   606.74         50.8714
   606.88         50.8349
   607.02         50.7805
   607.16         50.7095
   607.30         50.6249
   607.44         50.5303
   607.58         50.4240
   607.72         50.3005
   607.86         50.1585
   608.00         50.0036
   608.14         49.8483
   608.28         49.7094
   608.42         49.6041
   608.56         49.5447
   608.70         49.5332
   608.84         49.5591
   608.98         49.6033
   609.12         49.6461
   609.26         49.6731
   609.40         49.6757
   609.54         49.6503
   609.68         49.5967
   609.82         49.5171
   609.96         49.4175
   610.10         49.3045
   610.24         49.1861
   610.38         49.0745
   610.52         48.9812
   610.66         48.9120
   610.80         48.8724
   610.94         48.8687
   611.08         48.9004
   611.22         48.9554
   611.36         49.0194
   611.50         49.0840
   611.64         49.1468
   611.78         49.2077
   611.92         49.2632
   612.06         49.3044
   612.20         49.3226
   612.34         49.3128
   612.48         49.2711
   612.62         49.1945
   612.76         49.0841
   612.90         48.9479
   613.04         48.7986
   613.18         48.6490
   613.32         48.5128
   613.46         48.4017
   613.60         48.3199
   613.74         48.2636
   613.88         48.2279
   614.02         48.2135
   614.16         48.2215
   614.30         48.2465
   614.44         48.2770
   614.58         48.3016
   614.72         48.3156
   614.86         48.3208
   615.00         48.3193
   615.14         48.3111
   615.28         48.2980
   615.42         48.2823
   615.56         48.2628
   615.70         48.2349
   615.84         48.1897
   615.98         48.1195
   616.12         48.0230
   616.26         47.9043
   616.40         47.7681
   616.54         47.6183
   616.68         47.4574
   616.82         47.2869
   616.96         47.1113
   617.10         46.9425
   617.24         46.7943
   617.38         46.6742
   617.52         46.5790
   617.66         46.4963
   617.80         46.4103
   617.94         46.3102
   618.08         46.1940
   618.22         46.0705
   618.36         45.9535
   618.50         45.8528
   618.64         45.7757
   618.78         45.7272
   618.92         45.7059
   619.06         45.7041
   619.20         45.7137
   619.34         45.7298
   619.48         45.7480
   619.62         45.7615
   619.76         45.7576
   619.90         45.7202
   620.04         45.6389
   620.18         45.5175
   620.32         45.3720
   620.46         45.2249
   620.60         45.0956
   620.74         44.9987
   620.88         44.9433
   621.02         44.9298
   621.16         44.9539
   621.30         45.0109
   621.44         45.0940
   621.58         45.1932
   621.72         45.2974
   621.86         45.3982
   622.00         45.4880
   622.14         45.5578
   622.28         45.5993
   622.42         45.6086
   622.56         45.5874
   622.70         45.5435
   622.84         45.4863
   622.98         45.4255
   623.12         45.3726
   623.26         45.3377
   623.40         45.3299
   623.54         45.3532
   623.68         45.4030
   623.82         45.4694
   623.96         45.5385
   624.10         45.5954
   624.24         45.6262
   624.38         45.6213
   624.52         45.5791
   624.66         45.5040
   624.80         45.4030
   624.94         45.2845
   625.08         45.1574
   625.22         45.0325
   625.36         44.9224
   625.50         44.8358
   625.64         44.7744
   625.78         44.7310
   625.92         44.6912
   626.06         44.6400
   626.20         44.5676
   626.34         44.4659
   626.48         44.3215
   626.62         44.1168
   626.76         43.8380
   626.90         43.4793
   627.04         43.0440
   627.18         42.5403
   627.32         41.9804
   627.46         41.3875
   627.60         40.7991
   627.74         40.2616
   627.88         39.8199
   628.02         39.5084
   628.16         39.3475
   628.30         39.3448
   628.44         39.4956
   628.58         39.7803
   628.72         40.1643
   628.86         40.6020
   629.00         41.0401
   629.14         41.4299
   629.28         41.7440
   629.42         41.9744
   629.56         42.1220
   629.70         42.1936
   629.84         42.2021
   629.98         42.1678
   630.12         42.1150
   630.26         42.0620
   630.40         42.0171
   630.54         41.9840
   630.68         41.9647
   630.82         41.9583
   630.96         41.9602
   631.10         41.9662
   631.24         41.9758
   631.38         41.9949
   631.52         42.0309
   631.66         42.0893
   631.80         42.1729
   631.94         42.2781
   632.08         42.3919
   632.22         42.4995
   632.36         42.5897
   632.50         42.6523
   632.64         42.6787
   632.78         42.6653
   632.92         42.6137
   633.06         42.5298
   633.20         42.4225
   633.34         42.3010
   633.48         42.1736
   633.62         42.0491
   633.76         41.9387
   633.90         41.8551
   634.04         41.8057
   634.18         41.7901
   634.32         41.8037
   634.46         41.8411
   634.60         41.8962
   634.74         41.9621
   634.88         42.0290
   635.02         42.0841
   635.16         42.1156
   635.30         42.1173
   635.44         42.0883
   635.58         42.0318
   635.72         41.9533
   635.86         41.8611
   636.00         41.7657
   636.14         41.6754
   636.28         41.5961
   636.42         41.5331
   636.56         41.4866
   636.70         41.4491
   636.84         41.4110
   636.98         41.3663
   637.12         41.3130
   637.26         41.2534
   637.40         41.1950
   637.54         41.1453
   637.68         41.1091
   637.82         41.0910
   637.96         41.0958
   638.10         41.1263
   638.24         41.1806
   638.38         41.2533
   638.52         41.3386
   638.66         41.4305
   638.80         41.5201
   638.94         41.5981
   639.08         41.6555
   639.22         41.6849
   639.36         41.6853
   639.50         41.6613
   639.64         41.6208
   639.78         41.5725
   639.92         41.5207
   640.06         41.4636
   640.20         41.3967
   640.34         41.3196
   640.48         41.2393
   640.62         41.1652
   640.76         41.1043
   640.90         41.0632
   641.04         41.0495
   641.18         41.0680
   641.32         41.1145
   641.46         41.1771
   641.60         41.2436
   641.74         41.3058
   641.88         41.3587
   642.02         41.3977
   642.16         41.4190
   642.30         41.4198
   642.44         41.3988
   642.58         41.3571
   642.72         41.2997
   642.86         41.2363
   643.00         41.1774
   643.14         41.1297
   643.28         41.0926
   643.42         41.0592
   643.56         41.0215
   643.70         40.9716
   643.84         40.9019
   643.98         40.8084
   644.12         40.6943
   644.26         40.5664
   644.40         40.4300
   644.54         40.2908
   644.68         40.1588
   644.82         40.0432
   644.96         39.9472
   645.10         39.8704
   645.24         39.8114
   645.38         39.7668
   645.52         39.7338
   645.66         39.7120
   645.80         39.7006
   645.94         39.6972
   646.08         39.7002
   646.22         39.7109
   646.36         39.7312
   646.50         39.7589
   646.64         39.7874
   646.78         39.8082
   646.92         39.8129
   647.06         39.7975
   647.20         39.7628
   647.34         39.7100
   647.48         39.6374
   647.62         39.5462
   647.76         39.4444
   647.90         39.3424
   648.04         39.2478
   648.18         39.1666
   648.32         39.1033
   648.46         39.0586
   648.60         39.0337
   648.74         39.0330
   648.88         39.0606
   649.02         39.1160
   649.16         39.1940
   649.30         39.2888
   649.44         39.3982
   649.58         39.5198
   649.72         39.6470
   649.86         39.7700
   650.00         39.8767
   650.14         39.9574
   650.28         40.0090
   650.42         40.0330
   650.56         40.0292
   650.70         39.9974
   650.84         39.9416
   650.98         39.8682
   651.12         39.7839
   651.26         39.6973
   651.40         39.6179
   651.54         39.5519
   651.68         39.5033
   651.82         39.4742
   651.96         39.4648
   652.10         39.4734
   652.24         39.4963
   652.38         39.5257
   652.52         39.5508
   652.66         39.5636
   652.80         39.5619
   652.94         39.5467
   653.08         39.5171
   653.22         39.4725
   653.36         39.4176
   653.50         39.3623
   653.64         39.3164
   653.78         39.2856
   653.92         39.2716
   654.06         39.2704
   654.20         39.2747
   654.34         39.2754
   654.48         39.2569
   654.62         39.1982
   654.76         39.0757
   654.90         38.8650
   655.04         38.5431
   655.18         38.1004
   655.32         37.5517
   655.46         36.9327
   655.60         36.2909
   655.74         35.6783
   655.88         35.1485
   656.02         34.7490
   656.16         34.5125
   656.30         34.4524
   656.44         34.5667
   656.58         34.8402
   656.72         35.2455
   656.86         35.7424
   657.00         36.2807
   657.14         36.8074
   657.28         37.2796
   657.42         37.6684
   657.56         37.9592
   657.70         38.1547
   657.84         38.2741
   657.98         38.3429
   658.12         38.3815
   658.26         38.4008
   658.40         38.4069
   658.54         38.4022
   658.68         38.3853
   658.82         38.3540
   658.96         38.3089
   659.10         38.2545
   659.24         38.1977
   659.38         38.1466
   659.52         38.1084
   659.66         38.0855
   659.80         38.0737
   659.94         38.0619
   660.08         38.0328
   660.22         37.9698
   660.36         37.8657
   660.50         37.7222
   660.64         37.5466
   660.78         37.3490
   660.92         37.1426
   661.06         36.9436
   661.20         36.7667
   661.34         36.6227
   661.48         36.5189
   661.62         36.4609
   661.76         36.4518
   661.90         36.4898
   662.04         36.5684
   662.18         36.6780
   662.32         36.8038
   662.46         36.9297
   662.60         37.0423
   662.74         37.1328
   662.88         37.2012
   663.02         37.2515
   663.16         37.2834
   663.30         37.2919
   663.44         37.2725
   663.58         37.2238
   663.72         37.1461
   663.86         37.0418
   664.00         36.9194
   664.14         36.7914
   664.28         36.6701
   664.42         36.5627
   664.56         36.4696
   664.70         36.3853
   664.84         36.2998
   664.98         36.2027
   665.12         36.0906
   665.26         35.9677
   665.40         35.8428
   665.54         35.7250
   665.68         35.6191
   665.82         35.5253
   665.96         35.4414
   666.10         35.3653
   666.24         35.2932
   666.38         35.2178
   666.52         35.1290
   666.66         35.0166
   666.80         34.8711
   666.94         34.6915
   667.08         34.4879
   667.22         34.2750
   667.36         34.0699
   667.50         33.8925
   667.64         33.7618
   667.78         33.6915
   667.92         33.6870
   668.06         33.7465
   668.20         33.8614
   668.34         34.0161
   668.48         34.1899
   668.62         34.3642
   668.76         34.5237
   668.90         34.6558
   669.04         34.7529
   669.18         34.8181
   669.32         34.8632
   669.46         34.9012
   669.60         34.9424
   669.74         34.9901
   669.88         35.0409
   670.02         35.0908
   670.16         35.1398
   670.30         35.1900
   670.44         35.2441
   670.58         35.3028
   670.72         35.3619
   670.86         35.4140
   671.00         35.4526
   671.14         35.4750
   671.28         35.4812
   671.42         35.4698
   671.56         35.4382
   671.70         35.3865
   671.84         35.3147
   671.98         35.2220
   672.12         35.1076
   672.26         34.9721
   672.40         34.8171
   672.54         34.6450
   672.68         34.4606
   672.82         34.2725
   672.96         34.0886
   673.10         33.9139
   673.24         33.7503
   673.38         33.6011
   673.52         33.4743
   673.66         33.3783
   673.80         33.3169
   673.94         33.2898
   674.08         33.2940
   674.22         33.3262
   674.36         33.3838
   674.50         33.4627
   674.64         33.5546
   674.78         33.6485
   674.92         33.7353
   675.06         33.8121
   675.20         33.8814
   675.34         33.9472
   675.48         34.0120
   675.62         34.0746
   675.76         34.1325
   675.90         34.1833
   676.04         34.2236
   676.18         34.2480
   676.32         34.2516
   676.46         34.2347
   676.60         34.2027
   676.74         34.1619
   676.88         34.1184
   677.02         34.0778
   677.16         34.0449
   677.30         34.0233
   677.44         34.0168
   677.58         34.0270
   677.72         34.0484
   677.86         34.0707
   678.00         34.0827
   678.14         34.0760
   678.28         34.0471
   678.42         33.9960
   678.56         33.9239
   678.70         33.8335
   678.84         33.7300
   678.98         33.6199
   679.12         33.5096
   679.26         33.4044
   679.40         33.3094
   679.54         33.2312
   679.68         33.1756
   679.82         33.1437
   679.96         33.1330
   680.10         33.1389
   680.24         33.1556
   680.38         33.1773
   680.52         33.1996
   680.66         33.2184
   680.80         33.2311
   680.94         33.2365
   681.08         33.2318
   681.22         33.2123
   681.36         33.1753
   681.50         33.1228
   681.64         33.0634
   681.78         33.0089
   681.92         32.9679
   682.06         32.9443
   682.20         32.9368
   682.34         32.9399
   682.48         32.9491
   682.62         32.9619
   682.76         32.9748
   682.90         32.9815
   683.04         32.9759
   683.18         32.9539
   683.32         32.9145
   683.46         32.8607
   683.60         32.7963
   683.74         32.7237
   683.88         32.6467
   684.02         32.5721
   684.16         32.5057
   684.30         32.4493
   684.44         32.3987
   684.58         32.3482
   684.72         32.2932
   684.86         32.2299
   685.00         32.1554
   685.14         32.0682
   685.28         31.9643
   685.42         31.8323
   685.56         31.6515
   685.70         31.3957
   685.84         31.0428
   685.98         30.5838
   686.12         30.0236
   686.26         29.3791
   686.40         28.6796
   686.54         27.9652
   686.68         27.2813
   686.82         26.6750
   686.96         26.1921
   687.10         25.8694
   687.24         25.7255
   687.38         25.7570
   687.52         25.9397
   687.66         26.2344
   687.80         26.5922
   687.94         26.9592
   688.08         27.2830
   688.22         27.5251
   688.36         27.6704
   688.50         27.7269
   688.64         27.7186
   688.78         27.6755
   688.92         27.6295
   689.06         27.6094
   689.20         27.6344
   689.34         27.7127
   689.48         27.8416
   689.62         28.0076
   689.76         28.1902
   689.90         28.3703
   690.04         28.5327
   690.18         28.6681
   690.32         28.7761
   690.46         28.8634
   690.60         28.9392
   690.74         29.0131
   690.88         29.0942
   691.02         29.1889
   691.16         29.2992
   691.30         29.4223
   691.44         29.5486
   691.58         29.6633
   691.72         29.7487
   691.86         29.7902
   692.00         29.7817
   692.14         29.7264
   692.28         29.6358
   692.42         29.5281
   692.56         29.4216
   692.70         29.3289
   692.84         29.2591
   692.98         29.2209
   693.12         29.2196
   693.26         29.2542
   693.40         29.3170
   693.54         29.3965
   693.68         29.4802
   693.82         29.5577
   693.96         29.6211
   694.10         29.6638
   694.24         29.6802
   694.38         29.6687
   694.52         29.6335
   694.66         29.5824
   694.80         29.5248
   694.94         29.4708
   695.08         29.4299
   695.22         29.4083
   695.36         29.4104
   695.50         29.4404
   695.64         29.4998
   695.78         29.5854
   695.92         29.6910
   696.06         29.8127
   696.20         29.9504
   696.34         30.1044
   696.48         30.2699
   696.62         30.4362
   696.76         30.5902
   696.90         30.7224
   697.04         30.8285
   697.18         30.9067
   697.32         30.9544
   697.46         30.9675
   697.60         30.9420
   697.74         30.8763
   697.88         30.7713
   698.02         30.6302
   698.16         30.4601
   698.30         30.2734
   698.44         30.0862
   698.58         29.9139
   698.72         29.7664
   698.86         29.6478
   699.00         29.5544
   699.14         29.4760
   699.28         29.4008
   699.42         29.3210
   699.56         29.2343
   699.70         29.1430
   699.84         29.0522
   699.98         28.9687
   700.12         28.9008
   700.26         28.8559
   700.40         28.8398
   700.54         28.8547
   700.68         28.9007
   700.82         28.9755
   700.96         29.0727
   701.10         29.1805
   701.24         29.2818
   701.38         29.3626
   701.52         29.4153
   701.66         29.4351
   701.80         29.4216
   701.94         29.3823
   702.08         29.3314
   702.22         29.2848
   702.36         29.2533
   702.50         29.2411
   702.64         29.2474
   702.78         29.2701
   702.92         29.3052
   703.06         29.3463
   703.20         29.3864
   703.34         29.4179
   703.48         29.4329
   703.62         29.4277
   703.76         29.4020
   703.90         29.3592
   704.04         29.3076
   704.18         29.2559
   704.32         29.2101
   704.46         29.1741
   704.60         29.1501
   704.74         29.1377
   704.88         29.1316
   705.02         29.1205
   705.16         29.0901
   705.30         29.0290
   705.44         28.9318
   705.58         28.7988
   705.72         28.6393
   705.86         28.4715
   706.00         28.3170
   706.14         28.1960
   706.28         28.1234
   706.42         28.1067
   706.56         28.1465
   706.70         28.2349
   706.84         28.3571
   706.98         28.4941
   707.12         28.6229
   707.26         28.7197
   707.40         28.7653
   707.54         28.7493
   707.68         28.6724
   707.82         28.5476
   707.96         28.3957
   708.10         28.2402
   708.24         28.1037
   708.38         28.0057
   708.52         27.9608
   708.66         27.9768
   708.80         28.0518
   708.94         28.1758
   709.08         28.3350
   709.22         28.5125
   709.36         28.6903
   709.50         28.8545
   709.64         28.9956
   709.78         29.1076
   709.92         29.1885
   710.06         29.2394
   710.20         29.2635
   710.34         29.2674
   710.48         29.2574
   710.62         29.2352
   710.76         29.2039
   710.90         29.1692
   711.04         29.1343
   711.18         29.0986
   711.32         29.0589
   711.46         29.0133
   711.60         28.9643
   711.74         28.9184
   711.88         28.8824
   712.02         28.8605
   712.16         28.8542
   712.30         28.8622
   712.44         28.8816
   712.58         28.9091
   712.72         28.9431
   712.86         28.9817
   713.00         29.0194
   713.14         29.0467
   713.28         29.0544
   713.42         29.0383
   713.56         28.9990
   713.70         28.9383
   713.84         28.8616
   713.98         28.7782
   714.12         28.6975
   714.26         28.6261
   714.40         28.5676
   714.54         28.5235
   714.68         28.4909
   714.82         28.4662
   714.96         28.4463
   715.10         28.4303
   715.24         28.4182
   715.38         28.4072
   715.52         28.3889
   715.66         28.3526
   715.80         28.2898
   715.94         28.1936
   716.08         28.0579
   716.22         27.8792
   716.36         27.6564
   716.50         27.3916
   716.64         27.0925
   716.78         26.7717
   716.92         26.4469
   717.06         26.1370
   717.20         25.8529
   717.34         25.5966
   717.48         25.3726
   717.62         25.1937
   717.76         25.0737
   717.90         25.0167
   718.04         25.0147
   718.18         25.0540
   718.32         25.1228
   718.46         25.2107
   718.60         25.3064
   718.74         25.3974
   718.88         25.4741
   719.02         25.5324
   719.16         25.5747
   719.30         25.6115
   719.44         25.6557
   719.58         25.7162
   719.72         25.7961
   719.86         25.8978
   720.00         26.0293
   720.14         26.2019
   720.28         26.4203
   720.42         26.6760
   720.56         26.9509
   720.70         27.2262
   720.84         27.4832
   720.98         27.7011
   721.12         27.8601
   721.26         27.9497
   721.40         27.9719
   721.54         27.9410
   721.68         27.8792
   721.82         27.8059
   721.96         27.7313
   722.10         27.6549
   722.24         27.5700
   722.38         27.4737
   722.52         27.3700
   722.66         27.2645
   722.80         27.1609
   722.94         27.0618
   723.08         26.9647
   723.22         26.8605
   723.36         26.7439
   723.50         26.6157
   723.64         26.4804
   723.78         26.3473
   723.92         26.2248
   724.06         26.1142
   724.20         26.0122
   724.34         25.9140
   724.48         25.8135
   724.62         25.7085
   724.76         25.6058
   724.90         25.5182
   725.04         25.4576
   725.18         25.4288
   725.32         25.4270
   725.46         25.4478
   725.60         25.4908
   725.74         25.5539
   725.88         25.6354
   726.02         25.7346
   726.16         25.8426
   726.30         25.9406
   726.44         26.0092
   726.58         26.0349
   726.72         26.0150
   726.86         25.9574
   727.00         25.8755
   727.14         25.7824
   727.28         25.6884
   727.42         25.5997
   727.56         25.5183
   727.70         25.4452
   727.84         25.3821
   727.98         25.3317
   728.12         25.2979
   728.26         25.2788
   728.40         25.2646
   728.54         25.2453
   728.68         25.2134
   728.82         25.1643
   728.96         25.0976
   729.10         25.0175
   729.24         24.9331
   729.38         24.8560
   729.52         24.7965
   729.66         24.7575
   729.80         24.7343
   729.94         24.7214
   730.08         24.7179
   730.22         24.7290
   730.36         24.7591
   730.50         24.8052
   730.64         24.8585
   730.78         24.9105
   730.92         24.9543
   731.06         24.9828
   731.20         24.9904
   731.34         24.9752
   731.48         24.9376
   731.62         24.8781
   731.76         24.8003
   731.90         24.7104
   732.04         24.6146
   732.18         24.5148
   732.32         24.4090
   732.46         24.2982
   732.60         24.1896
   732.74         24.0939
   732.88         24.0218
   733.02         23.9769
   733.16         23.9565
   733.30         23.9600
   733.44         23.9882
   733.58         24.0390
   733.72         24.1045
   733.86         24.1758
   734.00         24.2460
   734.14         24.3085
   734.28         24.3578
   734.42         24.3921
   734.56         24.4112
   734.70         24.4146
   734.84         24.4044
   734.98         24.3866
   735.12         24.3685
   735.26         24.3565
   735.40         24.3532
   735.54         24.3538
   735.68         24.3485
   735.82         24.3302
   735.96         24.2982
   736.10         24.2559
   736.24         24.2084
   736.38         24.1616
   736.52         24.1230
   736.66         24.0988
   736.80         24.0901
   736.94         24.0952
   737.08         24.1118
   737.22         24.1364
   737.36         24.1659
   737.50         24.1977
   737.64         24.2266
   737.78         24.2450
   737.92         24.2456
   738.06         24.2226
   738.20         24.1719
   738.34         24.0952
   738.48         23.9997
   738.62         23.8971
   738.76         23.7992
   738.90         23.7135
   739.04         23.6429
   739.18         23.5865
   739.32         23.5399
   739.46         23.4980
   739.60         23.4549
   739.74         23.4035
   739.88         23.3395
   740.02         23.2628
   740.16         23.1778
   740.30         23.0953
   740.44         23.0306
   740.58         22.9989
   740.72         23.0128
   740.86         23.0830
   741.00         23.2136
   741.14         23.3975
   741.28         23.6140
   741.42         23.8341
   741.56         24.0296
   741.70         24.1775
   741.84         24.2606
   741.98         24.2678
   742.12         24.1998
   742.26         24.0711
   742.40         23.9092
   742.54         23.7486
   742.68         23.6202
   742.82         23.5485
   742.96         23.5485
   743.10         23.6202
   743.24         23.7486
   743.38         23.9092
   743.52         24.0711
   743.66         24.1998
   743.80         24.2678
   743.94         24.2606
   744.08         24.1775
   744.22         24.0296
