# File BD+63137
# Wavelength [nm]    Normalized Amplitude
   349.70         1.0705
   349.84         1.0452
   349.98         1.0326
   350.12         1.0314
   350.26         1.0394
   350.40         1.0538
   350.54         1.0720
   350.68         1.0911
   350.82         1.1076
   350.96         1.1187
   351.10         1.1225
   351.24         1.1187
   351.38         1.1076
   351.52         1.0911
   351.66         1.0720
   351.80         1.0538
   351.94         1.0394
   352.08         1.0314
   352.22         1.0326
   352.36         1.0452
   352.50         1.0705
   352.64         1.1085
   352.78         1.1582
   352.92         1.2174
   353.06         1.2828
   353.20         1.3504
   353.34         1.4153
   353.48         1.4727
   353.62         1.5193
   353.76         1.5534
   353.90         1.5746
   354.04         1.5834
   354.18         1.5810
   354.32         1.5689
   354.46         1.5485
   354.60         1.5209
   354.74         1.4874
   354.88         1.4499
   355.02         1.4104
   355.16         1.3708
   355.30         1.3317
   355.44         1.2926
   355.58         1.2523
   355.72         1.2097
   355.86         1.1643
   356.00         1.1163
   356.14         1.0667
   356.28         1.0171
   356.42         0.9688
   356.56         0.9232
   356.70         0.8810
   356.84         0.8422
   356.98         0.8074
   357.12         0.7769
   357.26         0.7512
   357.40         0.7302
   357.54         0.7136
   357.68         0.7014
   357.82         0.6936
   357.96         0.6898
   358.10         0.6901
   358.24         0.6945
   358.38         0.7041
   358.52         0.7204
   358.66         0.7445
   358.80         0.7769
   358.94         0.8165
   359.08         0.8606
   359.22         0.9053
   359.36         0.9464
   359.50         0.9805
   359.64         1.0054
   359.78         1.0201
   359.92         1.0247
   360.06         1.0200
   360.20         1.0085
   360.34         0.9935
   360.48         0.9775
   360.62         0.9618
   360.76         0.9478
   360.90         0.9375
   361.04         0.9329
   361.18         0.9357
   361.32         0.9464
   361.46         0.9643
   361.60         0.9881
   361.74         1.0153
   361.88         1.0428
   362.02         1.0682
   362.16         1.0899
   362.30         1.1073
   362.44         1.1203
   362.58         1.1297
   362.72         1.1366
   362.86         1.1422
   363.00         1.1469
   363.14         1.1504
   363.28         1.1522
   363.42         1.1522
   363.56         1.1508
   363.70         1.1484
   363.84         1.1449
   363.98         1.1404
   364.12         1.1352
   364.26         1.1300
   364.40         1.1258
   364.54         1.1247
   364.68         1.1293
   364.82         1.1424
   364.96         1.1660
   365.10         1.2012
   365.24         1.2472
   365.38         1.3015
   365.52         1.3599
   365.66         1.4173
   365.80         1.4691
   365.94         1.5117
   366.08         1.5435
   366.22         1.5641
   366.36         1.5739
   366.50         1.5740
   366.64         1.5658
   366.78         1.5505
   366.92         1.5294
   367.06         1.5041
   367.20         1.4760
   367.34         1.4465
   367.48         1.4169
   367.62         1.3880
   367.76         1.3606
   367.90         1.3356
   368.04         1.3144
   368.18         1.2984
   368.32         1.2892
   368.46         1.2877
   368.60         1.2946
   368.74         1.3098
   368.88         1.3324
   369.02         1.3607
   369.16         1.3918
   369.30         1.4212
   369.44         1.4445
   369.58         1.4576
   369.72         1.4582
   369.86         1.4452
   370.00         1.4197
   370.14         1.3845
   370.28         1.3438
   370.42         1.3019
   370.56         1.2622
   370.70         1.2263
   370.84         1.1940
   370.98         1.1647
   371.12         1.1371
   371.26         1.1106
   371.40         1.0844
   371.54         1.0576
   371.68         1.0295
   371.82         0.9996
   371.96         0.9684
   372.10         0.9373
   372.24         0.9080
   372.38         0.8820
   372.52         0.8603
   372.66         0.8429
   372.80         0.8294
   372.94         0.8183
   373.08         0.8084
   373.22         0.7981
   373.36         0.7865
   373.50         0.7734
   373.64         0.7593
   373.78         0.7455
   373.92         0.7334
   374.06         0.7243
   374.20         0.7195
   374.34         0.7202
   374.48         0.7268
   374.62         0.7391
   374.76         0.7561
   374.90         0.7768
   375.04         0.8009
   375.18         0.8280
   375.32         0.8575
   375.46         0.8881
   375.60         0.9185
   375.74         0.9477
   375.88         0.9758
   376.02         1.0037
   376.16         1.0333
   376.30         1.0664
   376.44         1.1045
   376.58         1.1480
   376.72         1.1967
   376.86         1.2495
   377.00         1.3040
   377.14         1.3574
   377.28         1.4067
   377.42         1.4488
   377.56         1.4813
   377.70         1.5019
   377.84         1.5095
   377.98         1.5044
   378.12         1.4885
   378.26         1.4644
   378.40         1.4352
   378.54         1.4035
   378.68         1.3713
   378.82         1.3401
   378.96         1.3113
   379.10         1.2870
   379.24         1.2695
   379.38         1.2606
   379.52         1.2607
   379.66         1.2690
   379.80         1.2837
   379.94         1.3028
   380.08         1.3238
   380.22         1.3436
   380.36         1.3595
   380.50         1.3689
   380.64         1.3695
   380.78         1.3595
   380.92         1.3376
   381.06         1.3037
   381.20         1.2592
   381.34         1.2066
   381.48         1.1487
   381.62         1.0890
   381.76         1.0311
   381.90         0.9779
   382.04         0.9312
   382.18         0.8925
   382.32         0.8631
   382.46         0.8440
   382.60         0.8353
   382.74         0.8354
   382.88         0.8423
   383.02         0.8544
   383.16         0.8709
   383.30         0.8917
   383.44         0.9168
   383.58         0.9466
   383.72         0.9808
   383.86         1.0181
   384.00         1.0569
   384.14         1.0958
   384.28         1.1331
   384.42         1.1666
   384.56         1.1937
   384.70         1.2116
   384.84         1.2184
   384.98         1.2140
   385.12         1.1996
   385.26         1.1774
   385.40         1.1507
   385.54         1.1240
   385.68         1.1022
   385.82         1.0891
   385.96         1.0869
   386.10         1.0956
   386.24         1.1137
   386.38         1.1382
   386.52         1.1661
   386.66         1.1942
   386.80         1.2194
   386.94         1.2394
   387.08         1.2525
   387.22         1.2579
   387.36         1.2558
   387.50         1.2472
   387.64         1.2342
   387.78         1.2191
   387.92         1.2048
   388.06         1.1939
   388.20         1.1881
   388.34         1.1874
   388.48         1.1912
   388.62         1.1981
   388.76         1.2072
   388.90         1.2173
   389.04         1.2276
   389.18         1.2374
   389.32         1.2460
   389.46         1.2537
   389.60         1.2609
   389.74         1.2686
   389.88         1.2777
   390.02         1.2894
   390.16         1.3053
   390.30         1.3269
   390.44         1.3547
   390.58         1.3873
   390.72         1.4216
   390.86         1.4534
   391.00         1.4785
   391.14         1.4940
   391.28         1.4979
   391.42         1.4895
   391.56         1.4688
   391.70         1.4365
   391.84         1.3939
   391.98         1.3430
   392.12         1.2872
   392.26         1.2297
   392.40         1.1739
   392.54         1.1225
   392.68         1.0779
   392.82         1.0421
   392.96         1.0157
   393.10         0.9979
   393.24         0.9870
   393.38         0.9813
   393.52         0.9803
   393.66         0.9843
   393.80         0.9942
   393.94         1.0112
   394.08         1.0358
   394.22         1.0674
   394.36         1.1046
   394.50         1.1451
   394.64         1.1864
   394.78         1.2251
   394.92         1.2577
   395.06         1.2808
   395.20         1.2922
   395.34         1.2906
   395.48         1.2756
   395.62         1.2480
   395.76         1.2100
   395.90         1.1658
   396.04         1.1212
   396.18         1.0823
   396.32         1.0551
   396.46         1.0441
   396.60         1.0524
   396.74         1.0806
   396.88         1.1276
   397.02         1.1906
   397.16         1.2663
   397.30         1.3512
   397.44         1.4425
   397.58         1.5375
   397.72         1.6333
   397.86         1.7269
   398.00         1.8155
   398.14         1.8971
   398.28         1.9704
   398.42         2.0345
   398.56         2.0889
   398.70         2.1339
   398.84         2.1707
   398.98         2.2006
   399.12         2.2251
   399.26         2.2449
   399.40         2.2611
   399.54         2.2750
   399.68         2.2885
   399.82         2.3044
   399.96         2.3252
   400.10         2.3523
   400.24         2.3858
   400.38         2.4250
   400.52         2.4683
   400.66         2.5140
   400.80         2.5603
   400.94         2.6047
   401.08         2.6448
   401.22         2.6791
   401.36         2.7067
   401.50         2.7273
   401.64         2.7401
   401.78         2.7433
   401.92         2.7348
   402.06         2.7127
   402.20         2.6768
   402.34         2.6289
   402.48         2.5736
   402.62         2.5172
   402.76         2.4659
   402.90         2.4251
   403.04         2.3982
   403.18         2.3860
   403.32         2.3865
   403.46         2.3966
   403.60         2.4132
   403.74         2.4343
   403.88         2.4590
   404.02         2.4866
   404.16         2.5166
   404.30         2.5474
   404.44         2.5778
   404.58         2.6071
   404.72         2.6363
   404.86         2.6667
   405.00         2.6982
   405.14         2.7285
   405.28         2.7535
   405.42         2.7690
   405.56         2.7723
   405.70         2.7627
   405.84         2.7412
   405.98         2.7113
   406.12         2.6785
   406.26         2.6494
   406.40         2.6292
   406.54         2.6204
   406.68         2.6234
   406.82         2.6378
   406.96         2.6630
   407.10         2.6981
   407.24         2.7422
   407.38         2.7944
   407.52         2.8543
   407.66         2.9217
   407.80         2.9964
   407.94         3.0778
   408.08         3.1637
   408.22         3.2504
   408.36         3.3320
   408.50         3.4019
   408.64         3.4539
   408.78         3.4838
   408.92         3.4888
   409.06         3.4684
   409.20         3.4255
   409.34         3.3656
   409.48         3.2960
   409.62         3.2237
   409.76         3.1551
   409.90         3.0957
   410.04         3.0497
   410.18         3.0193
   410.32         3.0048
   410.46         3.0046
   410.60         3.0164
   410.74         3.0377
   410.88         3.0657
   411.02         3.0975
   411.16         3.1312
   411.30         3.1669
   411.44         3.2052
   411.58         3.2464
   411.72         3.2895
   411.86         3.3315
   412.00         3.3676
   412.14         3.3930
   412.28         3.4047
   412.42         3.4018
   412.56         3.3864
   412.70         3.3627
   412.84         3.3348
   412.98         3.3052
   413.12         3.2746
   413.26         3.2429
   413.40         3.2106
   413.54         3.1798
   413.68         3.1537
   413.82         3.1351
   413.96         3.1258
   414.10         3.1256
   414.24         3.1328
   414.38         3.1464
   414.52         3.1660
   414.66         3.1931
   414.80         3.2296
   414.94         3.2776
   415.08         3.3374
   415.22         3.4067
   415.36         3.4797
   415.50         3.5487
   415.64         3.6066
   415.78         3.6490
   415.92         3.6744
   416.06         3.6826
   416.20         3.6735
   416.34         3.6476
   416.48         3.6069
   416.62         3.5552
   416.76         3.4984
   416.90         3.4433
   417.04         3.3967
   417.18         3.3639
   417.32         3.3483
   417.46         3.3501
   417.60         3.3670
   417.74         3.3945
   417.88         3.4274
   418.02         3.4606
   418.16         3.4910
   418.30         3.5165
   418.44         3.5355
   418.58         3.5459
   418.72         3.5453
   418.86         3.5326
   419.00         3.5081
   419.14         3.4739
   419.28         3.4330
   419.42         3.3893
   419.56         3.3470
   419.70         3.3096
   419.84         3.2803
   419.98         3.2621
   420.12         3.2568
   420.26         3.2651
   420.40         3.2854
   420.54         3.3139
   420.68         3.3450
   420.82         3.3718
   420.96         3.3860
   421.10         3.3787
   421.24         3.3418
   421.38         3.2696
   421.52         3.1603
   421.66         3.0163
   421.80         2.8446
   421.94         2.6554
   422.08         2.4608
   422.22         2.2736
   422.36         2.1061
   422.50         1.9698
   422.64         1.8741
   422.78         1.8251
   422.92         1.8248
   423.06         1.8720
   423.20         1.9630
   423.34         2.0911
   423.48         2.2464
   423.62         2.4161
   423.76         2.5863
   423.90         2.7430
   424.04         2.8742
   424.18         2.9713
   424.32         3.0301
   424.46         3.0512
   424.60         3.0391
   424.74         3.0011
   424.88         2.9457
   425.02         2.8829
   425.16         2.8236
   425.30         2.7787
   425.44         2.7569
   425.58         2.7640
   425.72         2.8010
   425.86         2.8636
   426.00         2.9422
   426.14         3.0238
   426.28         3.0943
   426.42         3.1429
   426.56         3.1641
   426.70         3.1585
   426.84         3.1323
   426.98         3.0943
   427.12         3.0541
   427.26         3.0204
   427.40         2.9994
   427.54         2.9948
   427.68         3.0065
   427.82         3.0309
   427.96         3.0613
   428.10         3.0907
   428.24         3.1132
   428.38         3.1249
   428.52         3.1243
   428.66         3.1121
   428.80         3.0912
   428.94         3.0661
   429.08         3.0425
   429.22         3.0257
   429.36         3.0185
   429.50         3.0200
   429.64         3.0266
   429.78         3.0348
   429.92         3.0433
   430.06         3.0532
   430.20         3.0673
   430.34         3.0892
   430.48         3.1243
   430.62         3.1787
   430.76         3.2569
   430.90         3.3598
   431.04         3.4842
   431.18         3.6223
   431.32         3.7634
   431.46         3.8957
   431.60         4.0101
   431.74         4.1024
   431.88         4.1728
   432.02         4.2238
   432.16         4.2607
   432.30         4.2908
   432.44         4.3222
   432.58         4.3606
   432.72         4.4076
   432.86         4.4616
   433.00         4.5199
   433.14         4.5797
   433.28         4.6376
   433.42         4.6895
   433.56         4.7324
   433.70         4.7649
   433.84         4.7862
   433.98         4.7961
   434.12         4.7961
   434.26         4.7901
   434.40         4.7830
   434.54         4.7783
   434.68         4.7781
   434.82         4.7827
   434.96         4.7915
   435.10         4.8040
   435.24         4.8208
   435.38         4.8442
   435.52         4.8772
   435.66         4.9214
   435.80         4.9754
   435.94         5.0358
   436.08         5.0975
   436.22         5.1547
   436.36         5.2002
   436.50         5.2268
   436.64         5.2291
   436.78         5.2055
   436.92         5.1571
   437.06         5.0848
   437.20         4.9890
   437.34         4.8713
   437.48         4.7365
   437.62         4.5930
   437.76         4.4515
   437.90         4.3229
   438.04         4.2171
   438.18         4.1425
   438.32         4.1053
   438.46         4.1094
   438.60         4.1565
   438.74         4.2441
   438.88         4.3649
   439.02         4.5073
   439.16         4.6561
   439.30         4.7940
   439.44         4.9040
   439.58         4.9733
   439.72         4.9968
   439.86         4.9786
   440.00         4.9306
   440.14         4.8671
   440.28         4.8006
   440.42         4.7413
   440.56         4.6988
   440.70         4.6821
   440.84         4.6974
   440.98         4.7466
   441.12         4.8261
   441.26         4.9270
   441.40         5.0357
   441.54         5.1378
   441.68         5.2217
   441.82         5.2809
   441.96         5.3145
   442.10         5.3257
   442.24         5.3189
   442.38         5.2980
   442.52         5.2671
   442.66         5.2317
   442.80         5.1984
   442.94         5.1739
   443.08         5.1646
   443.22         5.1759
   443.36         5.2112
   443.50         5.2705
   443.64         5.3503
   443.78         5.4455
   443.92         5.5497
   444.06         5.6551
   444.20         5.7521
   444.34         5.8297
   444.48         5.8765
   444.62         5.8838
   444.76         5.8474
   444.90         5.7689
   445.04         5.6574
   445.18         5.5289
   445.32         5.4013
   445.46         5.2905
   445.60         5.2087
   445.74         5.1658
   445.88         5.1701
   446.02         5.2257
   446.16         5.3312
   446.30         5.4786
   446.44         5.6561
   446.58         5.8495
   446.72         6.0436
   446.86         6.2231
   447.00         6.3765
   447.14         6.4979
   447.28         6.5876
   447.42         6.6497
   447.56         6.6900
   447.70         6.7138
   447.84         6.7259
   447.98         6.7300
   448.12         6.7290
   448.26         6.7240
   448.40         6.7155
   448.54         6.7048
   448.68         6.6940
   448.82         6.6859
   448.96         6.6838
   449.10         6.6911
   449.24         6.7107
   449.38         6.7440
   449.52         6.7915
   449.66         6.8537
   449.80         6.9308
   449.94         7.0203
   450.08         7.1160
   450.22         7.2093
   450.36         7.2921
   450.50         7.3582
   450.64         7.4038
   450.78         7.4281
   450.92         7.4326
   451.06         7.4213
   451.20         7.3987
   451.34         7.3671
   451.48         7.3252
   451.62         7.2697
   451.76         7.1976
   451.90         7.1072
   452.04         6.9973
   452.18         6.8670
   452.32         6.7178
   452.46         6.5570
   452.60         6.3975
   452.74         6.2543
   452.88         6.1417
   453.02         6.0714
   453.16         6.0501
   453.30         6.0790
   453.44         6.1537
   453.58         6.2642
   453.72         6.3976
   453.86         6.5403
   454.00         6.6797
   454.14         6.8056
   454.28         6.9118
   454.42         6.9967
   454.56         7.0632
   454.70         7.1169
   454.84         7.1657
   454.98         7.2193
   455.12         7.2857
   455.26         7.3680
   455.40         7.4641
   455.54         7.5696
   455.68         7.6787
   455.82         7.7838
   455.96         7.8777
   456.10         7.9565
   456.24         8.0194
   456.38         8.0670
   456.52         8.0997
   456.66         8.1159
   456.80         8.1147
   456.94         8.0982
   457.08         8.0708
   457.22         8.0363
   457.36         7.9972
   457.50         7.9560
   457.64         7.9170
   457.78         7.8850
   457.92         7.8636
   458.06         7.8554
   458.20         7.8606
   458.34         7.8782
   458.48         7.9065
   458.62         7.9433
   458.76         7.9852
   458.90         8.0264
   459.04         8.0600
   459.18         8.0807
   459.32         8.0865
   459.46         8.0801
   459.60         8.0676
   459.74         8.0557
   459.88         8.0500
   460.02         8.0558
   460.16         8.0767
   460.30         8.1134
   460.44         8.1627
   460.58         8.2200
   460.72         8.2805
   460.86         8.3408
   461.00         8.3975
   461.14         8.4464
   461.28         8.4836
   461.42         8.5067
   461.56         8.5164
   461.70         8.5160
   461.84         8.5103
   461.98         8.5039
   462.12         8.5005
   462.26         8.5017
   462.40         8.5063
   462.54         8.5110
   462.68         8.5115
   462.82         8.5048
   462.96         8.4902
   463.10         8.4682
   463.24         8.4390
   463.38         8.4020
   463.52         8.3560
   463.66         8.3010
   463.80         8.2379
   463.94         8.1687
   464.08         8.0968
   464.22         8.0261
   464.36         7.9608
   464.50         7.9048
   464.64         7.8636
   464.78         7.8429
   464.92         7.8469
   465.06         7.8765
   465.20         7.9292
   465.34         7.9994
   465.48         8.0780
   465.62         8.1538
   465.76         8.2158
   465.90         8.2566
   466.04         8.2741
   466.18         8.2705
   466.32         8.2511
   466.46         8.2236
   466.60         8.1961
   466.74         8.1755
   466.88         8.1662
   467.02         8.1696
   467.16         8.1857
   467.30         8.2125
   467.44         8.2449
   467.58         8.2755
   467.72         8.2970
   467.86         8.3044
   468.00         8.2957
   468.14         8.2732
   468.28         8.2436
   468.42         8.2156
   468.56         8.1955
   468.70         8.1849
   468.84         8.1821
   468.98         8.1835
   469.12         8.1841
   469.26         8.1782
   469.40         8.1605
   469.54         8.1280
   469.68         8.0812
   469.82         8.0239
   469.96         7.9623
   470.10         7.9029
   470.24         7.8511
   470.38         7.8110
   470.52         7.7862
   470.66         7.7800
   470.80         7.7947
   470.94         7.8295
   471.08         7.8805
   471.22         7.9415
   471.36         8.0065
   471.50         8.0691
   471.64         8.1231
   471.78         8.1633
   471.92         8.1861
   472.06         8.1900
   472.20         8.1751
   472.34         8.1435
   472.48         8.0985
   472.62         8.0437
   472.76         7.9825
   472.90         7.9186
   473.04         7.8568
   473.18         7.8021
   473.32         7.7590
   473.46         7.7300
   473.60         7.7154
   473.74         7.7150
   473.88         7.7277
   474.02         7.7505
   474.16         7.7783
   474.30         7.8055
   474.44         7.8276
   474.58         7.8410
   474.72         7.8420
   474.86         7.8277
   475.00         7.7962
   475.14         7.7471
   475.28         7.6809
   475.42         7.5989
   475.56         7.5029
   475.70         7.3965
   475.84         7.2841
   475.98         7.1703
   476.12         7.0587
   476.26         6.9525
   476.40         6.8539
   476.54         6.7633
   476.68         6.6797
   476.82         6.6008
   476.96         6.5250
   477.10         6.4511
   477.24         6.3789
   477.38         6.3093
   477.52         6.2444
   477.66         6.1869
   477.80         6.1397
   477.94         6.1064
   478.08         6.0908
   478.22         6.0969
   478.36         6.1281
   478.50         6.1856
   478.64         6.2680
   478.78         6.3715
   478.92         6.4903
   479.06         6.6176
   479.20         6.7470
   479.34         6.8729
   479.48         6.9909
   479.62         7.0973
   479.76         7.1906
   479.90         7.2703
   480.04         7.3371
   480.18         7.3915
   480.32         7.4345
   480.46         7.4681
   480.60         7.4946
   480.74         7.5164
   480.88         7.5346
   481.02         7.5491
   481.16         7.5584
   481.30         7.5603
   481.44         7.5526
   481.58         7.5344
   481.72         7.5061
   481.86         7.4689
   482.00         7.4245
   482.14         7.3756
   482.28         7.3258
   482.42         7.2792
   482.56         7.2390
   482.70         7.2069
   482.84         7.1843
   482.98         7.1724
   483.12         7.1713
   483.26         7.1797
   483.40         7.1957
   483.54         7.2166
   483.68         7.2404
   483.82         7.2654
   483.96         7.2914
   484.10         7.3202
   484.24         7.3541
   484.38         7.3956
   484.52         7.4461
   484.66         7.5065
   484.80         7.5755
   484.94         7.6500
   485.08         7.7260
   485.22         7.7996
   485.36         7.8680
   485.50         7.9285
   485.64         7.9775
   485.78         8.0113
   485.92         8.0279
   486.06         8.0274
   486.20         8.0115
   486.34         7.9835
   486.48         7.9471
   486.62         7.9043
   486.76         7.8561
   486.90         7.8032
   487.04         7.7471
   487.18         7.6906
   487.32         7.6369
   487.46         7.5889
   487.60         7.5495
   487.74         7.5212
   487.88         7.5057
   488.02         7.5033
   488.16         7.5126
   488.30         7.5308
   488.44         7.5542
   488.58         7.5780
   488.72         7.5970
   488.86         7.6075
   489.00         7.6090
   489.14         7.6044
   489.28         7.5999
   489.42         7.6033
   489.56         7.6227
   489.70         7.6640
   489.84         7.7283
   489.98         7.8125
   490.12         7.9117
   490.26         8.0211
   490.40         8.1355
   490.54         8.2484
   490.68         8.3517
   490.82         8.4379
   490.96         8.5017
   491.10         8.5405
   491.24         8.5548
   491.38         8.5475
   491.52         8.5213
   491.66         8.4767
   491.80         8.4138
   491.94         8.3333
   492.08         8.2386
   492.22         8.1370
   492.36         8.0385
   492.50         7.9550
   492.64         7.8982
   492.78         7.8775
   492.92         7.8964
   493.06         7.9515
   493.20         8.0346
   493.34         8.1355
   493.48         8.2429
   493.62         8.3451
   493.76         8.4308
   493.90         8.4916
   494.04         8.5231
   494.18         8.5253
   494.32         8.5038
   494.46         8.4695
   494.60         8.4347
   494.74         8.4092
   494.88         8.3995
   495.02         8.4072
   495.16         8.4281
   495.30         8.4525
   495.44         8.4676
   495.58         8.4626
   495.72         8.4318
   495.86         8.3747
   496.00         8.2938
   496.14         8.1938
   496.28         8.0816
   496.42         7.9653
   496.56         7.8531
   496.70         7.7527
   496.84         7.6712
   496.98         7.6155
   497.12         7.5901
   497.26         7.5953
   497.40         7.6276
   497.54         7.6793
   497.68         7.7390
   497.82         7.7930
   497.96         7.8278
   498.10         7.8349
   498.24         7.8122
   498.38         7.7617
   498.52         7.6865
   498.66         7.5905
   498.80         7.4796
   498.94         7.3618
   499.08         7.2465
   499.22         7.1432
   499.36         7.0606
   499.50         7.0039
   499.64         6.9732
   499.78         6.9636
   499.92         6.9681
   500.06         6.9800
   500.20         6.9923
   500.34         6.9983
   500.48         6.9926
   500.62         6.9742
   500.76         6.9465
   500.90         6.9135
   501.04         6.8762
   501.18         6.8340
   501.32         6.7872
   501.46         6.7392
   501.60         6.6949
   501.74         6.6585
   501.88         6.6317
   502.02         6.6145
   502.16         6.6067
   502.30         6.6077
   502.44         6.6165
   502.58         6.6326
   502.72         6.6559
   502.86         6.6853
   503.00         6.7190
   503.14         6.7545
   503.28         6.7896
   503.42         6.8213
   503.56         6.8447
   503.70         6.8541
   503.84         6.8465
   503.98         6.8230
   504.12         6.7881
   504.26         6.7468
   504.40         6.7037
   504.54         6.6631
   504.68         6.6291
   504.82         6.6058
   504.96         6.5958
   505.10         6.6004
   505.24         6.6199
   505.38         6.6529
   505.52         6.6956
   505.66         6.7429
   505.80         6.7898
   505.94         6.8320
   506.08         6.8647
   506.22         6.8834
   506.36         6.8854
   506.50         6.8712
   506.64         6.8431
   506.78         6.8037
   506.92         6.7544
   507.06         6.6971
   507.20         6.6337
   507.34         6.5675
   507.48         6.5025
   507.62         6.4421
   507.76         6.3875
   507.90         6.3390
   508.04         6.2971
   508.18         6.2624
   508.32         6.2355
   508.46         6.2156
   508.60         6.2012
   508.74         6.1914
   508.88         6.1875
   509.02         6.1917
   509.16         6.2051
   509.30         6.2274
   509.44         6.2569
   509.58         6.2904
   509.72         6.3229
   509.86         6.3481
   510.00         6.3605
   510.14         6.3554
   510.28         6.3304
   510.42         6.2861
   510.56         6.2265
   510.70         6.1578
   510.84         6.0868
   510.98         6.0200
   511.12         5.9639
   511.26         5.9246
   511.40         5.9067
   511.54         5.9114
   511.68         5.9360
   511.82         5.9747
   511.96         6.0195
   512.10         6.0623
   512.24         6.0952
   512.38         6.1121
   512.52         6.1100
   512.66         6.0887
   512.80         6.0514
   512.94         6.0037
   513.08         5.9529
   513.22         5.9067
   513.36         5.8718
   513.50         5.8533
   513.64         5.8537
   513.78         5.8738
   513.92         5.9109
   514.06         5.9594
   514.20         6.0120
   514.34         6.0616
   514.48         6.1022
   514.62         6.1295
   514.76         6.1414
   514.90         6.1368
   515.04         6.1164
   515.18         6.0837
   515.32         6.0459
   515.46         6.0123
   515.60         5.9919
   515.74         5.9918
   515.88         6.0157
   516.02         6.0624
   516.16         6.1252
   516.30         6.1931
   516.44         6.2524
   516.58         6.2894
   516.72         6.2917
   516.86         6.2501
   517.00         6.1604
   517.14         6.0254
   517.28         5.8544
   517.42         5.6603
   517.56         5.4583
   517.70         5.2637
   517.84         5.0896
   517.98         4.9464
   518.12         4.8408
   518.26         4.7767
   518.40         4.7557
   518.54         4.7774
   518.68         4.8382
   518.82         4.9325
   518.96         5.0542
   519.10         5.1993
   519.24         5.3652
   519.38         5.5492
   519.52         5.7479
   519.66         5.9565
   519.80         6.1667
   519.94         6.3651
   520.08         6.5337
   520.22         6.6536
   520.36         6.7101
   520.50         6.6976
   520.64         6.6227
   520.78         6.5036
   520.92         6.3658
   521.06         6.2360
   521.20         6.1371
   521.34         6.0876
   521.48         6.1022
   521.62         6.1912
   521.76         6.3580
   521.90         6.5956
   522.04         6.8861
   522.18         7.2031
   522.32         7.5171
   522.46         7.8014
   522.60         8.0366
   522.74         8.2119
   522.88         8.3256
   523.02         8.3855
   523.16         8.4083
   523.30         8.4155
   523.44         8.4272
   523.58         8.4574
   523.72         8.5134
   523.86         8.5972
   524.00         8.7074
   524.14         8.8379
   524.28         8.9779
   524.42         9.1128
   524.56         9.2280
   524.70         9.3126
   524.84         9.3617
   524.98         9.3771
   525.12         9.3646
   525.26         9.3315
   525.40         9.2853
   525.54         9.2333
   525.68         9.1815
   525.82         9.1323
   525.96         9.0824
   526.10         9.0238
   526.24         8.9471
   526.38         8.8426
   526.52         8.7028
   526.66         8.5251
   526.80         8.3145
   526.94         8.0845
   527.08         7.8552
   527.22         7.6505
   527.36         7.4938
   527.50         7.4038
   527.64         7.3910
   527.78         7.4560
   527.92         7.5910
   528.06         7.7820
   528.20         8.0115
   528.34         8.2610
   528.48         8.5130
   528.62         8.7529
   528.76         8.9709
   528.90         9.1611
   529.04         9.3205
   529.18         9.4476
   529.32         9.5415
   529.46         9.6026
   529.60         9.6316
   529.74         9.6301
   529.88         9.6015
   530.02         9.5514
   530.16         9.4871
   530.30         9.4175
   530.44         9.3539
   530.58         9.3093
   530.72         9.2955
   530.86         9.3190
   531.00         9.3798
   531.14         9.4728
   531.28         9.5889
   531.42         9.7173
   531.56         9.8451
   531.70         9.9583
   531.84         10.0435
   531.98         10.0903
   532.12         10.0933
   532.26         10.0496
   532.40         9.9583
   532.54         9.8220
   532.68         9.6493
   532.82         9.4546
   532.96         9.2552
   533.10         9.0696
   533.24         8.9143
   533.38         8.8009
   533.52         8.7347
   533.66         8.7165
   533.80         8.7427
   533.94         8.8059
   534.08         8.8953
   534.22         8.9973
   534.36         9.0971
   534.50         9.1823
   534.64         9.2457
   534.78         9.2873
   534.92         9.3123
   535.06         9.3315
   535.20         9.3588
   535.34         9.4075
   535.48         9.4857
   535.62         9.5948
   535.76         9.7308
   535.90         9.8847
   536.04         10.0448
   536.18         10.1984
   536.32         10.3342
   536.46         10.4419
   536.60         10.5108
   536.74         10.5325
   536.88         10.5044
   537.02         10.4327
   537.16         10.3313
   537.30         10.2182
   537.44         10.1120
   537.58         10.0287
   537.72         9.9802
   537.86         9.9727
   538.00         10.0072
   538.14         10.0798
   538.28         10.1834
   538.42         10.3079
   538.56         10.4406
   538.70         10.5671
   538.84         10.6733
   538.98         10.7459
   539.12         10.7745
   539.26         10.7535
   539.40         10.6858
   539.54         10.5821
   539.68         10.4569
   539.82         10.3229
   539.96         10.1880
   540.10         10.0561
   540.24         9.9292
   540.38         9.8086
   540.52         9.6962
   540.66         9.5959
   540.80         9.5133
   540.94         9.4552
   541.08         9.4271
   541.22         9.4332
   541.36         9.4765
   541.50         9.5588
   541.64         9.6799
   541.78         9.8368
   541.92         10.0240
   542.06         10.2334
   542.20         10.4534
   542.34         10.6683
   542.48         10.8585
   542.62         11.0045
   542.76         11.0921
   542.90         11.1155
   543.04         11.0764
   543.18         10.9836
   543.32         10.8524
   543.46         10.7019
   543.60         10.5520
   543.74         10.4207
   543.88         10.3221
   544.02         10.2637
   544.16         10.2442
   544.30         10.2543
   544.44         10.2827
   544.58         10.3197
   544.72         10.3581
   544.86         10.3914
   545.00         10.4122
   545.14         10.4138
   545.28         10.3940
   545.42         10.3578
   545.56         10.3153
   545.70         10.2765
   545.84         10.2499
   545.98         10.2407
   546.12         10.2514
   546.26         10.2824
   546.40         10.3319
   546.54         10.3952
   546.68         10.4656
   546.82         10.5371
   546.96         10.6063
   547.10         10.6722
   547.24         10.7321
   547.38         10.7814
   547.52         10.8149
   547.66         10.8302
   547.80         10.8290
   547.94         10.8167
   548.08         10.8004
   548.22         10.7848
   548.36         10.7721
   548.50         10.7644
   548.64         10.7656
   548.78         10.7800
   548.92         10.8098
   549.06         10.8538
   549.20         10.9075
   549.34         10.9647
   549.48         11.0191
   549.62         11.0650
   549.76         11.0979
   549.90         11.1160
   550.04         11.1196
   550.18         11.1102
   550.32         11.0892
   550.46         11.0589
   550.60         11.0229
   550.74         10.9840
   550.88         10.9424
   551.02         10.8962
   551.16         10.8445
   551.30         10.7890
   551.44         10.7338
   551.58         10.6841
   551.72         10.6453
   551.86         10.6232
   552.00         10.6232
   552.14         10.6488
   552.28         10.6996
   552.42         10.7721
   552.56         10.8601
   552.70         10.9567
   552.84         11.0555
   552.98         11.1509
   553.12         11.2384
   553.26         11.3142
   553.40         11.3746
   553.54         11.4188
   553.68         11.4502
   553.82         11.4761
   553.96         11.5048
   554.10         11.5418
   554.24         11.5883
   554.38         11.6425
   554.52         11.7007
   554.66         11.7585
   554.80         11.8114
   554.94         11.8564
   555.08         11.8928
   555.22         11.9214
   555.36         11.9434
   555.50         11.9600
   555.64         11.9719
   555.78         11.9792
   555.92         11.9812
   556.06         11.9759
   556.20         11.9607
   556.34         11.9329
   556.48         11.8900
   556.62         11.8304
   556.76         11.7545
   556.90         11.6647
   557.04         11.5652
   557.18         11.4622
   557.32         11.3634
   557.46         11.2770
   557.60         11.2096
   557.74         11.1655
   557.88         11.1460
   558.02         11.1494
   558.16         11.1714
   558.30         11.2042
   558.44         11.2360
   558.58         11.2531
   558.72         11.2446
   558.86         11.2044
   559.00         11.1324
   559.14         11.0326
   559.28         10.9122
   559.42         10.7810
   559.56         10.6492
   559.70         10.5262
   559.84         10.4201
   559.98         10.3372
   560.12         10.2819
   560.26         10.2577
   560.40         10.2667
   560.54         10.3085
   560.68         10.3811
   560.82         10.4804
   560.96         10.5998
   561.10         10.7311
   561.24         10.8653
   561.38         10.9940
   561.52         11.1091
   561.66         11.2028
   561.80         11.2687
   561.94         11.3044
   562.08         11.3107
   562.22         11.2902
   562.36         11.2493
   562.50         11.1980
   562.64         11.1492
   562.78         11.1148
   562.92         11.1038
   563.06         11.1205
   563.20         11.1648
   563.34         11.2329
   563.48         11.3174
   563.62         11.4085
   563.76         11.4964
   563.90         11.5734
   564.04         11.6353
   564.18         11.6807
   564.32         11.7096
   564.46         11.7229
   564.60         11.7227
   564.74         11.7119
   564.88         11.6945
   565.02         11.6760
   565.16         11.6618
   565.30         11.6548
   565.44         11.6555
   565.58         11.6617
   565.72         11.6699
   565.86         11.6766
   566.00         11.6795
   566.14         11.6787
   566.28         11.6766
   566.42         11.6771
   566.56         11.6840
   566.70         11.7000
   566.84         11.7262
   566.98         11.7622
   567.12         11.8068
   567.26         11.8587
   567.40         11.9162
   567.54         11.9770
   567.68         12.0370
   567.82         12.0901
   567.96         12.1297
   568.10         12.1509
   568.24         12.1521
   568.38         12.1341
   568.52         12.0990
   568.66         12.0500
   568.80         11.9917
   568.94         11.9300
   569.08         11.8705
   569.22         11.8194
   569.36         11.7826
   569.50         11.7645
   569.64         11.7664
   569.78         11.7866
   569.92         11.8216
   570.06         11.8665
   570.20         11.9156
   570.34         11.9619
   570.48         11.9982
   570.62         12.0186
   570.76         12.0190
   570.90         11.9974
   571.04         11.9550
   571.18         11.8976
   571.32         11.8355
   571.46         11.7791
   571.60         11.7373
   571.74         11.7162
   571.88         11.7194
   572.02         11.7473
   572.16         11.7969
   572.30         11.8630
   572.44         11.9391
   572.58         12.0196
   572.72         12.0990
   572.86         12.1709
   573.00         12.2283
   573.14         12.2668
   573.28         12.2861
   573.42         12.2894
   573.56         12.2827
   573.70         12.2744
   573.84         12.2720
   573.98         12.2804
   574.12         12.3021
   574.26         12.3386
   574.40         12.3905
   574.54         12.4565
   574.68         12.5329
   574.82         12.6139
   574.96         12.6929
   575.10         12.7644
   575.24         12.8251
   575.38         12.8731
   575.52         12.9068
   575.66         12.9260
   575.80         12.9313
   575.94         12.9228
   576.08         12.9009
   576.22         12.8685
   576.36         12.8306
   576.50         12.7927
   576.64         12.7600
   576.78         12.7364
   576.92         12.7243
   577.06         12.7233
   577.20         12.7312
   577.34         12.7443
   577.48         12.7590
   577.62         12.7717
   577.76         12.7781
   577.90         12.7741
   578.04         12.7557
   578.18         12.7198
   578.32         12.6653
   578.46         12.5948
   578.60         12.5138
   578.74         12.4296
   578.88         12.3513
   579.02         12.2885
   579.16         12.2494
   579.30         12.2388
   579.44         12.2581
   579.58         12.3055
   579.72         12.3776
   579.86         12.4707
   580.00         12.5794
   580.14         12.6963
   580.28         12.8130
   580.42         12.9220
   580.56         13.0184
   580.70         13.0992
   580.84         13.1644
   580.98         13.2156
   581.12         13.2551
   581.26         13.2844
   581.40         13.3053
   581.54         13.3206
   581.68         13.3332
   581.82         13.3436
   581.96         13.3508
   582.10         13.3537
   582.24         13.3535
   582.38         13.3526
   582.52         13.3534
   582.66         13.3564
   582.80         13.3616
   582.94         13.3696
   583.08         13.3815
   583.22         13.3976
   583.36         13.4166
   583.50         13.4364
   583.64         13.4549
   583.78         13.4705
   583.92         13.4827
   584.06         13.4913
   584.20         13.4961
   584.34         13.4963
   584.48         13.4914
   584.62         13.4808
   584.76         13.4650
   584.90         13.4438
   585.04         13.4161
   585.18         13.3781
   585.32         13.3251
   585.46         13.2553
   585.60         13.1719
   585.74         13.0812
   585.88         12.9889
   586.02         12.9002
   586.16         12.8202
   586.30         12.7539
   586.44         12.7044
   586.58         12.6738
   586.72         12.6632
   586.86         12.6723
   587.00         12.6988
   587.14         12.7377
   587.28         12.7818
   587.42         12.8217
   587.56         12.8477
   587.70         12.8505
   587.84         12.8218
   587.98         12.7564
   588.12         12.6512
   588.26         12.4999
   588.40         12.2899
   588.54         12.0058
   588.68         11.6369
   588.82         11.1834
   588.96         10.6551
   589.10         10.0692
   589.24         9.4490
   589.38         8.8250
   589.52         8.2345
   589.66         7.7188
   589.80         7.3175
   589.94         7.0633
   590.08         6.9774
   590.22         7.0682
   590.36         7.3293
   590.50         7.7405
   590.64         8.2688
   590.78         8.8722
   590.92         9.5040
   591.06         10.1202
   591.20         10.6864
   591.34         11.1801
   591.48         11.5886
   591.62         11.9064
   591.76         12.1360
   591.90         12.2883
   592.04         12.3807
   592.18         12.4325
   592.32         12.4614
   592.46         12.4808
   592.60         12.5000
   592.74         12.5251
   592.88         12.5604
   593.02         12.6067
   593.16         12.6615
   593.30         12.7209
   593.44         12.7810
   593.58         12.8376
   593.72         12.8864
   593.86         12.9244
   594.00         12.9499
   594.14         12.9627
   594.28         12.9647
   594.42         12.9599
   594.56         12.9524
   594.70         12.9460
   594.84         12.9438
   594.98         12.9468
   595.12         12.9549
   595.26         12.9661
   595.40         12.9779
   595.54         12.9883
   595.68         12.9950
   595.82         12.9968
   595.96         12.9940
   596.10         12.9873
   596.24         12.9772
   596.38         12.9656
   596.52         12.9563
   596.66         12.9531
   596.80         12.9582
   596.94         12.9725
   597.08         12.9950
   597.22         13.0215
   597.36         13.0466
   597.50         13.0661
   597.64         13.0774
   597.78         13.0793
   597.92         13.0707
   598.06         13.0522
   598.20         13.0256
   598.34         12.9942
   598.48         12.9623
   598.62         12.9345
   598.76         12.9146
   598.90         12.9064
   599.04         12.9131
   599.18         12.9364
   599.32         12.9749
   599.46         13.0236
   599.60         13.0766
   599.74         13.1279
   599.88         13.1711
   600.02         13.2017
   600.16         13.2175
   600.30         13.2178
   600.44         13.2027
   600.58         13.1743
   600.72         13.1354
   600.86         13.0894
   601.00         13.0397
   601.14         12.9902
   601.28         12.9448
   601.42         12.9072
   601.56         12.8795
   601.70         12.8594
   601.84         12.8424
   601.98         12.8246
   602.12         12.8040
   602.26         12.7809
   602.40         12.7585
   602.54         12.7408
   602.68         12.7314
   602.82         12.7335
   602.96         12.7492
   603.10         12.7801
   603.24         12.8257
   603.38         12.8832
   603.52         12.9488
   603.66         13.0195
   603.80         13.0934
   603.94         13.1680
   604.08         13.2401
   604.22         13.3054
   604.36         13.3607
   604.50         13.4059
   604.64         13.4439
   604.78         13.4770
   604.92         13.5072
   605.06         13.5351
   605.20         13.5581
   605.34         13.5723
   605.48         13.5754
   605.62         13.5680
   605.76         13.5531
   605.90         13.5352
   606.04         13.5200
   606.18         13.5137
   606.32         13.5214
   606.46         13.5451
   606.60         13.5827
   606.74         13.6289
   606.88         13.6762
   607.02         13.7179
   607.16         13.7488
   607.30         13.7656
   607.44         13.7659
   607.58         13.7491
   607.72         13.7156
   607.86         13.6683
   608.00         13.6134
   608.14         13.5594
   608.28         13.5138
   608.42         13.4809
   608.56         13.4611
   608.70         13.4508
   608.84         13.4433
   608.98         13.4290
   609.12         13.3976
   609.26         13.3431
   609.40         13.2654
   609.54         13.1711
   609.68         13.0707
   609.82         12.9754
   609.96         12.8954
   610.10         12.8394
   610.24         12.8142
   610.38         12.8225
   610.52         12.8635
   610.66         12.9325
   610.80         13.0189
   610.94         13.1057
   611.08         13.1723
   611.22         13.2013
   611.36         13.1844
   611.50         13.1230
   611.64         13.0268
   611.78         12.9126
   611.92         12.8013
   612.06         12.7123
   612.20         12.6591
   612.34         12.6460
   612.48         12.6678
   612.62         12.7149
   612.76         12.7773
   612.90         12.8458
   613.04         12.9117
   613.18         12.9671
   613.32         13.0061
   613.46         13.0262
   613.60         13.0297
   613.74         13.0239
   613.88         13.0192
   614.02         13.0247
   614.16         13.0451
   614.30         13.0798
   614.44         13.1232
   614.58         13.1679
   614.72         13.2045
   614.86         13.2201
   615.00         13.1982
   615.14         13.1238
   615.28         12.9920
   615.42         12.8097
   615.56         12.5887
   615.70         12.3416
   615.84         12.0810
   615.98         11.8223
   616.12         11.5846
   616.26         11.3873
   616.40         11.2461
   616.54         11.1727
   616.68         11.1737
   616.82         11.2492
   616.96         11.3916
   617.10         11.5867
   617.24         11.8163
   617.38         12.0599
   617.52         12.2953
   617.66         12.5036
   617.80         12.6735
   617.94         12.8012
   618.08         12.8856
   618.22         12.9275
   618.36         12.9311
   618.50         12.9053
   618.64         12.8626
   618.78         12.8151
   618.92         12.7708
   619.06         12.7358
   619.20         12.7164
   619.34         12.7166
   619.48         12.7382
   619.62         12.7819
   619.76         12.8453
   619.90         12.9222
   620.04         13.0028
   620.18         13.0745
   620.32         13.1246
   620.46         13.1440
   620.60         13.1284
   620.74         13.0792
   620.88         13.0019
   621.02         12.9024
   621.16         12.7862
   621.30         12.6595
   621.44         12.5303
   621.58         12.4079
   621.72         12.3000
   621.86         12.2095
   622.00         12.1350
   622.14         12.0746
   622.28         12.0276
   622.42         11.9926
   622.56         11.9678
   622.70         11.9511
   622.84         11.9408
   622.98         11.9361
   623.12         11.9365
   623.26         11.9419
   623.40         11.9523
   623.54         11.9671
   623.68         11.9859
   623.82         12.0077
   623.96         12.0304
   624.10         12.0505
   624.24         12.0631
   624.38         12.0637
   624.52         12.0492
   624.66         12.0195
   624.80         11.9766
   624.94         11.9236
   625.08         11.8630
   625.22         11.7966
   625.36         11.7285
   625.50         11.6656
   625.64         11.6161
   625.78         11.5875
   625.92         11.5861
   626.06         11.6158
   626.20         11.6761
   626.34         11.7614
   626.48         11.8618
   626.62         11.9666
   626.76         12.0661
   626.90         12.1524
   627.04         12.2200
   627.18         12.2668
   627.32         12.2948
   627.46         12.3101
   627.60         12.3208
   627.74         12.3344
   627.88         12.3568
   628.02         12.3917
   628.16         12.4385
   628.30         12.4934
   628.44         12.5512
   628.58         12.6067
   628.72         12.6557
   628.86         12.6942
   629.00         12.7181
   629.14         12.7255
   629.28         12.7173
   629.42         12.6965
   629.56         12.6685
   629.70         12.6409
   629.84         12.6206
   629.98         12.6124
   630.12         12.6185
   630.26         12.6384
   630.40         12.6695
   630.54         12.7073
   630.68         12.7472
   630.82         12.7859
   630.96         12.8225
   631.10         12.8565
   631.24         12.8879
   631.38         12.9175
   631.52         12.9455
   631.66         12.9726
   631.80         13.0007
   631.94         13.0319
   632.08         13.0684
   632.22         13.1111
   632.36         13.1577
   632.50         13.2022
   632.64         13.2402
   632.78         13.2694
   632.92         13.2895
   633.06         13.2998
   633.20         13.3000
   633.34         13.2919
   633.48         13.2793
   633.62         13.2670
   633.76         13.2584
   633.90         13.2567
   634.04         13.2651
   634.18         13.2848
   634.32         13.3137
   634.46         13.3478
   634.60         13.3822
   634.74         13.4117
   634.88         13.4304
   635.02         13.4326
   635.16         13.4159
   635.30         13.3821
   635.44         13.3339
   635.58         13.2740
   635.72         13.2061
   635.86         13.1366
   636.00         13.0739
   636.14         13.0259
   636.28         12.9971
   636.42         12.9888
   636.56         12.9996
   636.70         13.0251
   636.84         13.0568
   636.98         13.0851
   637.12         13.1026
   637.26         13.1051
   637.40         13.0898
   637.54         13.0557
   637.68         13.0037
   637.82         12.9386
   637.96         12.8666
   638.10         12.7926
   638.24         12.7213
   638.38         12.6578
   638.52         12.6071
   638.66         12.5715
   638.80         12.5499
   638.94         12.5395
   639.08         12.5381
   639.22         12.5445
   639.36         12.5580
   639.50         12.5785
   639.64         12.6067
   639.78         12.6435
   639.92         12.6881
   640.06         12.7382
   640.20         12.7915
   640.34         12.8470
   640.48         12.9035
   640.62         12.9588
   640.76         13.0090
   640.90         13.0511
   641.04         13.0837
   641.18         13.1066
   641.32         13.1205
   641.46         13.1285
   641.60         13.1349
   641.74         13.1435
   641.88         13.1561
   642.02         13.1729
   642.16         13.1942
   642.30         13.2212
   642.44         13.2537
   642.58         13.2885
   642.72         13.3200
   642.86         13.3426
   643.00         13.3543
   643.14         13.3564
   643.28         13.3526
   643.42         13.3469
   643.56         13.3432
   643.70         13.3442
   643.84         13.3502
   643.98         13.3601
   644.12         13.3737
   644.26         13.3910
   644.40         13.4119
   644.54         13.4359
   644.68         13.4630
   644.82         13.4923
   644.96         13.5187
   645.10         13.5335
   645.24         13.5297
   645.38         13.5066
   645.52         13.4707
   645.66         13.4316
   645.80         13.3965
   645.94         13.3677
   646.08         13.3455
   646.22         13.3306
   646.36         13.3260
   646.50         13.3369
   646.64         13.3687
   646.78         13.4239
   646.92         13.5007
   647.06         13.5929
   647.20         13.6929
   647.34         13.7924
   647.48         13.8836
   647.62         13.9599
   647.76         14.0181
   647.90         14.0584
   648.04         14.0808
   648.18         14.0813
   648.32         14.0533
   648.46         13.9915
   648.60         13.8956
   648.74         13.7719
   648.88         13.6308
   649.02         13.4858
   649.16         13.3514
   649.30         13.2405
   649.44         13.1641
   649.58         13.1308
   649.72         13.1449
   649.86         13.2061
   650.00         13.3104
   650.14         13.4494
   650.28         13.6116
   650.42         13.7831
   650.56         13.9498
   650.70         14.0992
   650.84         14.2231
   650.98         14.3192
   651.12         14.3906
   651.26         14.4444
   651.40         14.4883
   651.54         14.5287
   651.68         14.5705
   651.82         14.6155
   651.96         14.6631
   652.10         14.7105
   652.24         14.7541
   652.38         14.7903
   652.52         14.8169
   652.66         14.8328
   652.80         14.8379
   652.94         14.8340
   653.08         14.8238
   653.22         14.8101
   653.36         14.7937
   653.50         14.7742
   653.64         14.7519
   653.78         14.7287
   653.92         14.7074
   654.06         14.6891
   654.20         14.6724
   654.34         14.6549
   654.48         14.6342
   654.62         14.6092
   654.76         14.5811
   654.90         14.5513
   655.04         14.5185
   655.18         14.4782
   655.32         14.4271
   655.46         14.3654
   655.60         14.2965
   655.74         14.2236
   655.88         14.1502
   656.02         14.0798
   656.16         14.0166
   656.30         13.9652
   656.44         13.9296
   656.58         13.9129
   656.72         13.9153
   656.86         13.9356
   657.00         13.9724
   657.14         14.0246
   657.28         14.0911
   657.42         14.1688
   657.56         14.2522
   657.70         14.3357
   657.84         14.4163
   657.98         14.4933
   658.12         14.5636
   658.26         14.6211
   658.40         14.6602
   658.54         14.6776
   658.68         14.6734
   658.82         14.6509
   658.96         14.6164
   659.10         14.5776
   659.24         14.5414
   659.38         14.5118
   659.52         14.4907
   659.66         14.4782
   659.80         14.4739
   659.94         14.4762
   660.08         14.4832
   660.22         14.4932
   660.36         14.5042
   660.50         14.5142
   660.64         14.5219
   660.78         14.5271
   660.92         14.5330
   661.06         14.5429
   661.20         14.5584
   661.34         14.5780
   661.48         14.5984
   661.62         14.6161
   661.76         14.6278
   661.90         14.6306
   662.04         14.6224
   662.18         14.6015
   662.32         14.5686
   662.46         14.5276
   662.60         14.4837
   662.74         14.4418
   662.88         14.4053
   663.02         14.3760
   663.16         14.3546
   663.30         14.3409
   663.44         14.3332
   663.58         14.3295
   663.72         14.3274
   663.86         14.3243
   664.00         14.3184
   664.14         14.3092
   664.28         14.2976
   664.42         14.2843
   664.56         14.2691
   664.70         14.2517
   664.84         14.2323
   664.98         14.2115
   665.12         14.1885
   665.26         14.1606
   665.40         14.1257
   665.54         14.0822
   665.68         14.0302
   665.82         13.9727
   665.96         13.9139
   666.10         13.8593
   666.24         13.8147
   666.38         13.7831
   666.52         13.7643
   666.66         13.7551
   666.80         13.7515
   666.94         13.7499
   667.08         13.7465
   667.22         13.7385
   667.36         13.7250
   667.50         13.7060
   667.64         13.6824
   667.78         13.6571
   667.92         13.6352
   668.06         13.6215
   668.20         13.6183
   668.34         13.6259
   668.48         13.6428
   668.62         13.6641
   668.76         13.6846
   668.90         13.6990
   669.04         13.7040
   669.18         13.6989
   669.32         13.6855
   669.46         13.6677
   669.60         13.6505
   669.74         13.6372
   669.88         13.6303
   670.02         13.6306
   670.16         13.6370
   670.30         13.6456
   670.44         13.6499
   670.58         13.6415
   670.72         13.6136
   670.86         13.5639
   671.00         13.4954
   671.14         13.4135
   671.28         13.3260
   671.42         13.2420
   671.56         13.1695
   671.70         13.1135
   671.84         13.0764
   671.98         13.0585
   672.12         13.0593
   672.26         13.0772
   672.40         13.1095
   672.54         13.1526
   672.68         13.2016
   672.82         13.2506
   672.96         13.2938
   673.10         13.3275
   673.24         13.3511
   673.38         13.3667
   673.52         13.3761
   673.66         13.3789
   673.80         13.3728
   673.94         13.3553
   674.08         13.3259
   674.22         13.2852
   674.36         13.2360
   674.50         13.1826
   674.64         13.1302
   674.78         13.0842
   674.92         13.0492
   675.06         13.0284
   675.20         13.0229
   675.34         13.0315
   675.48         13.0504
   675.62         13.0744
   675.76         13.0983
   675.90         13.1185
   676.04         13.1324
   676.18         13.1388
   676.32         13.1381
   676.46         13.1323
   676.60         13.1248
   676.74         13.1192
   676.88         13.1179
   677.02         13.1216
   677.16         13.1293
   677.30         13.1395
   677.44         13.1500
   677.58         13.1583
   677.72         13.1625
   677.86         13.1607
   678.00         13.1512
   678.14         13.1335
   678.28         13.1087
   678.42         13.0802
   678.56         13.0516
   678.70         13.0262
   678.84         13.0071
   678.98         12.9962
   679.12         12.9931
   679.26         12.9961
   679.40         13.0028
   679.54         13.0106
   679.68         13.0180
   679.82         13.0240
   679.96         13.0285
   680.10         13.0321
   680.24         13.0350
   680.38         13.0362
   680.52         13.0327
   680.66         13.0213
   680.80         13.0000
   680.94         12.9692
   681.08         12.9315
   681.22         12.8903
   681.36         12.8494
   681.50         12.8117
   681.64         12.7781
   681.78         12.7498
   681.92         12.7281
   682.06         12.7142
   682.20         12.7089
   682.34         12.7119
   682.48         12.7216
   682.62         12.7359
   682.76         12.7516
   682.90         12.7648
   683.04         12.7717
   683.18         12.7703
   683.32         12.7609
   683.46         12.7447
   683.60         12.7237
   683.74         12.7000
   683.88         12.6745
   684.02         12.6478
   684.16         12.6198
   684.30         12.5905
   684.44         12.5603
   684.58         12.5289
   684.72         12.4954
   684.86         12.4587
   685.00         12.4174
   685.14         12.3707
   685.28         12.3178
   685.42         12.2558
   685.56         12.1775
   685.70         12.0732
   685.84         11.9334
   685.98         11.7518
   686.12         11.5276
   686.26         11.2664
   686.40         10.9791
   686.54         10.6808
   686.68         10.3896
   686.82         10.1249
   686.96         9.9062
   687.10         9.7503
   687.24         9.6684
   687.38         9.6635
   687.52         9.7303
   687.66         9.8565
   687.80         10.0238
   687.94         10.2108
   688.08         10.3951
   688.22         10.5584
   688.36         10.6906
   688.50         10.7899
   688.64         10.8608
   688.78         10.9099
   688.92         10.9442
   689.06         10.9704
   689.20         10.9942
   689.34         11.0212
   689.48         11.0560
   689.62         11.1016
   689.76         11.1590
   689.90         11.2268
   690.04         11.3018
   690.18         11.3807
   690.32         11.4608
   690.46         11.5404
   690.60         11.6181
   690.74         11.6914
   690.88         11.7587
   691.02         11.8195
   691.16         11.8735
   691.30         11.9201
   691.44         11.9593
   691.58         11.9935
   691.72         12.0265
   691.86         12.0624
   692.00         12.1058
   692.14         12.1596
   692.28         12.2246
   692.42         12.2999
   692.56         12.3836
   692.70         12.4731
   692.84         12.5652
   692.98         12.6574
   693.12         12.7478
   693.26         12.8346
   693.40         12.9163
   693.54         12.9924
   693.68         13.0622
   693.82         13.1244
   693.96         13.1781
   694.10         13.2251
   694.24         13.2674
   694.38         13.3059
   694.52         13.3408
   694.66         13.3719
   694.80         13.3987
   694.94         13.4210
   695.08         13.4396
   695.22         13.4552
   695.36         13.4679
   695.50         13.4780
   695.64         13.4869
   695.78         13.4958
   695.92         13.5050
   696.06         13.5148
   696.20         13.5253
   696.34         13.5364
   696.48         13.5469
   696.62         13.5548
   696.76         13.5566
   696.90         13.5490
   697.04         13.5307
   697.18         13.5027
   697.32         13.4674
   697.46         13.4287
   697.60         13.3907
   697.74         13.3567
   697.88         13.3294
   698.02         13.3113
   698.16         13.3047
   698.30         13.3111
   698.44         13.3300
   698.58         13.3604
   698.72         13.4001
   698.86         13.4455
   699.00         13.4931
   699.14         13.5403
   699.28         13.5850
   699.42         13.6263
   699.56         13.6645
   699.70         13.7015
   699.84         13.7386
   699.98         13.7765
   700.12         13.8160
   700.26         13.8565
   700.40         13.8958
   700.54         13.9307
   700.68         13.9587
   700.82         13.9786
   700.96         13.9889
   701.10         13.9879
   701.24         13.9749
   701.38         13.9507
   701.52         13.9173
   701.66         13.8784
   701.80         13.8382
   701.94         13.8007
   702.08         13.7696
   702.22         13.7484
   702.36         13.7406
   702.50         13.7474
   702.64         13.7670
   702.78         13.7959
   702.92         13.8300
   703.06         13.8668
   703.20         13.9055
   703.34         13.9471
   703.48         13.9922
   703.62         14.0399
   703.76         14.0893
   703.90         14.1401
   704.04         14.1909
   704.18         14.2390
   704.32         14.2813
   704.46         14.3152
   704.60         14.3375
   704.74         14.3457
   704.88         14.3382
   705.02         14.3142
   705.16         14.2731
   705.30         14.2165
   705.44         14.1481
   705.58         14.0724
   705.72         13.9942
   705.86         13.9180
   706.00         13.8487
   706.14         13.7910
   706.28         13.7481
   706.42         13.7222
   706.56         13.7143
   706.70         13.7232
   706.84         13.7466
   706.98         13.7819
   707.12         13.8253
   707.26         13.8721
   707.40         13.9167
   707.54         13.9530
   707.68         13.9752
   707.82         13.9795
   707.96         13.9641
   708.10         13.9295
   708.24         13.8792
   708.38         13.8183
   708.52         13.7533
   708.66         13.6898
   708.80         13.6329
   708.94         13.5865
   709.08         13.5529
   709.22         13.5330
   709.36         13.5262
   709.50         13.5315
   709.64         13.5471
   709.78         13.5698
   709.92         13.5954
   710.06         13.6192
   710.20         13.6374
   710.34         13.6483
   710.48         13.6516
   710.62         13.6489
   710.76         13.6423
   710.90         13.6341
   711.04         13.6270
   711.18         13.6226
   711.32         13.6214
   711.46         13.6229
   711.60         13.6253
   711.74         13.6270
   711.88         13.6257
   712.02         13.6193
   712.16         13.6064
   712.30         13.5865
   712.44         13.5600
   712.58         13.5284
   712.72         13.4936
   712.86         13.4574
   713.00         13.4215
   713.14         13.3874
   713.28         13.3549
   713.42         13.3223
   713.56         13.2861
   713.70         13.2420
   713.84         13.1867
   713.98         13.1217
   714.12         13.0528
   714.26         12.9882
   714.40         12.9360
   714.54         12.9032
   714.68         12.8945
   714.82         12.9120
   714.96         12.9541
   715.10         13.0169
   715.24         13.0946
   715.38         13.1796
   715.52         13.2632
   715.66         13.3379
   715.80         13.3962
   715.94         13.4324
   716.08         13.4434
   716.22         13.4297
   716.36         13.3961
   716.50         13.3506
   716.64         13.3014
   716.78         13.2558
   716.92         13.2183
   717.06         13.1912
   717.20         13.1749
   717.34         13.1660
   717.48         13.1585
   717.62         13.1466
   717.76         13.1259
   717.90         13.0927
   718.04         13.0444
   718.18         12.9814
   718.32         12.9072
   718.46         12.8276
   718.60         12.7497
   718.74         12.6801
   718.88         12.6227
   719.02         12.5784
   719.16         12.5474
   719.30         12.5301
   719.44         12.5244
   719.58         12.5262
   719.72         12.5309
   719.86         12.5349
   720.00         12.5366
   720.14         12.5391
   720.28         12.5502
   720.42         12.5784
   720.56         12.6317
   720.70         12.7158
   720.84         12.8326
   720.98         12.9794
   721.12         13.1483
   721.26         13.3284
   721.40         13.5083
   721.54         13.6775
   721.68         13.8285
   721.82         13.9569
   721.96         14.0590
   722.10         14.1312
   722.24         14.1709
   722.38         14.1790
   722.52         14.1601
   722.66         14.1213
   722.80         14.0692
   722.94         14.0084
   723.08         13.9418
   723.22         13.8712
   723.36         13.7974
   723.50         13.7226
   723.64         13.6514
   723.78         13.5898
   723.92         13.5423
   724.06         13.5095
   724.20         13.4889
   724.34         13.4791
   724.48         13.4805
   724.62         13.4928
   724.76         13.5162
   724.90         13.5503
   725.04         13.5948
   725.18         13.6477
   725.32         13.7045
   725.46         13.7602
   725.60         13.8123
   725.74         13.8596
   725.88         13.9012
   726.02         13.9365
   726.16         13.9642
   726.30         13.9817
   726.44         13.9862
   726.58         13.9753
   726.72         13.9498
   726.86         13.9159
   727.00         13.8816
   727.14         13.8517
   727.28         13.8288
   727.42         13.8150
   727.56         13.8097
   727.70         13.8096
   727.84         13.8100
   727.98         13.8063
   728.12         13.7958
   728.26         13.7774
   728.40         13.7514
   728.54         13.7199
   728.68         13.6854
   728.82         13.6520
   728.96         13.6245
   729.10         13.6068
   729.24         13.6010
   729.38         13.6086
   729.52         13.6287
   729.66         13.6582
   729.80         13.6921
   729.94         13.7265
   730.08         13.7581
   730.22         13.7841
   730.36         13.8028
   730.50         13.8140
   730.64         13.8196
   730.78         13.8218
   730.92         13.8238
   731.06         13.8270
   731.20         13.8296
   731.34         13.8278
   731.48         13.8177
   731.62         13.7974
   731.76         13.7674
   731.90         13.7307
   732.04         13.6913
   732.18         13.6521
   732.32         13.6165
   732.46         13.5896
   732.60         13.5775
   732.74         13.5838
   732.88         13.6084
   733.02         13.6486
   733.16         13.7004
   733.30         13.7602
   733.44         13.8251
   733.58         13.8933
   733.72         13.9615
   733.86         14.0252
   734.00         14.0793
   734.14         14.1205
   734.28         14.1474
   734.42         14.1578
   734.56         14.1488
   734.70         14.1188
   734.84         14.0694
   734.98         14.0051
   735.12         13.9312
   735.26         13.8527
   735.40         13.7742
   735.54         13.7005
   735.68         13.6360
   735.82         13.5852
   735.96         13.5520
   736.10         13.5382
   736.24         13.5429
   736.38         13.5618
   736.52         13.5890
   736.66         13.6200
   736.80         13.6525
   736.94         13.6841
   737.08         13.7121
   737.22         13.7341
   737.36         13.7482
   737.50         13.7515
   737.64         13.7403
   737.78         13.7136
   737.92         13.6728
   738.06         13.6204
   738.20         13.5586
   738.34         13.4908
   738.48         13.4225
   738.62         13.3590
   738.76         13.3042
   738.90         13.2597
   739.04         13.2256
   739.18         13.2024
   739.32         13.1896
   739.46         13.1846
   739.60         13.1832
   739.74         13.1813
   739.88         13.1752
   740.02         13.1626
   740.16         13.1435
   740.30         13.1212
   740.44         13.1008
   740.58         13.0875
   740.72         13.0849
   740.86         13.0952
   741.00         13.1190
   741.14         13.1551
   741.28         13.1995
   741.42         13.2465
   741.56         13.2915
   741.70         13.3318
   741.84         13.3653
   741.98         13.3894
   742.12         13.4021
   742.26         13.4034
   742.40         13.3956
   742.54         13.3828
   742.68         13.3699
   742.82         13.3620
   742.96         13.3620
   743.10         13.3699
   743.24         13.3828
   743.38         13.3956
   743.52         13.4034
   743.66         13.4021
   743.80         13.3894
   743.94         13.3653
   744.08         13.3318
   744.22         13.2915
