# File BD-003227
# Wavelength [nm]    Normalized Amplitude
   349.70         3.1432
   349.84         3.1701
   349.98         3.1837
   350.12         3.1837
   350.26         3.1712
   350.40         3.1489
   350.54         3.1212
   350.68         3.0938
   350.82         3.0724
   350.96         3.0608
   351.10         3.0576
   351.24         3.0608
   351.38         3.0724
   351.52         3.0938
   351.66         3.1212
   351.80         3.1489
   351.94         3.1712
   352.08         3.1837
   352.22         3.1837
   352.36         3.1701
   352.50         3.1432
   352.64         3.1058
   352.78         3.0627
   352.92         3.0195
   353.06         2.9815
   353.20         2.9542
   353.34         2.9434
   353.48         2.9539
   353.62         2.9858
   353.76         3.0345
   353.90         3.0957
   354.04         3.1662
   354.18         3.2402
   354.32         3.3112
   354.46         3.3738
   354.60         3.4233
   354.74         3.4563
   354.88         3.4723
   355.02         3.4712
   355.16         3.4529
   355.30         3.4193
   355.44         3.3740
   355.58         3.3205
   355.72         3.2631
   355.86         3.2077
   356.00         3.1597
   356.14         3.1213
   356.28         3.0910
   356.42         3.0679
   356.56         3.0537
   356.70         3.0496
   356.84         3.0547
   356.98         3.0672
   357.12         3.0854
   357.26         3.1081
   357.40         3.1345
   357.54         3.1632
   357.68         3.1925
   357.82         3.2213
   357.96         3.2499
   358.10         3.2784
   358.24         3.3047
   358.38         3.3251
   358.52         3.3361
   358.66         3.3365
   358.80         3.3271
   358.94         3.3101
   359.08         3.2901
   359.22         3.2724
   359.36         3.2614
   359.50         3.2608
   359.64         3.2722
   359.78         3.2929
   359.92         3.3177
   360.06         3.3407
   360.20         3.3577
   360.34         3.3647
   360.48         3.3582
   360.62         3.3360
   360.76         3.2981
   360.90         3.2461
   361.04         3.1851
   361.18         3.1237
   361.32         3.0714
   361.46         3.0360
   361.60         3.0222
   361.74         3.0305
   361.88         3.0576
   362.02         3.0980
   362.16         3.1456
   362.30         3.1935
   362.44         3.2345
   362.58         3.2641
   362.72         3.2820
   362.86         3.2889
   363.00         3.2857
   363.14         3.2744
   363.28         3.2580
   363.42         3.2399
   363.56         3.2245
   363.70         3.2156
   363.84         3.2158
   363.98         3.2261
   364.12         3.2462
   364.26         3.2744
   364.40         3.3082
   364.54         3.3452
   364.68         3.3847
   364.82         3.4262
   364.96         3.4676
   365.10         3.5059
   365.24         3.5395
   365.38         3.5677
   365.52         3.5892
   365.66         3.6035
   365.80         3.6102
   365.94         3.6094
   366.08         3.6031
   366.22         3.5956
   366.36         3.5911
   366.50         3.5931
   366.64         3.6038
   366.78         3.6246
   366.92         3.6559
   367.06         3.6961
   367.20         3.7423
   367.34         3.7911
   367.48         3.8381
   367.62         3.8807
   367.76         3.9194
   367.90         3.9558
   368.04         3.9917
   368.18         4.0316
   368.32         4.0798
   368.46         4.1375
   368.60         4.2027
   368.74         4.2740
   368.88         4.3507
   369.02         4.4316
   369.16         4.5136
   369.30         4.5917
   369.44         4.6618
   369.58         4.7212
   369.72         4.7680
   369.86         4.8002
   370.00         4.8161
   370.14         4.8176
   370.28         4.8120
   370.42         4.8089
   370.56         4.8181
   370.70         4.8487
   370.84         4.9053
   370.98         4.9836
   371.12         5.0736
   371.26         5.1683
   371.40         5.2662
   371.54         5.3672
   371.68         5.4691
   371.82         5.5685
   371.96         5.6606
   372.10         5.7385
   372.24         5.7934
   372.38         5.8172
   372.52         5.8076
   372.66         5.7713
   372.80         5.7221
   372.94         5.6750
   373.08         5.6408
   373.22         5.6251
   373.36         5.6282
   373.50         5.6450
   373.64         5.6668
   373.78         5.6861
   373.92         5.6999
   374.06         5.7082
   374.20         5.7115
   374.34         5.7125
   374.48         5.7147
   374.62         5.7208
   374.76         5.7335
   374.90         5.7597
   375.04         5.8096
   375.18         5.8921
   375.32         6.0110
   375.46         6.1597
   375.60         6.3229
   375.74         6.4811
   375.88         6.6144
   376.02         6.7059
   376.16         6.7466
   376.30         6.7385
   376.44         6.6957
   376.58         6.6392
   376.72         6.5923
   376.86         6.5761
   377.00         6.6074
   377.14         6.6960
   377.28         6.8431
   377.42         7.0424
   377.56         7.2817
   377.70         7.5431
   377.84         7.8056
   377.98         8.0469
   378.12         8.2441
   378.26         8.3777
   378.40         8.4337
   378.54         8.4046
   378.68         8.2921
   378.82         8.1078
   378.96         7.8727
   379.10         7.6148
   379.24         7.3635
   379.38         7.1458
   379.52         6.9833
   379.66         6.8919
   379.80         6.8826
   379.94         6.9591
   380.08         7.1132
   380.22         7.3259
   380.36         7.5759
   380.50         7.8435
   380.64         8.1101
   380.78         8.3573
   380.92         8.5700
   381.06         8.7390
   381.20         8.8626
   381.34         8.9444
   381.48         8.9895
   381.62         9.0018
   381.76         8.9825
   381.90         8.9299
   382.04         8.8405
   382.18         8.7099
   382.32         8.5340
   382.46         8.3107
   382.60         8.0415
   382.74         7.7349
   382.88         7.4113
   383.02         7.1029
   383.16         6.8426
   383.30         6.6554
   383.44         6.5570
   383.58         6.5559
   383.72         6.6518
   383.86         6.8351
   384.00         7.0895
   384.14         7.3949
   384.28         7.7295
   384.42         8.0714
   384.56         8.3984
   384.70         8.6911
   384.84         8.9385
   384.98         9.1399
   385.12         9.3022
   385.26         9.4361
   385.40         9.5527
   385.54         9.6611
   385.68         9.7672
   385.82         9.8727
   385.96         9.9756
   386.10         10.0708
   386.24         10.1516
   386.38         10.2115
   386.52         10.2454
   386.66         10.2496
   386.80         10.2208
   386.94         10.1558
   387.08         10.0525
   387.22         9.9103
   387.36         9.7304
   387.50         9.5134
   387.64         9.2588
   387.78         8.9685
   387.92         8.6513
   388.06         8.3246
   388.20         8.0092
   388.34         7.7258
   388.48         7.4913
   388.62         7.3173
   388.76         7.2131
   388.90         7.1859
   389.04         7.2375
   389.18         7.3615
   389.32         7.5437
   389.46         7.7651
   389.60         8.0072
   389.74         8.2547
   389.88         8.4948
   390.02         8.7169
   390.16         8.9139
   390.30         9.0827
   390.44         9.2261
   390.58         9.3485
   390.72         9.4530
   390.86         9.5389
   391.00         9.6026
   391.14         9.6407
   391.28         9.6525
   391.42         9.6363
   391.56         9.5865
   391.70         9.4942
   391.84         9.3469
   391.98         9.1313
   392.12         8.8378
   392.26         8.4645
   392.40         8.0188
   392.54         7.5187
   392.68         6.9933
   392.82         6.4797
   392.96         6.0192
   393.10         5.6512
   393.24         5.4079
   393.38         5.3098
   393.52         5.3635
   393.66         5.5608
   393.80         5.8812
   393.94         6.2940
   394.08         6.7610
   394.22         7.2421
   394.36         7.7007
   394.50         8.1062
   394.64         8.4393
   394.78         8.6932
   394.92         8.8704
   395.06         8.9762
   395.20         9.0135
   395.34         8.9791
   395.48         8.8631
   395.62         8.6541
   395.76         8.3465
   395.90         7.9469
   396.04         7.4766
   396.18         6.9684
   396.32         6.4633
   396.46         6.0058
   396.60         5.6387
   396.74         5.3983
   396.88         5.3088
   397.02         5.3790
   397.16         5.6023
   397.30         5.9589
   397.44         6.4172
   397.58         6.9378
   397.72         7.4793
   397.86         8.0044
   398.00         8.4837
   398.14         8.8990
   398.28         9.2443
   398.42         9.5222
   398.56         9.7417
   398.70         9.9133
   398.84         10.0470
   398.98         10.1515
   399.12         10.2329
   399.26         10.2934
   399.40         10.3328
   399.54         10.3526
   399.68         10.3572
   399.82         10.3526
   399.96         10.3442
   400.10         10.3364
   400.24         10.3340
   400.38         10.3420
   400.52         10.3640
   400.66         10.4008
   400.80         10.4506
   400.94         10.5084
   401.08         10.5684
   401.22         10.6256
   401.36         10.6769
   401.50         10.7185
   401.64         10.7460
   401.78         10.7554
   401.92         10.7447
   402.06         10.7154
   402.20         10.6725
   402.34         10.6215
   402.48         10.5671
   402.62         10.5159
   402.76         10.4752
   402.90         10.4502
   403.04         10.4415
   403.18         10.4451
   403.32         10.4550
   403.46         10.4665
   403.60         10.4765
   403.74         10.4833
   403.88         10.4866
   404.02         10.4861
   404.16         10.4802
   404.30         10.4677
   404.44         10.4477
   404.58         10.4217
   404.72         10.3948
   404.86         10.3723
   405.00         10.3575
   405.14         10.3501
   405.28         10.3476
   405.42         10.3468
   405.56         10.3433
   405.70         10.3343
   405.84         10.3201
   405.98         10.3035
   406.12         10.2875
   406.26         10.2713
   406.40         10.2502
   406.54         10.2194
   406.68         10.1769
   406.82         10.1253
   406.96         10.0703
   407.10         10.0180
   407.24         9.9736
   407.38         9.9399
   407.52         9.9174
   407.66         9.9071
   407.80         9.9106
   407.94         9.9269
   408.08         9.9512
   408.22         9.9756
   408.36         9.9907
   408.50         9.9859
   408.64         9.9487
   408.78         9.8656
   408.92         9.7240
   409.06         9.5195
   409.20         9.2599
   409.34         8.9617
   409.48         8.6471
   409.62         8.3405
   409.76         8.0665
   409.90         7.8478
   410.04         7.7035
   410.18         7.6480
   410.32         7.6875
   410.46         7.8170
   410.60         8.0208
   410.74         8.2785
   410.88         8.5675
   411.02         8.8633
   411.16         9.1420
   411.30         9.3843
   411.44         9.5769
   411.58         9.7142
   411.72         9.7992
   411.86         9.8395
   412.00         9.8439
   412.14         9.8218
   412.28         9.7839
   412.42         9.7411
   412.56         9.7027
   412.70         9.6773
   412.84         9.6736
   412.98         9.6954
   413.12         9.7401
   413.26         9.8030
   413.40         9.8790
   413.54         9.9623
   413.68         10.0461
   413.82         10.1243
   413.96         10.1919
   414.10         10.2441
   414.24         10.2773
   414.38         10.2906
   414.52         10.2840
   414.66         10.2593
   414.80         10.2204
   414.94         10.1730
   415.08         10.1226
   415.22         10.0741
   415.36         10.0327
   415.50         10.0023
   415.64         9.9831
   415.78         9.9732
   415.92         9.9685
   416.06         9.9630
   416.20         9.9506
   416.34         9.9267
   416.48         9.8885
   416.62         9.8353
   416.76         9.7682
   416.90         9.6903
   417.04         9.6069
   417.18         9.5237
   417.32         9.4480
   417.46         9.3873
   417.60         9.3461
   417.74         9.3260
   417.88         9.3280
   418.02         9.3521
   418.16         9.3963
   418.30         9.4556
   418.44         9.5225
   418.58         9.5898
   418.72         9.6525
   418.86         9.7081
   419.00         9.7543
   419.14         9.7892
   419.28         9.8113
   419.42         9.8194
   419.56         9.8141
   419.70         9.7982
   419.84         9.7764
   419.98         9.7546
   420.12         9.7378
   420.26         9.7286
   420.40         9.7284
   420.54         9.7376
   420.68         9.7540
   420.82         9.7740
   420.96         9.7938
   421.10         9.8096
   421.24         9.8177
   421.38         9.8155
   421.52         9.8011
   421.66         9.7745
   421.80         9.7386
   421.94         9.6974
   422.08         9.6537
   422.22         9.6096
   422.36         9.5669
   422.50         9.5275
   422.64         9.4939
   422.78         9.4682
   422.92         9.4524
   423.06         9.4493
   423.20         9.4623
   423.34         9.4930
   423.48         9.5378
   423.62         9.5892
   423.76         9.6381
   423.90         9.6772
   424.04         9.7030
   424.18         9.7155
   424.32         9.7173
   424.46         9.7106
   424.60         9.6961
   424.74         9.6745
   424.88         9.6485
   425.02         9.6233
   425.16         9.6046
   425.30         9.5976
   425.44         9.6053
   425.58         9.6282
   425.72         9.6633
   425.86         9.7043
   426.00         9.7413
   426.14         9.7654
   426.28         9.7719
   426.42         9.7606
   426.56         9.7348
   426.70         9.7003
   426.84         9.6623
   426.98         9.6257
   427.12         9.5945
   427.26         9.5726
   427.40         9.5632
   427.54         9.5669
   427.68         9.5814
   427.82         9.6015
   427.96         9.6204
   428.10         9.6306
   428.24         9.6251
   428.38         9.5991
   428.52         9.5514
   428.66         9.4824
   428.80         9.3946
   428.94         9.2914
   429.08         9.1778
   429.22         9.0601
   429.36         8.9455
   429.50         8.8405
   429.64         8.7500
   429.78         8.6771
   429.92         8.6241
   430.06         8.5918
   430.20         8.5781
   430.34         8.5806
   430.48         8.5985
   430.62         8.6320
   430.76         8.6808
   430.90         8.7417
   431.04         8.8095
   431.18         8.8789
   431.32         8.9451
   431.46         9.0057
   431.60         9.0603
   431.74         9.1111
   431.88         9.1603
   432.02         9.2061
   432.16         9.2438
   432.30         9.2683
   432.44         9.2728
   432.58         9.2480
   432.72         9.1831
   432.86         9.0684
   433.00         8.9006
   433.14         8.6844
   433.28         8.4321
   433.42         8.1614
   433.56         7.8941
   433.70         7.6538
   433.84         7.4620
   433.98         7.3342
   434.12         7.2781
   434.26         7.2972
   434.40         7.3912
   434.54         7.5528
   434.68         7.7676
   434.82         8.0174
   434.96         8.2827
   435.10         8.5449
   435.24         8.7892
   435.38         9.0072
   435.52         9.1963
   435.66         9.3572
   435.80         9.4922
   435.94         9.6037
   436.08         9.6935
   436.22         9.7613
   436.36         9.8052
   436.50         9.8245
   436.64         9.8231
   436.78         9.8086
   436.92         9.7909
   437.06         9.7749
   437.20         9.7585
   437.34         9.7381
   437.48         9.7124
   437.62         9.6826
   437.76         9.6502
   437.90         9.6160
   438.04         9.5803
   438.18         9.5432
   438.32         9.5042
   438.46         9.4635
   438.60         9.4230
   438.74         9.3846
   438.88         9.3486
   439.02         9.3163
   439.16         9.2903
   439.30         9.2717
   439.44         9.2581
   439.58         9.2456
   439.72         9.2317
   439.86         9.2175
   440.00         9.2080
   440.14         9.2078
   440.28         9.2182
   440.42         9.2349
   440.56         9.2510
   440.70         9.2610
   440.84         9.2623
   440.98         9.2550
   441.12         9.2418
   441.26         9.2269
   441.40         9.2144
   441.54         9.2070
   441.68         9.2072
   441.82         9.2168
   441.96         9.2357
   442.10         9.2614
   442.24         9.2901
   442.38         9.3197
   442.52         9.3497
   442.66         9.3801
   442.80         9.4100
   442.94         9.4369
   443.08         9.4575
   443.22         9.4706
   443.36         9.4775
   443.50         9.4799
   443.64         9.4773
   443.78         9.4689
   443.92         9.4550
   444.06         9.4368
   444.20         9.4159
   444.34         9.3945
   444.48         9.3753
   444.62         9.3598
   444.76         9.3477
   444.90         9.3404
   445.04         9.3404
   445.18         9.3478
   445.32         9.3592
   445.46         9.3680
   445.60         9.3677
   445.74         9.3543
   445.88         9.3278
   446.02         9.2935
   446.16         9.2584
   446.30         9.2283
   446.44         9.2081
   446.58         9.2011
   446.72         9.2084
   446.86         9.2277
   447.00         9.2554
   447.14         9.2893
   447.28         9.3279
   447.42         9.3701
   447.56         9.4134
   447.70         9.4530
   447.84         9.4845
   447.98         9.5053
   448.12         9.5153
   448.26         9.5169
   448.40         9.5153
   448.54         9.5170
   448.68         9.5263
   448.82         9.5435
   448.96         9.5677
   449.10         9.5989
   449.24         9.6364
   449.38         9.6776
   449.52         9.7195
   449.66         9.7614
   449.80         9.8036
   449.94         9.8451
   450.08         9.8821
   450.22         9.9095
   450.36         9.9251
   450.50         9.9300
   450.64         9.9254
   450.78         9.9114
   450.92         9.8874
   451.06         9.8537
   451.20         9.8118
   451.34         9.7633
   451.48         9.7104
   451.62         9.6563
   451.76         9.6035
   451.90         9.5523
   452.04         9.5024
   452.18         9.4542
   452.32         9.4100
   452.46         9.3731
   452.60         9.3470
   452.74         9.3334
   452.88         9.3314
   453.02         9.3390
   453.16         9.3542
   453.30         9.3739
   453.44         9.3945
   453.58         9.4119
   453.72         9.4210
   453.86         9.4178
   454.00         9.3994
   454.14         9.3641
   454.28         9.3132
   454.42         9.2514
   454.56         9.1852
   454.70         9.1224
   454.84         9.0731
   454.98         9.0460
   455.12         9.0437
   455.26         9.0637
   455.40         9.1014
   455.54         9.1517
   455.68         9.2098
   455.82         9.2705
   455.96         9.3281
   456.10         9.3784
   456.24         9.4197
   456.38         9.4509
   456.52         9.4720
   456.66         9.4826
   456.80         9.4819
   456.94         9.4700
   457.08         9.4482
   457.22         9.4168
   457.36         9.3770
   457.50         9.3303
   457.64         9.2772
   457.78         9.2194
   457.92         9.1631
   458.06         9.1159
   458.20         9.0830
   458.34         9.0663
   458.48         9.0659
   458.62         9.0818
   458.76         9.1128
   458.90         9.1553
   459.04         9.2045
   459.18         9.2556
   459.32         9.3045
   459.46         9.3490
   459.60         9.3892
   459.74         9.4263
   459.88         9.4604
   460.02         9.4910
   460.16         9.5176
   460.30         9.5399
   460.44         9.5578
   460.58         9.5697
   460.72         9.5732
   460.86         9.5668
   461.00         9.5519
   461.14         9.5328
   461.28         9.5136
   461.42         9.4976
   461.56         9.4857
   461.70         9.4768
   461.84         9.4704
   461.98         9.4659
   462.12         9.4631
   462.26         9.4616
   462.40         9.4597
   462.54         9.4544
   462.68         9.4448
   462.82         9.4326
   462.96         9.4201
   463.10         9.4094
   463.24         9.4030
   463.38         9.4033
   463.52         9.4119
   463.66         9.4283
   463.80         9.4497
   463.94         9.4726
   464.08         9.4940
   464.22         9.5108
   464.36         9.5232
   464.50         9.5329
   464.64         9.5406
   464.78         9.5469
   464.92         9.5540
   465.06         9.5630
   465.20         9.5734
   465.34         9.5840
   465.48         9.5926
   465.62         9.5970
   465.76         9.5961
   465.90         9.5891
   466.04         9.5776
   466.18         9.5654
   466.32         9.5566
   466.46         9.5545
   466.60         9.5610
   466.74         9.5761
   466.88         9.5990
   467.02         9.6312
   467.16         9.6733
   467.30         9.7237
   467.44         9.7795
   467.58         9.8363
   467.72         9.8892
   467.86         9.9336
   468.00         9.9672
   468.14         9.9896
   468.28         10.0016
   468.42         10.0045
   468.56         9.9998
   468.70         9.9888
   468.84         9.9712
   468.98         9.9449
   469.12         9.9099
   469.26         9.8683
   469.40         9.8229
   469.54         9.7759
   469.68         9.7293
   469.82         9.6840
   469.96         9.6404
   470.10         9.5991
   470.24         9.5614
   470.38         9.5285
   470.52         9.5008
   470.66         9.4765
   470.80         9.4545
   470.94         9.4357
   471.08         9.4221
   471.22         9.4151
   471.36         9.4150
   471.50         9.4202
   471.64         9.4289
   471.78         9.4399
   471.92         9.4507
   472.06         9.4578
   472.20         9.4580
   472.34         9.4500
   472.48         9.4336
   472.62         9.4096
   472.76         9.3806
   472.90         9.3497
   473.04         9.3202
   473.18         9.2953
   473.32         9.2776
   473.46         9.2699
   473.60         9.2745
   473.74         9.2905
   473.88         9.3161
   474.02         9.3478
   474.16         9.3803
   474.30         9.4086
   474.44         9.4294
   474.58         9.4416
   474.72         9.4458
   474.86         9.4422
   475.00         9.4297
   475.14         9.4068
   475.28         9.3731
   475.42         9.3292
   475.56         9.2767
   475.70         9.2187
   475.84         9.1602
   475.98         9.1067
   476.12         9.0632
   476.26         9.0332
   476.40         9.0182
   476.54         9.0195
   476.68         9.0367
   476.82         9.0678
   476.96         9.1105
   477.10         9.1619
   477.24         9.2171
   477.38         9.2691
   477.52         9.3095
   477.66         9.3328
   477.80         9.3397
   477.94         9.3343
   478.08         9.3209
   478.22         9.3038
   478.36         9.2869
   478.50         9.2729
   478.64         9.2639
   478.78         9.2598
   478.92         9.2611
   479.06         9.2692
   479.20         9.2833
   479.34         9.3000
   479.48         9.3147
   479.62         9.3235
   479.76         9.3221
   479.90         9.3078
   480.04         9.2803
   480.18         9.2422
   480.32         9.1981
   480.46         9.1515
   480.60         9.1051
   480.74         9.0622
   480.88         9.0265
   481.02         9.0007
   481.16         8.9853
   481.30         8.9793
   481.44         8.9816
   481.58         8.9915
   481.72         9.0071
   481.86         9.0245
   482.00         9.0413
   482.14         9.0565
   482.28         9.0698
   482.42         9.0803
   482.56         9.0880
   482.70         9.0938
   482.84         9.0989
   482.98         9.1042
   483.12         9.1105
   483.26         9.1177
   483.40         9.1239
   483.54         9.1251
   483.68         9.1171
   483.82         9.0973
   483.96         9.0645
   484.10         9.0170
   484.24         8.9522
   484.38         8.8671
   484.52         8.7582
   484.66         8.6220
   484.80         8.4551
   484.94         8.2573
   485.08         8.0342
   485.22         7.7972
   485.36         7.5614
   485.50         7.3425
   485.64         7.1546
   485.78         7.0089
   485.92         6.9128
   486.06         6.8708
   486.20         6.8845
   486.34         6.9521
   486.48         7.0667
   486.62         7.2163
   486.76         7.3866
   486.90         7.5635
   487.04         7.7343
   487.18         7.8881
   487.32         8.0183
   487.46         8.1229
   487.60         8.2033
   487.74         8.2628
   487.88         8.3050
   488.02         8.3339
   488.16         8.3545
   488.30         8.3722
   488.44         8.3916
   488.58         8.4164
   488.72         8.4496
   488.86         8.4928
   489.00         8.5457
   489.14         8.6067
   489.28         8.6738
   489.42         8.7438
   489.56         8.8119
   489.70         8.8732
   489.84         8.9232
   489.98         8.9582
   490.12         8.9762
   490.26         8.9781
   490.40         8.9676
   490.54         8.9488
   490.68         8.9254
   490.82         8.8990
   490.96         8.8684
   491.10         8.8311
   491.24         8.7863
   491.38         8.7365
   491.52         8.6870
   491.66         8.6436
   491.80         8.6111
   491.94         8.5907
   492.08         8.5815
   492.22         8.5825
   492.36         8.5937
   492.50         8.6142
   492.64         8.6418
   492.78         8.6737
   492.92         8.7070
   493.06         8.7393
   493.20         8.7687
   493.34         8.7936
   493.48         8.8122
   493.62         8.8236
   493.76         8.8297
   493.90         8.8357
   494.04         8.8462
   494.18         8.8615
   494.32         8.8780
   494.46         8.8899
   494.60         8.8926
   494.74         8.8847
   494.88         8.8674
   495.02         8.8434
   495.16         8.8162
   495.30         8.7900
   495.44         8.7696
   495.58         8.7593
   495.72         8.7611
   495.86         8.7746
   496.00         8.7975
   496.14         8.8279
   496.28         8.8639
   496.42         8.9037
   496.56         8.9438
   496.70         8.9780
   496.84         9.0001
   496.98         9.0053
   497.12         8.9909
   497.26         8.9572
   497.40         8.9072
   497.54         8.8467
   497.68         8.7834
   497.82         8.7246
   497.96         8.6745
   498.10         8.6352
   498.24         8.6087
   498.38         8.5966
   498.52         8.5999
   498.66         8.6177
   498.80         8.6467
   498.94         8.6825
   499.08         8.7194
   499.22         8.7499
   499.36         8.7666
   499.50         8.7642
   499.64         8.7402
   499.78         8.6969
   499.92         8.6396
   500.06         8.5740
   500.20         8.5042
   500.34         8.4330
   500.48         8.3631
   500.62         8.2968
   500.76         8.2374
   500.90         8.1887
   501.04         8.1528
   501.18         8.1306
   501.32         8.1231
   501.46         8.1310
   501.60         8.1536
   501.74         8.1877
   501.88         8.2294
   502.02         8.2769
   502.16         8.3307
   502.30         8.3912
   502.44         8.4556
   502.58         8.5187
   502.72         8.5745
   502.86         8.6176
   503.00         8.6443
   503.14         8.6528
   503.28         8.6433
   503.42         8.6191
   503.56         8.5845
   503.70         8.5438
   503.84         8.5014
   503.98         8.4613
   504.12         8.4264
   504.26         8.3987
   504.40         8.3794
   504.54         8.3701
   504.68         8.3722
   504.82         8.3854
   504.96         8.4052
   505.10         8.4263
   505.24         8.4451
   505.38         8.4593
   505.52         8.4676
   505.66         8.4714
   505.80         8.4734
   505.94         8.4760
   506.08         8.4798
   506.22         8.4840
   506.36         8.4877
   506.50         8.4910
   506.64         8.4938
   506.78         8.4946
   506.92         8.4905
   507.06         8.4796
   507.20         8.4620
   507.34         8.4389
   507.48         8.4118
   507.62         8.3834
   507.76         8.3574
   507.90         8.3378
   508.04         8.3277
   508.18         8.3290
   508.32         8.3418
   508.46         8.3633
   508.60         8.3888
   508.74         8.4132
   508.88         8.4332
   509.02         8.4474
   509.16         8.4559
   509.30         8.4589
   509.44         8.4564
   509.58         8.4491
   509.72         8.4389
   509.86         8.4294
   510.00         8.4235
   510.14         8.4229
   510.28         8.4278
   510.42         8.4380
   510.56         8.4525
   510.70         8.4702
   510.84         8.4887
   510.98         8.5046
   511.12         8.5151
   511.26         8.5193
   511.40         8.5175
   511.54         8.5104
   511.68         8.4978
   511.82         8.4785
   511.96         8.4508
   512.10         8.4140
   512.24         8.3692
   512.38         8.3198
   512.52         8.2699
   512.66         8.2228
   512.80         8.1806
   512.94         8.1451
   513.08         8.1174
   513.22         8.0965
   513.36         8.0810
   513.50         8.0698
   513.64         8.0621
   513.78         8.0577
   513.92         8.0566
   514.06         8.0576
   514.20         8.0584
   514.34         8.0569
   514.48         8.0528
   514.62         8.0471
   514.76         8.0404
   514.90         8.0337
   515.04         8.0277
   515.18         8.0229
   515.32         8.0181
   515.46         8.0099
   515.60         7.9932
   515.74         7.9639
   515.88         7.9204
   516.02         7.8649
   516.16         7.8026
   516.30         7.7402
   516.44         7.6854
   516.58         7.6452
   516.72         7.6254
   516.86         7.6297
   517.00         7.6588
   517.14         7.7095
   517.28         7.7748
   517.42         7.8456
   517.56         7.9122
   517.70         7.9650
   517.84         7.9954
   517.98         7.9980
   518.12         7.9718
   518.26         7.9210
   518.40         7.8540
   518.54         7.7805
   518.68         7.7099
   518.82         7.6503
   518.96         7.6073
   519.10         7.5831
   519.24         7.5767
   519.38         7.5849
   519.52         7.6036
   519.66         7.6294
   519.80         7.6599
   519.94         7.6938
   520.08         7.7303
   520.22         7.7681
   520.36         7.8059
   520.50         7.8430
   520.64         7.8799
   520.78         7.9172
   520.92         7.9554
   521.06         7.9936
   521.20         8.0302
   521.34         8.0617
   521.48         8.0844
   521.62         8.0952
   521.76         8.0920
   521.90         8.0736
   522.04         8.0403
   522.18         7.9940
   522.32         7.9372
   522.46         7.8747
   522.60         7.8123
   522.74         7.7553
   522.88         7.7089
   523.02         7.6772
   523.16         7.6641
   523.30         7.6711
   523.44         7.6965
   523.58         7.7364
   523.72         7.7850
   523.86         7.8367
   524.00         7.8871
   524.14         7.9332
   524.28         7.9725
   524.42         8.0023
   524.56         8.0214
   524.70         8.0303
   524.84         8.0310
   524.98         8.0255
   525.12         8.0150
   525.26         7.9986
   525.40         7.9751
   525.54         7.9437
   525.68         7.9043
   525.82         7.8569
   525.96         7.8034
   526.10         7.7469
   526.24         7.6901
   526.38         7.6355
   526.52         7.5855
   526.66         7.5427
   526.80         7.5095
   526.94         7.4875
   527.08         7.4779
   527.22         7.4812
   527.36         7.4961
   527.50         7.5201
   527.64         7.5509
   527.78         7.5868
   527.92         7.6268
   528.06         7.6697
   528.20         7.7140
   528.34         7.7585
   528.48         7.8023
   528.62         7.8449
   528.76         7.8850
   528.90         7.9211
   529.04         7.9518
   529.18         7.9768
   529.32         7.9964
   529.46         8.0111
   529.60         8.0213
   529.74         8.0285
   529.88         8.0345
   530.02         8.0407
   530.16         8.0472
   530.30         8.0520
   530.44         8.0524
   530.58         8.0468
   530.72         8.0349
   530.86         8.0176
   531.00         7.9961
   531.14         7.9717
   531.28         7.9451
   531.42         7.9166
   531.56         7.8856
   531.70         7.8522
   531.84         7.8183
   531.98         7.7865
   532.12         7.7580
   532.26         7.7328
   532.40         7.7097
   532.54         7.6880
   532.68         7.6678
   532.82         7.6498
   532.96         7.6358
   533.10         7.6286
   533.24         7.6313
   533.38         7.6454
   533.52         7.6702
   533.66         7.7041
   533.80         7.7442
   533.94         7.7873
   534.08         7.8298
   534.22         7.8695
   534.36         7.9054
   534.50         7.9378
   534.64         7.9661
   534.78         7.9888
   534.92         8.0047
   535.06         8.0139
   535.20         8.0174
   535.34         8.0155
   535.48         8.0075
   535.62         7.9925
   535.76         7.9706
   535.90         7.9424
   536.04         7.9090
   536.18         7.8720
   536.32         7.8334
   536.46         7.7953
   536.60         7.7604
   536.74         7.7320
   536.88         7.7134
   537.02         7.7063
   537.16         7.7110
   537.30         7.7261
   537.44         7.7494
   537.58         7.7789
   537.72         7.8128
   537.86         7.8482
   538.00         7.8819
   538.14         7.9105
   538.28         7.9317
   538.42         7.9431
   538.56         7.9427
   538.70         7.9300
   538.84         7.9051
   538.98         7.8693
   539.12         7.8241
   539.26         7.7724
   539.40         7.7184
   539.54         7.6667
   539.68         7.6209
   539.82         7.5834
   539.96         7.5552
   540.10         7.5369
   540.24         7.5281
   540.38         7.5265
   540.52         7.5293
   540.66         7.5335
   540.80         7.5370
   540.94         7.5378
   541.08         7.5344
   541.22         7.5268
   541.36         7.5167
   541.50         7.5056
   541.64         7.4953
   541.78         7.4878
   541.92         7.4851
   542.06         7.4872
   542.20         7.4927
   542.34         7.5002
   542.48         7.5098
   542.62         7.5226
   542.76         7.5398
   542.90         7.5623
   543.04         7.5900
   543.18         7.6222
   543.32         7.6562
   543.46         7.6886
   543.60         7.7155
   543.74         7.7344
   543.88         7.7440
   544.02         7.7439
   544.16         7.7334
   544.30         7.7115
   544.44         7.6783
   544.58         7.6353
   544.72         7.5863
   544.86         7.5367
   545.00         7.4928
   545.14         7.4596
   545.28         7.4400
   545.42         7.4350
   545.56         7.4428
   545.70         7.4601
   545.84         7.4833
   545.98         7.5088
   546.12         7.5342
   546.26         7.5575
   546.40         7.5770
   546.54         7.5912
   546.68         7.5987
   546.82         7.5985
   546.96         7.5906
   547.10         7.5773
   547.24         7.5617
   547.38         7.5468
   547.52         7.5341
   547.66         7.5240
   547.80         7.5159
   547.94         7.5089
   548.08         7.5015
   548.22         7.4933
   548.36         7.4856
   548.50         7.4804
   548.64         7.4789
   548.78         7.4812
   548.92         7.4872
   549.06         7.4981
   549.20         7.5154
   549.34         7.5390
   549.48         7.5667
   549.62         7.5949
   549.76         7.6202
   549.90         7.6390
   550.04         7.6480
   550.18         7.6448
   550.32         7.6289
   550.46         7.6011
   550.60         7.5642
   550.74         7.5224
   550.88         7.4805
   551.02         7.4424
   551.16         7.4107
   551.30         7.3858
   551.44         7.3668
   551.58         7.3532
   551.72         7.3435
   551.86         7.3356
   552.00         7.3273
   552.14         7.3178
   552.28         7.3074
   552.42         7.2976
   552.56         7.2909
   552.70         7.2894
   552.84         7.2940
   552.98         7.3052
   553.12         7.3230
   553.26         7.3467
   553.40         7.3753
   553.54         7.4071
   553.68         7.4399
   553.82         7.4718
   553.96         7.5011
   554.10         7.5263
   554.24         7.5464
   554.38         7.5610
   554.52         7.5704
   554.66         7.5748
   554.80         7.5745
   554.94         7.5702
   555.08         7.5633
   555.22         7.5551
   555.36         7.5469
   555.50         7.5398
   555.64         7.5342
   555.78         7.5301
   555.92         7.5266
   556.06         7.5225
   556.20         7.5169
   556.34         7.5098
   556.48         7.5020
   556.62         7.4944
   556.76         7.4885
   556.90         7.4858
   557.04         7.4879
   557.18         7.4953
   557.32         7.5067
   557.46         7.5194
   557.60         7.5298
   557.74         7.5349
   557.88         7.5328
   558.02         7.5222
   558.16         7.5025
   558.30         7.4748
   558.44         7.4410
   558.58         7.4040
   558.72         7.3662
   558.86         7.3301
   559.00         7.2984
   559.14         7.2723
   559.28         7.2519
   559.42         7.2368
   559.56         7.2267
   559.70         7.2218
   559.84         7.2222
   559.98         7.2282
   560.12         7.2409
   560.26         7.2609
   560.40         7.2876
   560.54         7.3186
   560.68         7.3507
   560.82         7.3805
   560.96         7.4053
   561.10         7.4227
   561.24         7.4308
   561.38         7.4297
   561.52         7.4206
   561.66         7.4058
   561.80         7.3880
   561.94         7.3700
   562.08         7.3545
   562.22         7.3435
   562.36         7.3380
   562.50         7.3383
   562.64         7.3450
   562.78         7.3572
   562.92         7.3724
   563.06         7.3884
   563.20         7.4043
   563.34         7.4199
   563.48         7.4353
   563.62         7.4500
   563.76         7.4624
   563.90         7.4709
   564.04         7.4749
   564.18         7.4741
   564.32         7.4682
   564.46         7.4573
   564.60         7.4414
   564.74         7.4207
   564.88         7.3960
   565.02         7.3690
   565.16         7.3416
   565.30         7.3157
   565.44         7.2917
   565.58         7.2700
   565.72         7.2516
   565.86         7.2371
   566.00         7.2269
   566.14         7.2208
   566.28         7.2182
   566.42         7.2184
   566.56         7.2213
   566.70         7.2269
   566.84         7.2347
   566.98         7.2436
   567.12         7.2523
   567.26         7.2595
   567.40         7.2640
   567.54         7.2651
   567.68         7.2621
   567.82         7.2553
   567.96         7.2453
   568.10         7.2329
   568.24         7.2197
   568.38         7.2078
   568.52         7.1995
   568.66         7.1972
   568.80         7.2020
   568.94         7.2134
   569.08         7.2298
   569.22         7.2483
   569.36         7.2657
   569.50         7.2786
   569.64         7.2839
   569.78         7.2788
   569.92         7.2620
   570.06         7.2341
   570.20         7.1981
   570.34         7.1584
   570.48         7.1197
   570.62         7.0855
   570.76         7.0587
   570.90         7.0416
   571.04         7.0364
   571.18         7.0447
   571.32         7.0667
   571.46         7.1007
   571.60         7.1438
   571.74         7.1925
   571.88         7.2431
   572.02         7.2922
   572.16         7.3365
   572.30         7.3727
   572.44         7.3983
   572.58         7.4122
   572.72         7.4148
   572.86         7.4069
   573.00         7.3899
   573.14         7.3654
   573.28         7.3353
   573.42         7.3016
   573.56         7.2664
   573.70         7.2323
   573.84         7.2018
   573.98         7.1763
   574.12         7.1563
   574.26         7.1419
   574.40         7.1328
   574.54         7.1286
   574.68         7.1287
   574.82         7.1323
   574.96         7.1378
   575.10         7.1437
   575.24         7.1495
   575.38         7.1553
   575.52         7.1605
   575.66         7.1642
   575.80         7.1649
   575.94         7.1617
   576.08         7.1542
   576.22         7.1425
   576.36         7.1286
   576.50         7.1136
   576.64         7.0977
   576.78         7.0799
   576.92         7.0589
   577.06         7.0339
   577.20         7.0050
   577.34         6.9741
   577.48         6.9441
   577.62         6.9178
   577.76         6.8977
   577.90         6.8862
   578.04         6.8848
   578.18         6.8927
   578.32         6.9076
   578.46         6.9268
   578.60         6.9472
   578.74         6.9665
   578.88         6.9840
   579.02         6.9995
   579.16         7.0122
   579.30         7.0208
   579.44         7.0251
   579.58         7.0263
   579.72         7.0270
   579.86         7.0297
   580.00         7.0353
   580.14         7.0431
   580.28         7.0514
   580.42         7.0590
   580.56         7.0654
   580.70         7.0692
   580.84         7.0695
   580.98         7.0670
   581.12         7.0644
   581.26         7.0649
   581.40         7.0705
   581.54         7.0810
   581.68         7.0947
   581.82         7.1099
   581.96         7.1256
   582.10         7.1407
   582.24         7.1542
   582.38         7.1647
   582.52         7.1718
   582.66         7.1762
   582.80         7.1801
   582.94         7.1857
   583.08         7.1942
   583.22         7.2049
   583.36         7.2164
   583.50         7.2271
   583.64         7.2348
   583.78         7.2371
   583.92         7.2320
   584.06         7.2184
   584.20         7.1973
   584.34         7.1710
   584.48         7.1418
   584.62         7.1115
   584.76         7.0800
   584.90         7.0480
   585.04         7.0174
   585.18         6.9905
   585.32         6.9693
   585.46         6.9543
   585.60         6.9454
   585.74         6.9421
   585.88         6.9445
   586.02         6.9522
   586.16         6.9648
   586.30         6.9820
   586.44         7.0033
   586.58         7.0275
   586.72         7.0530
   586.86         7.0769
   587.00         7.0957
   587.14         7.1062
   587.28         7.1068
   587.42         7.0967
   587.56         7.0751
   587.70         7.0405
   587.84         6.9914
   587.98         6.9283
   588.12         6.8532
   588.26         6.7692
   588.40         6.6814
   588.54         6.5967
   588.68         6.5220
   588.82         6.4637
   588.96         6.4269
   589.10         6.4145
   589.24         6.4271
   589.38         6.4632
   589.52         6.5189
   589.66         6.5891
   589.80         6.6674
   589.94         6.7465
   590.08         6.8188
   590.22         6.8778
   590.36         6.9205
   590.50         6.9473
   590.64         6.9602
   590.78         6.9615
   590.92         6.9545
   591.06         6.9433
   591.20         6.9315
   591.34         6.9209
   591.48         6.9116
   591.62         6.9034
   591.76         6.8960
   591.90         6.8892
   592.04         6.8820
   592.18         6.8735
   592.32         6.8632
   592.46         6.8517
   592.60         6.8399
   592.74         6.8284
   592.88         6.8176
   593.02         6.8085
   593.16         6.8022
   593.30         6.7992
   593.44         6.7994
   593.58         6.8020
   593.72         6.8057
   593.86         6.8091
   594.00         6.8106
   594.14         6.8092
   594.28         6.8047
   594.42         6.7975
   594.56         6.7878
   594.70         6.7760
   594.84         6.7635
   594.98         6.7523
   595.12         6.7445
   595.26         6.7407
   595.40         6.7410
   595.54         6.7454
   595.68         6.7531
   595.82         6.7628
   595.96         6.7730
   596.10         6.7822
   596.24         6.7889
   596.38         6.7917
   596.52         6.7900
   596.66         6.7837
   596.80         6.7726
   596.94         6.7574
   597.08         6.7397
   597.22         6.7221
   597.36         6.7081
   597.50         6.7011
   597.64         6.7024
   597.78         6.7123
   597.92         6.7302
   598.06         6.7550
   598.20         6.7845
   598.34         6.8162
   598.48         6.8480
   598.62         6.8775
   598.76         6.9016
   598.90         6.9179
   599.04         6.9249
   599.18         6.9224
   599.32         6.9104
   599.46         6.8894
   599.60         6.8606
   599.74         6.8262
   599.88         6.7889
   600.02         6.7515
   600.16         6.7161
   600.30         6.6843
   600.44         6.6579
   600.58         6.6382
   600.72         6.6252
   600.86         6.6174
   601.00         6.6128
   601.14         6.6089
   601.28         6.6037
   601.42         6.5958
   601.56         6.5850
   601.70         6.5718
   601.84         6.5573
   601.98         6.5421
   602.12         6.5276
   602.26         6.5162
   602.40         6.5102
   602.54         6.5098
   602.68         6.5142
   602.82         6.5222
   602.96         6.5325
   603.10         6.5441
   603.24         6.5554
   603.38         6.5650
   603.52         6.5718
   603.66         6.5757
   603.80         6.5779
   603.94         6.5801
   604.08         6.5828
   604.22         6.5858
   604.36         6.5880
   604.50         6.5893
   604.64         6.5900
   604.78         6.5901
   604.92         6.5888
   605.06         6.5852
   605.20         6.5791
   605.34         6.5715
   605.48         6.5641
   605.62         6.5581
   605.76         6.5543
   605.90         6.5533
   606.04         6.5555
   606.18         6.5610
   606.32         6.5692
   606.46         6.5787
   606.60         6.5880
   606.74         6.5959
   606.88         6.6016
   607.02         6.6047
   607.16         6.6042
   607.30         6.5989
   607.44         6.5879
   607.58         6.5715
   607.72         6.5512
   607.86         6.5290
   608.00         6.5066
   608.14         6.4857
   608.28         6.4679
   608.42         6.4545
   608.56         6.4465
   608.70         6.4434
   608.84         6.4435
   608.98         6.4447
   609.12         6.4459
   609.26         6.4462
   609.40         6.4446
   609.54         6.4398
   609.68         6.4311
   609.82         6.4184
   609.96         6.4031
   610.10         6.3869
   610.24         6.3726
   610.38         6.3622
   610.52         6.3564
   610.66         6.3555
   610.80         6.3591
   610.94         6.3657
   611.08         6.3728
   611.22         6.3781
   611.36         6.3810
   611.50         6.3821
   611.64         6.3833
   611.78         6.3866
   611.92         6.3927
   612.06         6.4017
   612.20         6.4137
   612.34         6.4276
   612.48         6.4412
   612.62         6.4517
   612.76         6.4573
   612.90         6.4568
   613.04         6.4485
   613.18         6.4311
   613.32         6.4053
   613.46         6.3722
   613.60         6.3341
   613.74         6.2944
   613.88         6.2577
   614.02         6.2280
   614.16         6.2077
   614.30         6.1983
   614.44         6.1998
   614.58         6.2110
   614.72         6.2295
   614.86         6.2527
   615.00         6.2773
   615.14         6.3009
   615.28         6.3220
   615.42         6.3398
   615.56         6.3523
   615.70         6.3574
   615.84         6.3537
   615.98         6.3411
   616.12         6.3210
   616.26         6.2960
   616.40         6.2699
   616.54         6.2461
   616.68         6.2272
   616.82         6.2154
   616.96         6.2120
   617.10         6.2178
   617.24         6.2325
   617.38         6.2551
   617.52         6.2834
   617.66         6.3142
   617.80         6.3429
   617.94         6.3658
   618.08         6.3802
   618.22         6.3849
   618.36         6.3801
   618.50         6.3677
   618.64         6.3507
   618.78         6.3320
   618.92         6.3144
   619.06         6.2996
   619.20         6.2894
   619.34         6.2849
   619.48         6.2867
   619.62         6.2943
   619.76         6.3061
   619.90         6.3202
   620.04         6.3340
   620.18         6.3455
   620.32         6.3529
   620.46         6.3552
   620.60         6.3522
   620.74         6.3444
   620.88         6.3325
   621.02         6.3177
   621.16         6.3009
   621.30         6.2833
   621.44         6.2654
   621.58         6.2477
   621.72         6.2309
   621.86         6.2158
   622.00         6.2027
   622.14         6.1918
   622.28         6.1838
   622.42         6.1797
   622.56         6.1803
   622.70         6.1856
   622.84         6.1939
   622.98         6.2027
   623.12         6.2105
   623.26         6.2165
   623.40         6.2200
   623.54         6.2197
   623.68         6.2138
   623.82         6.2008
   623.96         6.1808
   624.10         6.1551
   624.24         6.1258
   624.38         6.0954
   624.52         6.0667
   624.66         6.0427
   624.80         6.0259
   624.94         6.0177
   625.08         6.0173
   625.22         6.0219
   625.36         6.0280
   625.50         6.0332
   625.64         6.0380
   625.78         6.0430
   625.92         6.0482
   626.06         6.0520
   626.20         6.0537
   626.34         6.0538
   626.48         6.0535
   626.62         6.0530
   626.76         6.0508
   626.90         6.0450
   627.04         6.0347
   627.18         6.0200
   627.32         6.0019
   627.46         5.9818
   627.60         5.9617
   627.74         5.9440
   627.88         5.9314
   628.02         5.9261
   628.16         5.9289
   628.30         5.9392
   628.44         5.9552
   628.58         5.9748
   628.72         5.9962
   628.86         6.0181
   629.00         6.0396
   629.14         6.0590
   629.28         6.0748
   629.42         6.0868
   629.56         6.0959
   629.70         6.1038
   629.84         6.1124
   629.98         6.1221
   630.12         6.1320
   630.26         6.1406
   630.40         6.1458
   630.54         6.1462
   630.68         6.1407
   630.82         6.1298
   630.96         6.1151
   631.10         6.0985
   631.24         6.0822
   631.38         6.0676
   631.52         6.0559
   631.66         6.0487
   631.80         6.0464
   631.94         6.0491
   632.08         6.0566
   632.22         6.0684
   632.36         6.0829
   632.50         6.0974
   632.64         6.1092
   632.78         6.1174
   632.92         6.1228
   633.06         6.1266
   633.20         6.1292
   633.34         6.1303
   633.48         6.1289
   633.62         6.1241
   633.76         6.1159
   633.90         6.1043
   634.04         6.0898
   634.18         6.0733
   634.32         6.0554
   634.46         6.0368
   634.60         6.0191
   634.74         6.0038
   634.88         5.9917
   635.02         5.9832
   635.16         5.9784
   635.30         5.9771
   635.44         5.9781
   635.58         5.9794
   635.72         5.9794
   635.86         5.9763
   636.00         5.9686
   636.14         5.9564
   636.28         5.9422
   636.42         5.9284
   636.56         5.9164
   636.70         5.9065
   636.84         5.8976
   636.98         5.8887
   637.12         5.8800
   637.26         5.8714
   637.40         5.8622
   637.54         5.8514
   637.68         5.8386
   637.82         5.8243
   637.96         5.8098
   638.10         5.7964
   638.24         5.7856
   638.38         5.7791
   638.52         5.7781
   638.66         5.7839
   638.80         5.7973
   638.94         5.8178
   639.08         5.8436
   639.22         5.8726
   639.36         5.9027
   639.50         5.9315
   639.64         5.9571
   639.78         5.9783
   639.92         5.9941
   640.06         6.0032
   640.20         6.0053
   640.34         6.0004
   640.48         5.9887
   640.62         5.9707
   640.76         5.9473
   640.90         5.9206
   641.04         5.8932
   641.18         5.8678
   641.32         5.8468
   641.46         5.8316
   641.60         5.8224
   641.74         5.8192
   641.88         5.8213
   642.02         5.8272
   642.16         5.8353
   642.30         5.8449
   642.44         5.8550
   642.58         5.8638
   642.72         5.8691
   642.86         5.8697
   643.00         5.8663
   643.14         5.8601
   643.28         5.8526
   643.42         5.8451
   643.56         5.8385
   643.70         5.8336
   643.84         5.8303
   643.98         5.8278
   644.12         5.8247
   644.26         5.8203
   644.40         5.8145
   644.54         5.8071
   644.68         5.7984
   644.82         5.7891
   644.96         5.7803
   645.10         5.7723
   645.24         5.7653
   645.38         5.7601
   645.52         5.7577
   645.66         5.7588
   645.80         5.7631
   645.94         5.7697
   646.08         5.7776
   646.22         5.7860
   646.36         5.7946
   646.50         5.8041
   646.64         5.8153
   646.78         5.8280
   646.92         5.8412
   647.06         5.8531
   647.20         5.8624
   647.34         5.8681
   647.48         5.8692
   647.62         5.8651
   647.76         5.8564
   647.90         5.8443
   648.04         5.8298
   648.18         5.8135
   648.32         5.7959
   648.46         5.7768
   648.60         5.7561
   648.74         5.7349
   648.88         5.7157
   649.02         5.7011
   649.16         5.6932
   649.30         5.6923
   649.44         5.6974
   649.58         5.7068
   649.72         5.7199
   649.86         5.7361
   650.00         5.7552
   650.14         5.7756
   650.28         5.7956
   650.42         5.8124
   650.56         5.8233
   650.70         5.8265
   650.84         5.8217
   650.98         5.8099
   651.12         5.7934
   651.26         5.7756
   651.40         5.7598
   651.54         5.7482
   651.68         5.7410
   651.82         5.7380
   651.96         5.7389
   652.10         5.7435
   652.24         5.7521
   652.38         5.7647
   652.52         5.7806
   652.66         5.7980
   652.80         5.8144
   652.94         5.8282
   653.08         5.8379
   653.22         5.8429
   653.36         5.8428
   653.50         5.8369
   653.64         5.8246
   653.78         5.8062
   653.92         5.7827
   654.06         5.7550
   654.20         5.7240
   654.34         5.6905
   654.48         5.6544
   654.62         5.6151
   654.76         5.5704
   654.90         5.5163
   655.04         5.4485
   655.18         5.3639
   655.32         5.2626
   655.46         5.1485
   655.60         5.0284
   655.74         4.9112
   655.88         4.8070
   656.02         4.7255
   656.16         4.6750
   656.30         4.6613
   656.44         4.6870
   656.58         4.7507
   656.72         4.8475
   656.86         4.9693
   657.00         5.1054
   657.14         5.2448
   657.28         5.3765
   657.42         5.4913
   657.56         5.5829
   657.70         5.6489
   657.84         5.6906
   657.98         5.7114
   658.12         5.7153
   658.26         5.7062
   658.40         5.6883
   658.54         5.6656
   658.68         5.6417
   658.82         5.6199
   658.96         5.6033
   659.10         5.5947
   659.24         5.5961
   659.38         5.6074
   659.52         5.6270
   659.66         5.6521
   659.80         5.6803
   659.94         5.7092
   660.08         5.7364
   660.22         5.7597
   660.36         5.7771
   660.50         5.7876
   660.64         5.7911
   660.78         5.7885
   660.92         5.7806
   661.06         5.7687
   661.20         5.7544
   661.34         5.7398
   661.48         5.7263
   661.62         5.7144
   661.76         5.7037
   661.90         5.6939
   662.04         5.6849
   662.18         5.6767
   662.32         5.6701
   662.46         5.6658
   662.60         5.6646
   662.74         5.6665
   662.88         5.6707
   663.02         5.6758
   663.16         5.6801
   663.30         5.6825
   663.44         5.6817
   663.58         5.6776
   663.72         5.6709
   663.86         5.6626
   664.00         5.6537
   664.14         5.6446
   664.28         5.6362
   664.42         5.6300
   664.56         5.6273
   664.70         5.6287
   664.84         5.6341
   664.98         5.6431
   665.12         5.6550
   665.26         5.6688
   665.40         5.6831
   665.54         5.6966
   665.68         5.7089
   665.82         5.7204
   665.96         5.7318
   666.10         5.7432
   666.24         5.7545
   666.38         5.7650
   666.52         5.7734
   666.66         5.7779
   666.80         5.7766
   666.94         5.7691
   667.08         5.7565
   667.22         5.7408
   667.36         5.7243
   667.50         5.7090
   667.64         5.6967
   667.78         5.6893
   667.92         5.6880
   668.06         5.6931
   668.20         5.7037
   668.34         5.7186
   668.48         5.7357
   668.62         5.7523
   668.76         5.7656
   668.90         5.7734
   669.04         5.7751
   669.18         5.7710
   669.32         5.7625
   669.46         5.7522
   669.60         5.7428
   669.74         5.7350
   669.88         5.7278
   670.02         5.7199
   670.16         5.7105
   670.30         5.6994
   670.44         5.6860
   670.58         5.6694
   670.72         5.6494
   670.86         5.6270
   671.00         5.6041
   671.14         5.5833
   671.28         5.5672
   671.42         5.5580
   671.56         5.5572
   671.70         5.5646
   671.84         5.5787
   671.98         5.5971
   672.12         5.6168
   672.26         5.6348
   672.40         5.6490
   672.54         5.6579
   672.68         5.6613
   672.82         5.6594
   672.96         5.6531
   673.10         5.6437
   673.24         5.6333
   673.38         5.6241
   673.52         5.6183
   673.66         5.6167
   673.80         5.6190
   673.94         5.6230
   674.08         5.6266
   674.22         5.6281
   674.36         5.6272
   674.50         5.6243
   674.64         5.6199
   674.78         5.6142
   674.92         5.6078
   675.06         5.6010
   675.20         5.5945
   675.34         5.5898
   675.48         5.5883
   675.62         5.5903
   675.76         5.5950
   675.90         5.6007
   676.04         5.6061
   676.18         5.6096
   676.32         5.6102
   676.46         5.6068
   676.60         5.5996
   676.74         5.5904
   676.88         5.5818
   677.02         5.5759
   677.16         5.5746
   677.30         5.5787
   677.44         5.5884
   677.58         5.6032
   677.72         5.6217
   677.86         5.6426
   678.00         5.6642
   678.14         5.6841
   678.28         5.6997
   678.42         5.7095
   678.56         5.7131
   678.70         5.7111
   678.84         5.7038
   678.98         5.6923
   679.12         5.6785
   679.26         5.6649
   679.40         5.6536
   679.54         5.6455
   679.68         5.6401
   679.82         5.6364
   679.96         5.6336
   680.10         5.6311
   680.24         5.6290
   680.38         5.6278
   680.52         5.6278
   680.66         5.6284
   680.80         5.6282
   680.94         5.6263
   681.08         5.6231
   681.22         5.6193
   681.36         5.6151
   681.50         5.6106
   681.64         5.6066
   681.78         5.6037
   681.92         5.6011
   682.06         5.5979
   682.20         5.5934
   682.34         5.5877
   682.48         5.5814
   682.62         5.5751
   682.76         5.5691
   682.90         5.5637
   683.04         5.5589
   683.18         5.5542
   683.32         5.5494
   683.46         5.5448
   683.60         5.5407
   683.74         5.5369
   683.88         5.5327
   684.02         5.5278
   684.16         5.5219
   684.30         5.5149
   684.44         5.5071
   684.58         5.4986
   684.72         5.4900
   684.86         5.4817
   685.00         5.4740
   685.14         5.4671
   685.28         5.4611
   685.42         5.4554
   685.56         5.4474
   685.70         5.4320
   685.84         5.4027
   685.98         5.3543
   686.12         5.2844
   686.26         5.1936
   686.40         5.0855
   686.54         4.9661
   686.68         4.8429
   686.82         4.7242
   686.96         4.6188
   687.10         4.5361
   687.24         4.4838
   687.38         4.4662
   687.52         4.4836
   687.66         4.5319
   687.80         4.6034
   687.94         4.6882
   688.08         4.7749
   688.22         4.8526
   688.36         4.9132
   688.50         4.9534
   688.64         4.9745
   688.78         4.9804
   688.92         4.9752
   689.06         4.9627
   689.20         4.9467
   689.34         4.9310
   689.48         4.9194
   689.62         4.9147
   689.76         4.9180
   689.90         4.9283
   690.04         4.9433
   690.18         4.9607
   690.32         4.9793
   690.46         4.9988
   690.60         5.0200
   690.74         5.0436
   690.88         5.0703
   691.02         5.1003
   691.16         5.1323
   691.30         5.1642
   691.44         5.1940
   691.58         5.2209
   691.72         5.2449
   691.86         5.2658
   692.00         5.2835
   692.14         5.2980
   692.28         5.3099
   692.42         5.3191
   692.56         5.3257
   692.70         5.3305
   692.84         5.3342
   692.98         5.3373
   693.12         5.3405
   693.26         5.3447
   693.40         5.3501
   693.54         5.3570
   693.68         5.3649
   693.82         5.3734
   693.96         5.3827
   694.10         5.3937
   694.24         5.4058
   694.38         5.4173
   694.52         5.4257
   694.66         5.4300
   694.80         5.4301
   694.94         5.4268
   695.08         5.4207
   695.22         5.4131
   695.36         5.4051
   695.50         5.3981
   695.64         5.3932
   695.78         5.3912
   695.92         5.3922
   696.06         5.3959
   696.20         5.4019
   696.34         5.4097
   696.48         5.4188
   696.62         5.4287
   696.76         5.4385
   696.90         5.4476
   697.04         5.4552
   697.18         5.4615
   697.32         5.4671
   697.46         5.4733
   697.60         5.4804
   697.74         5.4881
   697.88         5.4964
   698.02         5.5057
   698.16         5.5166
   698.30         5.5282
   698.44         5.5398
   698.58         5.5504
   698.72         5.5587
   698.86         5.5629
   699.00         5.5617
   699.14         5.5548
   699.28         5.5424
   699.42         5.5254
   699.56         5.5052
   699.70         5.4838
   699.84         5.4644
   699.98         5.4501
   700.12         5.4424
   700.26         5.4416
   700.40         5.4464
   700.54         5.4544
   700.68         5.4631
   700.82         5.4701
   700.96         5.4736
   701.10         5.4729
   701.24         5.4684
   701.38         5.4613
   701.52         5.4536
   701.66         5.4468
   701.80         5.4417
   701.94         5.4385
   702.08         5.4372
   702.22         5.4375
   702.36         5.4384
   702.50         5.4389
   702.64         5.4379
   702.78         5.4339
   702.92         5.4260
   703.06         5.4142
   703.20         5.3992
   703.34         5.3834
   703.48         5.3688
   703.62         5.3567
   703.76         5.3482
   703.90         5.3436
   704.04         5.3427
   704.18         5.3450
   704.32         5.3504
   704.46         5.3597
   704.60         5.3739
   704.74         5.3930
   704.88         5.4155
   705.02         5.4395
   705.16         5.4633
   705.30         5.4847
   705.44         5.5008
   705.58         5.5091
   705.72         5.5083
   705.86         5.4981
   706.00         5.4801
   706.14         5.4572
   706.28         5.4321
   706.42         5.4081
   706.56         5.3889
   706.70         5.3781
   706.84         5.3776
   706.98         5.3870
   707.12         5.4045
   707.26         5.4266
   707.40         5.4491
   707.54         5.4685
   707.68         5.4829
   707.82         5.4918
   707.96         5.4948
   708.10         5.4926
   708.24         5.4864
   708.38         5.4785
   708.52         5.4717
   708.66         5.4697
   708.80         5.4749
   708.94         5.4879
   709.08         5.5077
   709.22         5.5330
   709.36         5.5610
   709.50         5.5880
   709.64         5.6107
   709.78         5.6270
   709.92         5.6351
   710.06         5.6336
   710.20         5.6218
   710.34         5.6000
   710.48         5.5695
   710.62         5.5318
   710.76         5.4893
   710.90         5.4448
   711.04         5.4016
   711.18         5.3630
   711.32         5.3315
   711.46         5.3080
   711.60         5.2923
   711.74         5.2844
   711.88         5.2846
   712.02         5.2925
   712.16         5.3071
   712.30         5.3275
   712.44         5.3522
   712.58         5.3786
   712.72         5.4047
   712.86         5.4291
   713.00         5.4514
   713.14         5.4708
   713.28         5.4866
   713.42         5.4978
   713.56         5.5031
   713.70         5.5019
   713.84         5.4946
   713.98         5.4815
   714.12         5.4634
   714.26         5.4422
   714.40         5.4213
   714.54         5.4036
   714.68         5.3911
   714.82         5.3851
   714.96         5.3857
   715.10         5.3924
   715.24         5.4031
   715.38         5.4156
   715.52         5.4272
   715.66         5.4352
   715.80         5.4376
   715.94         5.4325
   716.08         5.4173
   716.22         5.3912
   716.36         5.3556
   716.50         5.3130
   716.64         5.2654
   716.78         5.2152
   716.92         5.1645
   717.06         5.1150
   717.20         5.0678
   717.34         5.0234
   717.48         4.9809
   717.62         4.9398
   717.76         4.9009
   717.90         4.8648
   718.04         4.8323
   718.18         4.8037
   718.32         4.7800
   718.46         4.7623
   718.60         4.7510
   718.74         4.7462
   718.88         4.7479
   719.02         4.7556
   719.16         4.7673
   719.30         4.7814
   719.44         4.7968
   719.58         4.8132
   719.72         4.8314
   719.86         4.8527
   720.00         4.8781
   720.14         4.9084
   720.28         4.9442
   720.42         4.9853
   720.56         5.0293
   720.70         5.0729
   720.84         5.1139
   720.98         5.1507
   721.12         5.1812
   721.26         5.2032
   721.40         5.2159
   721.54         5.2195
   721.68         5.2158
   721.82         5.2075
   721.96         5.1983
   722.10         5.1904
   722.24         5.1842
   722.38         5.1791
   722.52         5.1736
   722.66         5.1662
   722.80         5.1556
   722.94         5.1402
   723.08         5.1189
   723.22         5.0918
   723.36         5.0600
   723.50         5.0255
   723.64         4.9911
   723.78         4.9599
   723.92         4.9352
   724.06         4.9192
   724.20         4.9119
   724.34         4.9134
   724.48         4.9242
   724.62         4.9439
   724.76         4.9707
   724.90         5.0020
   725.04         5.0357
   725.18         5.0699
   725.32         5.1029
   725.46         5.1320
   725.60         5.1552
   725.74         5.1724
   725.88         5.1842
   726.02         5.1912
   726.16         5.1937
   726.30         5.1922
   726.44         5.1869
   726.58         5.1778
   726.72         5.1651
   726.86         5.1509
   727.00         5.1383
   727.14         5.1287
   727.28         5.1214
   727.42         5.1157
   727.56         5.1107
   727.70         5.1058
   727.84         5.1002
   727.98         5.0930
   728.12         5.0832
   728.26         5.0697
   728.40         5.0520
   728.54         5.0308
   728.68         5.0073
   728.82         4.9835
   728.96         4.9610
   729.10         4.9411
   729.24         4.9251
   729.38         4.9148
   729.52         4.9116
   729.66         4.9145
   729.80         4.9213
   729.94         4.9301
   730.08         4.9402
   730.22         4.9513
   730.36         4.9626
   730.50         4.9732
   730.64         4.9821
   730.78         4.9884
   730.92         4.9916
   731.06         4.9918
   731.20         4.9893
   731.34         4.9838
   731.48         4.9749
   731.62         4.9621
   731.76         4.9458
   731.90         4.9275
   732.04         4.9100
   732.18         4.8954
   732.32         4.8852
   732.46         4.8812
   732.60         4.8856
   732.74         4.8994
   732.88         4.9213
   733.02         4.9491
   733.16         4.9814
   733.30         5.0174
   733.44         5.0558
   733.58         5.0946
   733.72         5.1319
   733.86         5.1651
   734.00         5.1911
   734.14         5.2079
   734.28         5.2148
   734.42         5.2116
   734.56         5.1993
   734.70         5.1788
   734.84         5.1517
   734.98         5.1205
   735.12         5.0887
   735.26         5.0592
   735.40         5.0343
   735.54         5.0166
   735.68         5.0081
   735.82         5.0086
   735.96         5.0158
   736.10         5.0265
   736.24         5.0376
   736.38         5.0467
   736.52         5.0527
   736.66         5.0556
   736.80         5.0554
   736.94         5.0515
   737.08         5.0439
   737.22         5.0329
   737.36         5.0193
   737.50         5.0038
   737.64         4.9868
   737.78         4.9686
   737.92         4.9496
   738.06         4.9312
   738.20         4.9151
   738.34         4.9018
   738.48         4.8912
   738.62         4.8828
   738.76         4.8769
   738.90         4.8739
   739.04         4.8747
   739.18         4.8798
   739.32         4.8891
   739.46         4.9015
   739.60         4.9150
   739.74         4.9275
   739.88         4.9369
   740.02         4.9414
   740.16         4.9403
   740.30         4.9345
   740.44         4.9247
   740.58         4.9111
   740.72         4.8942
   740.86         4.8743
   741.00         4.8508
   741.14         4.8228
   741.28         4.7905
   741.42         4.7543
   741.56         4.7160
   741.70         4.6775
   741.84         4.6395
   741.98         4.6015
   742.12         4.5628
   742.26         4.5240
   742.40         4.4875
   742.54         4.4567
   742.68         4.4344
   742.82         4.4227
   742.96         4.4227
   743.10         4.4344
   743.24         4.4567
   743.38         4.4875
   743.52         4.5240
   743.66         4.5628
   743.80         4.6015
   743.94         4.6395
   744.08         4.6775
   744.22         4.7160
