# File BD-144956
# Wavelength [nm]    Normalized Amplitude
   349.70         209.2067
   349.84         208.6846
   349.98         208.2774
   350.12         208.0035
   350.26         207.8560
   350.40         207.8193
   350.54         207.8460
   350.68         207.8604
   350.82         207.8237
   350.96         207.7660
   351.10         207.7392
   351.24         207.7660
   351.38         207.8237
   351.52         207.8604
   351.66         207.8460
   351.80         207.8193
   351.94         207.8560
   352.08         208.0035
   352.22         208.2774
   352.36         208.6846
   352.50         209.2067
   352.64         209.7896
   352.78         210.4109
   352.92         211.0882
   353.06         211.8136
   353.20         212.5646
   353.34         213.3310
   353.48         214.0959
   353.62         214.8089
   353.76         215.3893
   353.90         215.7708
   354.04         215.9109
   354.18         215.7754
   354.32         215.3636
   354.46         214.7172
   354.60         213.8683
   354.74         212.8354
   354.88         211.6626
   355.02         210.3994
   355.16         209.0979
   355.30         207.8250
   355.44         206.6646
   355.58         205.6888
   355.72         204.9774
   355.86         204.6218
   356.00         204.6163
   356.14         204.8693
   356.28         205.3342
   356.42         206.0156
   356.56         206.9052
   356.70         207.9526
   356.84         209.0595
   356.98         210.1106
   357.12         211.0038
   357.26         211.6458
   357.40         211.9703
   357.54         211.9461
   357.68         211.5723
   357.82         210.9032
   357.96         210.0152
   358.10         209.0041
   358.24         208.0026
   358.38         207.1206
   358.52         206.4010
   358.66         205.8687
   358.80         205.5903
   358.94         205.6152
   359.08         205.8817
   359.22         206.2556
   359.36         206.6056
   359.50         206.8200
   359.64         206.8206
   359.78         206.5873
   359.92         206.1314
   360.06         205.4725
   360.20         204.6682
   360.34         203.8027
   360.48         202.9501
   360.62         202.1761
   360.76         201.5723
   360.90         201.2452
   361.04         201.2542
   361.18         201.5868
   361.32         202.1687
   361.46         202.8948
   361.60         203.6541
   361.74         204.3484
   361.88         204.9061
   362.02         205.2659
   362.16         205.3711
   362.30         205.1816
   362.44         204.7017
   362.58         203.9870
   362.72         203.1303
   362.86         202.2504
   363.00         201.4282
   363.14         200.7217
   363.28         200.2105
   363.42         199.9692
   363.56         200.0393
   363.70         200.3980
   363.84         200.9744
   363.98         201.6967
   364.12         202.4991
   364.26         203.2958
   364.40         203.9822
   364.54         204.4631
   364.68         204.6750
   364.82         204.6126
   364.96         204.3150
   365.10         203.8424
   365.24         203.2607
   365.38         202.6261
   365.52         201.9898
   365.66         201.3882
   365.80         200.8505
   365.94         200.3814
   366.08         199.9654
   366.22         199.6006
   366.36         199.2778
   366.50         198.9833
   366.64         198.7013
   366.78         198.4176
   366.92         198.1416
   367.06         197.8937
   367.20         197.6876
   367.34         197.5312
   367.48         197.4260
   367.62         197.3474
   367.76         197.2373
   367.90         197.0293
   368.04         196.6994
   368.18         196.3021
   368.32         195.9169
   368.46         195.5524
   368.60         195.1317
   368.74         194.5689
   368.88         193.8181
   369.02         192.8735
   369.16         191.7623
   369.30         190.5101
   369.44         189.1404
   369.58         187.7090
   369.72         186.2956
   369.86         184.9768
   370.00         183.8321
   370.14         182.9625
   370.28         182.4590
   370.42         182.3557
   370.56         182.6688
   370.70         183.4023
   370.84         184.4715
   370.98         185.6715
   371.12         186.7556
   371.26         187.5883
   371.40         188.1982
   371.54         188.7073
   371.68         189.2137
   371.82         189.7278
   371.96         190.2137
   372.10         190.6273
   372.24         190.9191
   372.38         191.0414
   372.52         190.9756
   372.66         190.7700
   372.80         190.5286
   372.94         190.3450
   373.08         190.3057
   373.22         190.5362
   373.36         191.1250
   373.50         192.0406
   373.64         193.1505
   373.78         194.2750
   373.92         195.2471
   374.06         195.9381
   374.20         196.2543
   374.34         196.1303
   374.48         195.5798
   374.62         194.7385
   374.76         193.8321
   374.90         193.1570
   375.04         193.0159
   375.18         193.6122
   375.32         195.0091
   375.46         197.0913
   375.60         199.5624
   375.74         202.0216
   375.88         204.0252
   376.02         205.1554
   376.16         205.1388
   376.30         203.9611
   376.44         201.8818
   376.58         199.3495
   376.72         196.8749
   376.86         194.9063
   377.00         193.7953
   377.14         193.7826
   377.28         194.9492
   377.42         197.2198
   377.56         200.3894
   377.70         204.1198
   377.84         207.9873
   377.98         211.5672
   378.12         214.4617
   378.26         216.3321
   378.40         216.9580
   378.54         216.2669
   378.68         214.3350
   378.82         211.3726
   378.96         207.6997
   379.10         203.6877
   379.24         199.7013
   379.38         196.0680
   379.52         193.0679
   379.66         190.9515
   379.80         189.9381
   379.94         190.1842
   380.08         191.7308
   380.22         194.4589
   380.36         198.0983
   380.50         202.2648
   380.64         206.4969
   380.78         210.3185
   380.92         213.3291
   381.06         215.2815
   381.20         216.1220
   381.34         215.9785
   381.48         215.0878
   381.62         213.7086
   381.76         212.0574
   381.90         210.2773
   382.04         208.4303
   382.18         206.4975
   382.32         204.3877
   382.46         201.9823
   382.60         199.2125
   382.74         196.1060
   382.88         192.7963
   383.02         189.5082
   383.16         186.5152
   383.30         184.1198
   383.44         182.6210
   383.58         182.2571
   383.72         183.1627
   383.86         185.3282
   384.00         188.5722
   384.14         192.5792
   384.28         196.9852
   384.42         201.4095
   384.56         205.4805
   384.70         208.9098
   384.84         211.5448
   384.98         213.3798
   385.12         214.5433
   385.26         215.2347
   385.40         215.6246
   385.54         215.8046
   385.68         215.8133
   385.82         215.6720
   385.96         215.3926
   386.10         214.9790
   386.24         214.4430
   386.38         213.8008
   386.52         213.0601
   386.66         212.2419
   386.80         211.3823
   386.94         210.4858
   387.08         209.4973
   387.22         208.3408
   387.36         206.9335
   387.50         205.1528
   387.64         202.8575
   387.78         199.9585
   387.92         196.4764
   388.06         192.5613
   388.20         188.4665
   388.34         184.4958
   388.48         180.9540
   388.62         178.1269
   388.76         176.2673
   388.90         175.5473
   389.04         176.0313
   389.18         177.6803
   389.32         180.3350
   389.46         183.7191
   389.60         187.5111
   389.74         191.4217
   389.88         195.1878
   390.02         198.5802
   390.16         201.4682
   390.30         203.8331
   390.44         205.7257
   390.58         207.2118
   390.72         208.3406
   390.86         209.1241
   391.00         209.5251
   391.14         209.5033
   391.28         209.0520
   391.42         208.1780
   391.56         206.9157
   391.70         205.3723
   391.84         203.7034
   391.98         202.0276
   392.12         200.4186
   392.26         198.9626
   392.40         197.7575
   392.54         196.8789
   392.68         196.4002
   392.82         196.3725
   392.96         196.7704
   393.10         197.5074
   393.24         198.4796
   393.38         199.5918
   393.52         200.7435
   393.66         201.8329
   393.80         202.7953
   393.94         203.5937
   394.08         204.1891
   394.22         204.5462
   394.36         204.6448
   394.50         204.4476
   394.64         203.9077
   394.78         203.0462
   394.92         201.9436
   395.06         200.6588
   395.20         199.1896
   395.34         197.4787
   395.48         195.4123
   395.62         192.8254
   395.76         189.5623
   395.90         185.5742
   396.04         180.9679
   396.18         175.9841
   396.32         170.9611
   396.46         166.2824
   396.60         162.3075
   396.74         159.3366
   396.88         157.6051
   397.02         157.2521
   397.16         158.2659
   397.30         160.5024
   397.44         163.7303
   397.58         167.6419
   397.72         171.8908
   397.86         176.1386
   398.00         180.0895
   398.14         183.5172
   398.28         186.2903
   398.42         188.4002
   398.56         189.9421
   398.70         191.0255
   398.84         191.7182
   398.98         192.0648
   399.12         192.1090
   399.26         191.8880
   399.40         191.4288
   399.54         190.7591
   399.68         189.8985
   399.82         188.8624
   399.96         187.7008
   400.10         186.5029
   400.24         185.3636
   400.38         184.3716
   400.52         183.6019
   400.66         183.0896
   400.80         182.8094
   400.94         182.6908
   401.08         182.6377
   401.22         182.5209
   401.36         182.1899
   401.50         181.5300
   401.64         180.5156
   401.78         179.2010
   401.92         177.6752
   402.06         176.0573
   402.20         174.5177
   402.34         173.2425
   402.48         172.4011
   402.62         172.1334
   402.76         172.5017
   402.90         173.4526
   403.04         174.8355
   403.18         176.4524
   403.32         178.0932
   403.46         179.5708
   403.60         180.7358
   403.74         181.4805
   403.88         181.7773
   404.02         181.6978
   404.16         181.3789
   404.30         180.9664
   404.44         180.5496
   404.58         180.1651
   404.72         179.8443
   404.86         179.6070
   405.00         179.4279
   405.14         179.2464
   405.28         179.0092
   405.42         178.6930
   405.56         178.2813
   405.70         177.7486
   405.84         177.0722
   405.98         176.2445
   406.12         175.2796
   406.26         174.1883
   406.40         172.9926
   406.54         171.7562
   406.68         170.5423
   406.82         169.3876
   406.96         168.3217
   407.10         167.3778
   407.24         166.5954
   407.38         165.9918
   407.52         165.5424
   407.66         165.2130
   407.80         164.9829
   407.94         164.8293
   408.08         164.6978
   408.22         164.5012
   408.36         164.1604
   408.50         163.6132
   408.64         162.7879
   408.78         161.5838
   408.92         159.8887
   409.06         157.6577
   409.20         154.9383
   409.34         151.8373
   409.48         148.5366
   409.62         145.2908
   409.76         142.3787
   409.90         140.0544
   410.04         138.5180
   410.18         137.9268
   410.32         138.3705
   410.46         139.8116
   410.60         142.0827
   410.74         144.9369
   410.88         148.0897
   411.02         151.2381
   411.16         154.0926
   411.30         156.4466
   411.44         158.2068
   411.58         159.3787
   411.72         160.0562
   411.86         160.3731
   412.00         160.4680
   412.14         160.4684
   412.28         160.4621
   412.42         160.4940
   412.56         160.5622
   412.70         160.6351
   412.84         160.6837
   412.98         160.6503
   413.12         160.4477
   413.26         160.0210
   413.40         159.3807
   413.54         158.6007
   413.68         157.7814
   413.82         157.0210
   413.96         156.4112
   414.10         156.0174
   414.24         155.8830
   414.38         156.0292
   414.52         156.4301
   414.66         157.0271
   414.80         157.7358
   414.94         158.4432
   415.08         159.0324
   415.22         159.4025
   415.36         159.4975
   415.50         159.3212
   415.64         158.9108
   415.78         158.3261
   415.92         157.6573
   416.06         157.0150
   416.20         156.4938
   416.34         156.1389
   416.48         155.9606
   416.62         155.9525
   416.76         156.0792
   416.90         156.2809
   417.04         156.4804
   417.18         156.5992
   417.32         156.5912
   417.46         156.4359
   417.60         156.1130
   417.74         155.6157
   417.88         154.9808
   418.02         154.2855
   418.16         153.6162
   418.30         153.0379
   418.44         152.5929
   418.58         152.3104
   418.72         152.2062
   418.86         152.2727
   419.00         152.4674
   419.14         152.7309
   419.28         153.0027
   419.42         153.2235
   419.56         153.3500
   419.70         153.3627
   419.84         153.2628
   419.98         153.0623
   420.12         152.7694
   420.26         152.3998
   420.40         152.0069
   420.54         151.6585
   420.68         151.3915
   420.82         151.2083
   420.96         151.0874
   421.10         150.9903
   421.24         150.8858
   421.38         150.7741
   421.52         150.6586
   421.66         150.5288
   421.80         150.3862
   421.94         150.2400
   422.08         150.0925
   422.22         149.9468
   422.36         149.8103
   422.50         149.6895
   422.64         149.5897
   422.78         149.5219
   422.92         149.5031
   423.06         149.5347
   423.20         149.6021
   423.34         149.6888
   423.48         149.7700
   423.62         149.8076
   423.76         149.7704
   423.90         149.6494
   424.04         149.4392
   424.18         149.1172
   424.32         148.6706
   424.46         148.1152
   424.60         147.4801
   424.74         146.8047
   424.88         146.1371
   425.02         145.5181
   425.16         144.9687
   425.30         144.4924
   425.44         144.0780
   425.58         143.7071
   425.72         143.3695
   425.86         143.0738
   426.00         142.8262
   426.14         142.6123
   426.28         142.4055
   426.42         142.1810
   426.56         141.9329
   426.70         141.6718
   426.84         141.4120
   426.98         141.1701
   427.12         140.9529
   427.26         140.7519
   427.40         140.5553
   427.54         140.3598
   427.68         140.1808
   427.82         140.0478
   427.96         139.9805
   428.10         139.9805
   428.24         140.0418
   428.38         140.1576
   428.52         140.3076
   428.66         140.4505
   428.80         140.5505
   428.94         140.5952
   429.08         140.5914
   429.22         140.5600
   429.36         140.5155
   429.50         140.4569
   429.64         140.3771
   429.78         140.2695
   429.92         140.1440
   430.06         140.0294
   430.20         139.9489
   430.34         139.8988
   430.48         139.8398
   430.62         139.7179
   430.76         139.5006
   430.90         139.1804
   431.04         138.7661
   431.18         138.2816
   431.32         137.7766
   431.46         137.3101
   431.60         136.9069
   431.74         136.5728
   431.88         136.3104
   432.02         136.1026
   432.16         135.9148
   432.30         135.7010
   432.44         135.4020
   432.58         134.9333
   432.72         134.1719
   432.86         132.9776
   433.00         131.2494
   433.14         128.9834
   433.28         126.2890
   433.42         123.3501
   433.56         120.3767
   433.70         117.5884
   433.84         115.2032
   433.98         113.4037
   434.12         112.2951
   434.26         111.9248
   434.40         112.3207
   434.54         113.4538
   434.68         115.2110
   434.82         117.4212
   434.96         119.8878
   435.10         122.4169
   435.24         124.8335
   435.38         127.0025
   435.52         128.8573
   435.66         130.3970
   435.80         131.6510
   435.94         132.6361
   436.08         133.3547
   436.22         133.8219
   436.36         134.0697
   436.50         134.1436
   436.64         134.0957
   436.78         133.9831
   436.92         133.8744
   437.06         133.8069
   437.20         133.7648
   437.34         133.7182
   437.48         133.6345
   437.62         133.4716
   437.76         133.1886
   437.90         132.7650
   438.04         132.2172
   438.18         131.5964
   438.32         130.9696
   438.46         130.4031
   438.60         129.9625
   438.74         129.7226
   438.88         129.7367
   439.02         130.0034
   439.16         130.4896
   439.30         131.1427
   439.44         131.8804
   439.58         132.5959
   439.72         133.1825
   439.86         133.5697
   440.00         133.7153
   440.14         133.5952
   440.28         133.2115
   440.42         132.5898
   440.56         131.7721
   440.70         130.8029
   440.84         129.7302
   440.98         128.6059
   441.12         127.4745
   441.26         126.3780
   441.40         125.3559
   441.54         124.4249
   441.68         123.5854
   441.82         122.8414
   441.96         122.1838
   442.10         121.5815
   442.24         121.0147
   442.38         120.4959
   442.52         120.0396
   442.66         119.6468
   442.80         119.3253
   442.94         119.0970
   443.08         119.0023
   443.22         119.0912
   443.36         119.3973
   443.50         119.9244
   443.64         120.6341
   443.78         121.4672
   443.92         122.3723
   444.06         123.2929
   444.20         124.1554
   444.34         124.8972
   444.48         125.4940
   444.62         125.9413
   444.76         126.2419
   444.90         126.4248
   445.04         126.5349
   445.18         126.6043
   445.32         126.6474
   445.46         126.6596
   445.60         126.6125
   445.74         126.4317
   445.88         126.0057
   446.02         125.2567
   446.16         124.1879
   446.30         122.8710
   446.44         121.4154
   446.58         119.9387
   446.72         118.5515
   446.86         117.3584
   447.00         116.4629
   447.14         115.9505
   447.28         115.8607
   447.42         116.1927
   447.56         116.9128
   447.70         117.9447
   447.84         119.1804
   447.98         120.4962
   448.12         121.7665
   448.26         122.8859
   448.40         123.7880
   448.54         124.4683
   448.68         124.9755
   448.82         125.3595
   448.96         125.6413
   449.10         125.8285
   449.24         125.9256
   449.38         125.9321
   449.52         125.8654
   449.66         125.7708
   449.80         125.6937
   449.94         125.6601
   450.08         125.6735
   450.22         125.7190
   450.36         125.7874
   450.50         125.8769
   450.64         125.9723
   450.78         126.0499
   450.92         126.0986
   451.06         126.1239
   451.20         126.1334
   451.34         126.1294
   451.48         126.1157
   451.62         126.1014
   451.76         126.0892
   451.90         126.0677
   452.04         126.0223
   452.18         125.9404
   452.32         125.8073
   452.46         125.6082
   452.60         125.3444
   452.74         125.0407
   452.88         124.7297
   453.02         124.4427
   453.16         124.2058
   453.30         124.0308
   453.44         123.9239
   453.58         123.8904
   453.72         123.9042
   453.86         123.9008
   454.00         123.8092
   454.14         123.5804
   454.28         123.2040
   454.42         122.7109
   454.56         122.1493
   454.70         121.5681
   454.84         121.0361
   454.98         120.6317
   455.12         120.4072
   455.26         120.3781
   455.40         120.5060
   455.54         120.6972
   455.68         120.8554
   455.82         120.9166
   455.96         120.8382
   456.10         120.5941
   456.24         120.1765
   456.38         119.5978
   456.52         118.9084
   456.66         118.2060
   456.80         117.6052
   456.94         117.2030
   457.08         117.0547
   457.22         117.1577
   457.36         117.4724
   457.50         117.9401
   457.64         118.4621
   457.78         118.9195
   457.92         119.2181
   458.06         119.3016
   458.20         119.1527
   458.34         118.7923
   458.48         118.2673
   458.62         117.6378
   458.76         116.9744
   458.90         116.3533
   459.04         115.8458
   459.18         115.5020
   459.32         115.3371
   459.46         115.3267
   459.60         115.4169
   459.74         115.5471
   459.88         115.6536
   460.02         115.6819
   460.16         115.6102
   460.30         115.4552
   460.44         115.2582
   460.58         115.0564
   460.72         114.8682
   460.86         114.7002
   461.00         114.5756
   461.14         114.5375
   461.28         114.6120
   461.42         114.8010
   461.56         115.0857
   461.70         115.4209
   461.84         115.7482
   461.98         116.0101
   462.12         116.1705
   462.26         116.2238
   462.40         116.1757
   462.54         116.0204
   462.68         115.7522
   462.82         115.3827
   462.96         114.9251
   463.10         114.3867
   463.24         113.7868
   463.38         113.1578
   463.52         112.5305
   463.66         111.9197
   463.80         111.3220
   463.94         110.7402
   464.08         110.2022
   464.22         109.7401
   464.36         109.3916
   464.50         109.2019
   464.64         109.1863
   464.78         109.3240
   464.92         109.5869
   465.06         109.9523
   465.20         110.3924
   465.34         110.8690
   465.48         111.3606
   465.62         111.8781
   465.76         112.4305
   465.90         112.9946
   466.04         113.5311
   466.18         114.0005
   466.32         114.3746
   466.46         114.6515
   466.60         114.8491
   466.74         114.9765
   466.88         115.0272
   467.02         115.0061
   467.16         114.9273
   467.30         114.8041
   467.44         114.6713
   467.58         114.5838
   467.72         114.5860
   467.86         114.6812
   468.00         114.8444
   468.14         115.0565
   468.28         115.2906
   468.42         115.4851
   468.56         115.5679
   468.70         115.4917
   468.84         115.2261
   468.98         114.7712
   469.12         114.1719
   469.26         113.4918
   469.40         112.7834
   469.54         112.0874
   469.68         111.4468
   469.82         110.8886
   469.96         110.4131
   470.10         110.0095
   470.24         109.6644
   470.38         109.3636
   470.52         109.0872
   470.66         108.8045
   470.80         108.5013
   470.94         108.1911
   471.08         107.8837
   471.22         107.5745
   471.36         107.2534
   471.50         106.9167
   471.64         106.5848
   471.78         106.2920
   471.92         106.0591
   472.06         105.8930
   472.20         105.8059
   472.34         105.8078
   472.48         105.8892
   472.62         106.0318
   472.76         106.2260
   472.90         106.4567
   473.04         106.6944
   473.18         106.9042
   473.32         107.0549
   473.46         107.1378
   473.60         107.1588
   473.74         107.1179
   473.88         107.0262
   474.02         106.9125
   474.16         106.8096
   474.30         106.7359
   474.44         106.6865
   474.58         106.6495
   474.72         106.6172
   474.86         106.5695
   475.00         106.4721
   475.14         106.3056
   475.28         106.0788
   475.42         105.8071
   475.56         105.4938
   475.70         105.1466
   475.84         104.7919
   475.98         104.4650
   476.12         104.1977
   476.26         104.0107
   476.40         103.9032
   476.54         103.8614
   476.68         103.8743
   476.82         103.9323
   476.96         104.0334
   477.10         104.1836
   477.24         104.3851
   477.38         104.6264
   477.52         104.8799
   477.66         105.1265
   477.80         105.3713
   477.94         105.6205
   478.08         105.8617
   478.22         106.0711
   478.36         106.2222
   478.50         106.2947
   478.64         106.2826
   478.78         106.1770
   478.92         105.9692
   479.06         105.6680
   479.20         105.3045
   479.34         104.9213
   479.48         104.5497
   479.62         104.2053
   479.76         103.8934
   479.90         103.6167
   480.04         103.3767
   480.18         103.1635
   480.32         102.9580
   480.46         102.7446
   480.60         102.5086
   480.74         102.2288
   480.88         101.8830
   481.02         101.4618
   481.16         100.9846
   481.30         100.4882
   481.44         100.0072
   481.58         99.5741
   481.72         99.2092
   481.86         98.9218
   482.00         98.7263
   482.14         98.6378
   482.28         98.6681
   482.42         98.8233
   482.56         99.0928
   482.70         99.4506
   482.84         99.8647
   482.98         100.3063
   483.12         100.7478
   483.26         101.1586
   483.40         101.5001
   483.54         101.7333
   483.68         101.8348
   483.82         101.7960
   483.96         101.6088
   484.10         101.2543
   484.24         100.7032
   484.38         99.9326
   484.52         98.9270
   484.66         97.6663
   484.80         96.1328
   484.94         94.3331
   485.08         92.3135
   485.22         90.1685
   485.36         88.0387
   485.50         86.0824
   485.64         84.4464
   485.78         83.2510
   485.92         82.5756
   486.06         82.4469
   486.20         82.8482
   486.34         83.7247
   486.48         84.9695
   486.62         86.4319
   486.76         87.9506
   486.90         89.3836
   487.04         90.6195
   487.18         91.5820
   487.32         92.2458
   487.46         92.6431
   487.60         92.8438
   487.74         92.9321
   487.88         92.9859
   488.02         93.0670
   488.16         93.2140
   488.30         93.4416
   488.44         93.7455
   488.58         94.1071
   488.72         94.5044
   488.86         94.9145
   489.00         95.3113
   489.14         95.6667
   489.28         95.9604
   489.42         96.1812
   489.56         96.3137
   489.70         96.3419
   489.84         96.2592
   489.98         96.0708
   490.12         95.7940
   490.26         95.4551
   490.40         95.0833
   490.54         94.7049
   490.68         94.3338
   490.82         93.9553
   490.96         93.5397
   491.10         93.0725
   491.24         92.5636
   491.38         92.0414
   491.52         91.5403
   491.66         91.0931
   491.80         90.7268
   491.94         90.4640
   492.08         90.3300
   492.22         90.3452
   492.36         90.5234
   492.50         90.8671
   492.64         91.3634
   492.78         91.9854
   492.92         92.6891
   493.06         93.4150
   493.20         94.0936
   493.34         94.6559
   493.48         95.0541
   493.62         95.2778
   493.76         95.3547
   493.90         95.3255
   494.04         95.2227
   494.18         95.0727
   494.32         94.9034
   494.46         94.7456
   494.60         94.6311
   494.74         94.5856
   494.88         94.6189
   495.02         94.7243
   495.16         94.8783
   495.30         95.0418
   495.44         95.1741
   495.58         95.2477
   495.72         95.2542
   495.86         95.1989
   496.00         95.0878
   496.14         94.9246
   496.28         94.7149
   496.42         94.4731
   496.56         94.2125
   496.70         93.9391
   496.84         93.6638
   496.98         93.3996
   497.12         93.1559
   497.26         92.9384
   497.40         92.7420
   497.54         92.5539
   497.68         92.3636
   497.82         92.1684
   497.96         91.9731
   498.10         91.7904
   498.24         91.6351
   498.38         91.5090
   498.52         91.3978
   498.66         91.2840
   498.80         91.1622
   498.94         91.0433
   499.08         90.9399
   499.22         90.8480
   499.36         90.7500
   499.50         90.6300
   499.64         90.4794
   499.78         90.3000
   499.92         90.0946
   500.06         89.8582
   500.20         89.5835
   500.34         89.2619
   500.48         88.8899
   500.62         88.4786
   500.76         88.0606
   500.90         87.6791
   501.04         87.3622
   501.18         87.1251
   501.32         86.9811
   501.46         86.9363
   501.60         86.9860
   501.74         87.1130
   501.88         87.2928
   502.02         87.5043
   502.16         87.7306
   502.30         87.9557
   502.44         88.1570
   502.58         88.3095
   502.72         88.3978
   502.86         88.4162
   503.00         88.3688
   503.14         88.2691
   503.28         88.1304
   503.42         87.9530
   503.56         87.7193
   503.70         87.4083
   503.84         87.0246
   503.98         86.6001
   504.12         86.1726
   504.26         85.7747
   504.40         85.4315
   504.54         85.1612
   504.68         84.9766
   504.82         84.8856
   504.96         84.8863
   505.10         84.9632
   505.24         85.0952
   505.38         85.2557
   505.52         85.4144
   505.66         85.5483
   505.80         85.6434
   505.94         85.6960
   506.08         85.7127
   506.22         85.7078
   506.36         85.6997
   506.50         85.7056
   506.64         85.7343
   506.78         85.7867
   506.92         85.8570
   507.06         85.9394
   507.20         86.0292
   507.34         86.1144
   507.48         86.1792
   507.62         86.2143
   507.76         86.2188
   507.90         86.1939
   508.04         86.1423
   508.18         86.0688
   508.32         85.9753
   508.46         85.8565
   508.60         85.7075
   508.74         85.5284
   508.88         85.3236
   509.02         85.1066
   509.16         84.8995
   509.30         84.7254
   509.44         84.6000
   509.58         84.5244
   509.72         84.4891
   509.86         84.4772
   510.00         84.4722
   510.14         84.4682
   510.28         84.4627
   510.42         84.4446
   510.56         84.4000
   510.70         84.3202
   510.84         84.1929
   510.98         84.0054
   511.12         83.7591
   511.26         83.4725
   511.40         83.1690
   511.54         82.8697
   511.68         82.5930
   511.82         82.3490
   511.96         82.1361
   512.10         81.9456
   512.24         81.7673
   512.38         81.5952
   512.52         81.4300
   512.66         81.2759
   512.80         81.1331
   512.94         80.9941
   513.08         80.8490
   513.22         80.6887
   513.36         80.5078
   513.50         80.3132
   513.64         80.1258
   513.78         79.9699
   513.92         79.8637
   514.06         79.8186
   514.20         79.8321
   514.34         79.8871
   514.48         79.9614
   514.62         80.0333
   514.76         80.0869
   514.90         80.1158
   515.04         80.1178
   515.18         80.0910
   515.32         80.0310
   515.46         79.9342
   515.60         79.8064
   515.74         79.6615
   515.88         79.5142
   516.02         79.3814
   516.16         79.2814
   516.30         79.2248
   516.44         79.2118
   516.58         79.2364
   516.72         79.2856
   516.86         79.3395
   517.00         79.3835
   517.14         79.4140
   517.28         79.4321
   517.42         79.4417
   517.56         79.4451
   517.70         79.4390
   517.84         79.4166
   517.98         79.3760
   518.12         79.3252
   518.26         79.2753
   518.40         79.2325
   518.54         79.1975
   518.68         79.1701
   518.82         79.1526
   518.96         79.1424
   519.10         79.1283
   519.24         79.0921
   519.38         79.0130
   519.52         78.8774
   519.66         78.6877
   519.80         78.4585
   519.94         78.2068
   520.08         77.9486
   520.22         77.6969
   520.36         77.4583
   520.50         77.2422
   520.64         77.0608
   520.78         76.9160
   520.92         76.8062
   521.06         76.7344
   521.20         76.7005
   521.34         76.6957
   521.48         76.7048
   521.62         76.7081
   521.76         76.6827
   521.90         76.6090
   522.04         76.4812
   522.18         76.3076
   522.32         76.1001
   522.46         75.8708
   522.60         75.6345
   522.74         75.4054
   522.88         75.1939
   523.02         75.0102
   523.16         74.8687
   523.30         74.7776
   523.44         74.7352
   523.58         74.7371
   523.72         74.7674
   523.86         74.7971
   524.00         74.7989
   524.14         74.7577
   524.28         74.6650
   524.42         74.5175
   524.56         74.3237
   524.70         74.1045
   524.84         73.8829
   524.98         73.6788
   525.12         73.5082
   525.26         73.3792
   525.40         73.2853
   525.54         73.2164
   525.68         73.1680
   525.82         73.1345
   525.96         73.1030
   526.10         73.0566
   526.24         72.9827
   526.38         72.8769
   526.52         72.7462
   526.66         72.6084
   526.80         72.4804
   526.94         72.3733
   527.08         72.2949
   527.22         72.2510
   527.36         72.2400
   527.50         72.2496
   527.64         72.2631
   527.78         72.2650
   527.92         72.2408
   528.06         72.1792
   528.20         72.0813
   528.34         71.9595
   528.48         71.8244
   528.62         71.6873
   528.76         71.5665
   528.90         71.4814
   529.04         71.4472
   529.18         71.4704
   529.32         71.5442
   529.46         71.6522
   529.60         71.7738
   529.74         71.8865
   529.88         71.9700
   530.02         72.0079
   530.16         71.9877
   530.30         71.9058
   530.44         71.7701
   530.58         71.5945
   530.72         71.3938
   530.86         71.1838
   531.00         70.9816
   531.14         70.8041
   531.28         70.6677
   531.42         70.5844
   531.56         70.5537
   531.70         70.5620
   531.84         70.5912
   531.98         70.6285
   532.12         70.6671
   532.26         70.7010
   532.40         70.7236
   532.54         70.7322
   532.68         70.7292
   532.82         70.7189
   532.96         70.7059
   533.10         70.6932
   533.24         70.6796
   533.38         70.6613
   533.52         70.6361
   533.66         70.6047
   533.80         70.5664
   533.94         70.5136
   534.08         70.4370
   534.22         70.3335
   534.36         70.2073
   534.50         70.0693
   534.64         69.9289
   534.78         69.7899
   534.92         69.6524
   535.06         69.5168
   535.20         69.3865
   535.34         69.2644
   535.48         69.1479
   535.62         69.0368
   535.76         68.9371
   535.90         68.8585
   536.04         68.8078
   536.18         68.7855
   536.32         68.7891
   536.46         68.8126
   536.60         68.8439
   536.74         68.8729
   536.88         68.8923
   537.02         68.8966
   537.16         68.8840
   537.30         68.8524
   537.44         68.8011
   537.58         68.7329
   537.72         68.6510
   537.86         68.5584
   538.00         68.4577
   538.14         68.3553
   538.28         68.2628
   538.42         68.1871
   538.56         68.1263
   538.70         68.0758
   538.84         68.0325
   538.98         67.9928
   539.12         67.9528
   539.26         67.9123
   539.40         67.8755
   539.54         67.8428
   539.68         67.8075
   539.82         67.7605
   539.96         67.6955
   540.10         67.6179
   540.24         67.5350
   540.38         67.4473
   540.52         67.3559
   540.66         67.2622
   540.80         67.1667
   540.94         67.0682
   541.08         66.9625
   541.22         66.8483
   541.36         66.7272
   541.50         66.5987
   541.64         66.4622
   541.78         66.3235
   541.92         66.1893
   542.06         66.0594
   542.20         65.9302
   542.34         65.8028
   542.48         65.6828
   542.62         65.5701
   542.76         65.4588
   542.90         65.3401
   543.04         65.2111
   543.18         65.0781
   543.32         64.9484
   543.46         64.8279
   543.60         64.7146
   543.74         64.5978
   543.88         64.4676
   544.02         64.3168
   544.16         64.1400
   544.30         63.9363
   544.44         63.7082
   544.58         63.4630
   544.72         63.2140
   544.86         62.9800
   545.00         62.7842
   545.14         62.6498
   545.28         62.5943
   545.42         62.6267
   545.56         62.7379
   545.70         62.9029
   545.84         63.0918
   545.98         63.2736
   546.12         63.4195
   546.26         63.5080
   546.40         63.5291
   546.54         63.4867
   546.68         63.3938
   546.82         63.2655
   546.96         63.1174
   547.10         62.9652
   547.24         62.8212
   547.38         62.6921
   547.52         62.5779
   547.66         62.4731
   547.80         62.3650
   547.94         62.2364
   548.08         62.0728
   548.22         61.8681
   548.36         61.6344
   548.50         61.3979
   548.64         61.1837
   548.78         61.0097
   548.92         60.8905
   549.06         60.8385
   549.20         60.8581
   549.34         60.9409
   549.48         61.0667
   549.62         61.2114
   549.76         61.3524
   549.90         61.4733
   550.04         61.5641
   550.18         61.6191
   550.32         61.6368
   550.46         61.6191
   550.60         61.5727
   550.74         61.5088
   550.88         61.4374
   551.02         61.3652
   551.16         61.2946
   551.30         61.2248
   551.44         61.1580
   551.58         61.1008
   551.72         61.0538
   551.86         61.0084
   552.00         60.9569
   552.14         60.8957
   552.28         60.8199
   552.42         60.7252
   552.56         60.6129
   552.70         60.4828
   552.84         60.3317
   552.98         60.1574
   553.12         59.9605
   553.26         59.7474
   553.40         59.5296
   553.54         59.3213
   553.68         59.1388
   553.82         59.0001
   553.96         58.9213
   554.10         58.9096
   554.24         58.9590
   554.38         59.0552
   554.52         59.1841
   554.66         59.3308
   554.80         59.4771
   554.94         59.6064
   555.08         59.7087
   555.22         59.7801
   555.36         59.8166
   555.50         59.8165
   555.64         59.7808
   555.78         59.7144
   555.92         59.6289
   556.06         59.5394
   556.20         59.4578
   556.34         59.3916
   556.48         59.3461
   556.62         59.3243
   556.76         59.3256
   556.90         59.3442
   557.04         59.3716
   557.18         59.3960
   557.32         59.4056
   557.46         59.3932
   557.60         59.3549
   557.74         59.2915
   557.88         59.2109
   558.02         59.1243
   558.16         59.0423
   558.30         58.9724
   558.44         58.9194
   558.58         58.8866
   558.72         58.8732
   558.86         58.8736
   559.00         58.8797
   559.14         58.8827
   559.28         58.8751
   559.42         58.8502
   559.56         58.8022
   559.70         58.7302
   559.84         58.6373
   559.98         58.5312
   560.12         58.4242
   560.26         58.3272
   560.40         58.2477
   560.54         58.1877
   560.68         58.1406
   560.82         58.0938
   560.96         58.0358
   561.10         57.9629
   561.24         57.8798
   561.38         57.7927
   561.52         57.7039
   561.66         57.6139
   561.80         57.5247
   561.94         57.4406
   562.08         57.3652
   562.22         57.3007
   562.36         57.2485
   562.50         57.2102
   562.64         57.1894
   562.78         57.1851
   562.92         57.1889
   563.06         57.1951
   563.20         57.2037
   563.34         57.2126
   563.48         57.2172
   563.62         57.2135
   563.76         57.1995
   563.90         57.1741
   564.04         57.1368
   564.18         57.0900
   564.32         57.0378
   564.46         56.9848
   564.60         56.9352
   564.74         56.8879
   564.88         56.8380
   565.02         56.7808
   565.16         56.7116
   565.30         56.6238
   565.44         56.5092
   565.58         56.3644
   565.72         56.1928
   565.86         55.9952
   566.00         55.7702
   566.14         55.5229
   566.28         55.2644
   566.42         55.0086
   566.56         54.7677
   566.70         54.5514
   566.84         54.3669
   566.98         54.2188
   567.12         54.1112
   567.26         54.0433
   567.40         54.0072
   567.54         53.9931
   567.68         53.9924
   567.82         53.9984
   567.96         54.0079
   568.10         54.0210
   568.24         54.0375
   568.38         54.0500
   568.52         54.0456
   568.66         54.0169
   568.80         53.9624
   568.94         53.8841
   569.08         53.7858
   569.22         53.6715
   569.36         53.5457
   569.50         53.4130
   569.64         53.2762
   569.78         53.1369
   569.92         52.9985
   570.06         52.8704
   570.20         52.7669
   570.34         52.6998
   570.48         52.6753
   570.62         52.6935
   570.76         52.7441
   570.90         52.8060
   571.04         52.8566
   571.18         52.8833
   571.32         52.8829
   571.46         52.8542
   571.60         52.7960
   571.74         52.7087
   571.88         52.5970
   572.02         52.4711
   572.16         52.3435
   572.30         52.2259
   572.44         52.1256
   572.58         52.0426
   572.72         51.9695
   572.86         51.8924
   573.00         51.8019
   573.14         51.7000
   573.28         51.5939
   573.42         51.4864
   573.56         51.3801
   573.70         51.2850
   573.84         51.2145
   573.98         51.1773
   574.12         51.1769
   574.26         51.2154
   574.40         51.2929
   574.54         51.4036
   574.68         51.5324
   574.82         51.6612
   574.96         51.7721
   575.10         51.8493
   575.24         51.8846
   575.38         51.8766
   575.52         51.8292
   575.66         51.7520
   575.80         51.6562
   575.94         51.5496
   576.08         51.4350
   576.22         51.3158
   576.36         51.2015
   576.50         51.0979
   576.64         50.9985
   576.78         50.8823
   576.92         50.7219
   577.06         50.4959
   577.20         50.1954
   577.34         49.8299
   577.48         49.4279
   577.62         49.0243
   577.76         48.6522
   577.90         48.3405
   578.04         48.1128
   578.18         47.9860
   578.32         47.9673
   578.46         48.0525
   578.60         48.2255
   578.74         48.4605
   578.88         48.7260
   579.02         48.9875
   579.16         49.2116
   579.30         49.3763
   579.44         49.4756
   579.58         49.5222
   579.72         49.5389
   579.86         49.5439
   580.00         49.5485
   580.14         49.5572
   580.28         49.5703
   580.42         49.5887
   580.56         49.6134
   580.70         49.6411
   580.84         49.6658
   580.98         49.6857
   581.12         49.7037
   581.26         49.7206
   581.40         49.7300
   581.54         49.7230
   581.68         49.6984
   581.82         49.6643
   581.96         49.6252
   582.10         49.5755
   582.24         49.5085
   582.38         49.4256
   582.52         49.3369
   582.66         49.2571
   582.80         49.2005
   582.94         49.1764
   583.08         49.1843
   583.22         49.2129
   583.36         49.2469
   583.50         49.2725
   583.64         49.2760
   583.78         49.2432
   583.92         49.1630
   584.06         49.0337
   584.20         48.8645
   584.34         48.6686
   584.48         48.4602
   584.62         48.2530
   584.76         48.0636
   584.90         47.9153
   585.04         47.8321
   585.18         47.8255
   585.32         47.8933
   585.46         48.0220
   585.60         48.1905
   585.74         48.3751
   585.88         48.5508
   586.02         48.6833
   586.16         48.7274
   586.30         48.6454
   586.44         48.4276
   586.58         48.0910
   586.72         47.6712
   586.86         47.2097
   587.00         46.7461
   587.14         46.3209
   587.28         45.9703
   587.42         45.7151
   587.56         45.5511
   587.70         45.4507
   587.84         45.3804
   587.98         45.3119
   588.12         45.2175
   588.26         45.0732
   588.40         44.8695
   588.54         44.6134
   588.68         44.3217
   588.82         44.0282
   588.96         43.7901
   589.10         43.6657
   589.24         43.6895
   589.38         43.8669
   589.52         44.1809
   589.66         44.6004
   589.80         45.0862
   589.94         45.5928
   590.08         46.0727
   590.22         46.4868
   590.36         46.8148
   590.50         47.0531
   590.64         47.1999
   590.78         47.2544
   590.92         47.2297
   591.06         47.1499
   591.20         47.0369
   591.34         46.9029
   591.48         46.7564
   591.62         46.6076
   591.76         46.4659
   591.90         46.3369
   592.04         46.2239
   592.18         46.1318
   592.32         46.0663
   592.46         46.0318
   592.60         46.0275
   592.74         46.0460
   592.88         46.0760
   593.02         46.1069
   593.16         46.1299
   593.30         46.1395
   593.44         46.1350
   593.58         46.1180
   593.72         46.0896
   593.86         46.0483
   594.00         45.9904
   594.14         45.9172
   594.28         45.8389
   594.42         45.7678
   594.56         45.7127
   594.70         45.6808
   594.84         45.6756
   594.98         45.6954
   595.12         45.7330
   595.26         45.7775
   595.40         45.8186
   595.54         45.8491
   595.68         45.8635
   595.82         45.8599
   595.96         45.8412
   596.10         45.8074
   596.24         45.7557
   596.38         45.6860
   596.52         45.5992
   596.66         45.4967
   596.80         45.3840
   596.94         45.2713
   597.08         45.1724
   597.22         45.0944
   597.36         45.0323
   597.50         44.9778
   597.64         44.9237
   597.78         44.8652
   597.92         44.8008
   598.06         44.7335
   598.20         44.6679
   598.34         44.6088
   598.48         44.5620
   598.62         44.5286
   598.76         44.5051
   598.90         44.4905
   599.04         44.4866
   599.18         44.4917
   599.32         44.5013
   599.46         44.5125
   599.60         44.5239
   599.74         44.5287
   599.88         44.5140
   600.02         44.4728
   600.16         44.4109
   600.30         44.3377
   600.44         44.2618
   600.58         44.1915
   600.72         44.1331
   600.86         44.0897
   601.00         44.0636
   601.14         44.0588
   601.28         44.0788
   601.42         44.1219
   601.56         44.1817
   601.70         44.2489
   601.84         44.3113
   601.98         44.3559
   602.12         44.3710
   602.26         44.3478
   602.40         44.2820
   602.54         44.1737
   602.68         44.0276
   602.82         43.8510
   602.96         43.6534
   603.10         43.4494
   603.24         43.2591
   603.38         43.1012
   603.52         42.9892
   603.66         42.9311
   603.80         42.9298
   603.94         42.9807
   604.08         43.0702
   604.22         43.1807
   604.36         43.2939
   604.50         43.3931
   604.64         43.4686
   604.78         43.5179
   604.92         43.5437
   605.06         43.5527
   605.20         43.5532
   605.34         43.5541
   605.48         43.5602
   605.62         43.5708
   605.76         43.5833
   605.90         43.5931
   606.04         43.5924
   606.18         43.5730
   606.32         43.5293
   606.46         43.4567
   606.60         43.3507
   606.74         43.2092
   606.88         43.0379
   607.02         42.8507
   607.16         42.6649
   607.30         42.4969
   607.44         42.3604
   607.58         42.2653
   607.72         42.2158
   607.86         42.2090
   608.00         42.2364
   608.14         42.2848
   608.28         42.3399
   608.42         42.3930
   608.56         42.4397
   608.70         42.4776
   608.84         42.5050
   608.98         42.5212
   609.12         42.5276
   609.26         42.5270
   609.40         42.5227
   609.54         42.5170
   609.68         42.5098
   609.82         42.5007
   609.96         42.4906
   610.10         42.4795
   610.24         42.4654
   610.38         42.4467
   610.52         42.4223
   610.66         42.3915
   610.80         42.3530
   610.94         42.3078
   611.08         42.2607
   611.22         42.2155
   611.36         42.1708
   611.50         42.1203
   611.64         42.0577
   611.78         41.9794
   611.92         41.8850
   612.06         41.7770
   612.20         41.6590
   612.34         41.5329
   612.48         41.4012
   612.62         41.2688
   612.76         41.1424
   612.90         41.0276
   613.04         40.9263
   613.18         40.8389
   613.32         40.7642
   613.46         40.7012
   613.60         40.6522
   613.74         40.6210
   613.88         40.6095
   614.02         40.6144
   614.16         40.6309
   614.30         40.6598
   614.44         40.7064
   614.58         40.7721
   614.72         40.8521
   614.86         40.9398
   615.00         41.0297
   615.14         41.1179
   615.28         41.1957
   615.42         41.2466
   615.56         41.2526
   615.70         41.2019
   615.84         41.0908
   615.98         40.9205
   616.12         40.6956
   616.26         40.4262
   616.40         40.1262
   616.54         39.8131
   616.68         39.5076
   616.82         39.2308
   616.96         39.0010
   617.10         38.8288
   617.24         38.7186
   617.38         38.6723
   617.52         38.6856
   617.66         38.7460
   617.80         38.8367
   617.94         38.9426
   618.08         39.0480
   618.22         39.1371
   618.36         39.1986
   618.50         39.2283
   618.64         39.2284
   618.78         39.2039
   618.92         39.1623
   619.06         39.1128
   619.20         39.0637
   619.34         39.0202
   619.48         38.9870
   619.62         38.9708
   619.76         38.9764
   619.90         39.0041
   620.04         39.0491
   620.18         39.0997
   620.32         39.1456
   620.46         39.1867
   620.60         39.2276
   620.74         39.2702
   620.88         39.3170
   621.02         39.3735
   621.16         39.4415
   621.30         39.5198
   621.44         39.6056
   621.58         39.6956
   621.72         39.7850
   621.86         39.8633
   622.00         39.9189
   622.14         39.9465
   622.28         39.9459
   622.42         39.9199
   622.56         39.8734
   622.70         39.8136
   622.84         39.7485
   622.98         39.6855
   623.12         39.6308
   623.26         39.5858
   623.40         39.5483
   623.54         39.5199
   623.68         39.5024
   623.82         39.4927
   623.96         39.4864
   624.10         39.4781
   624.24         39.4592
   624.38         39.4224
   624.52         39.3664
   624.66         39.2968
   624.80         39.2198
   624.94         39.1359
   625.08         39.0384
   625.22         38.9188
   625.36         38.7758
   625.50         38.6152
   625.64         38.4465
   625.78         38.2800
   625.92         38.1219
   626.06         37.9735
   626.20         37.8351
   626.34         37.7050
   626.48         37.5787
   626.62         37.4514
   626.76         37.3143
   626.90         37.1546
   627.04         36.9584
   627.18         36.7133
   627.32         36.4119
   627.46         36.0566
   627.60         35.6624
   627.74         35.2541
   627.88         34.8652
   628.02         34.5326
   628.16         34.2875
   628.30         34.1511
   628.44         34.1369
   628.58         34.2520
   628.72         34.4957
   628.86         34.8530
   629.00         35.2919
   629.14         35.7679
   629.28         36.2360
   629.42         36.6625
   629.56         37.0243
   629.70         37.3066
   629.84         37.5042
   629.98         37.6203
   630.12         37.6651
   630.26         37.6527
   630.40         37.5991
   630.54         37.5204
   630.68         37.4289
   630.82         37.3341
   630.96         37.2456
   631.10         37.1704
   631.24         37.1102
   631.38         37.0643
   631.52         37.0341
   631.66         37.0228
   631.80         37.0331
   631.94         37.0646
   632.08         37.1154
   632.22         37.1813
   632.36         37.2542
   632.50         37.3235
   632.64         37.3804
   632.78         37.4213
   632.92         37.4451
   633.06         37.4517
   633.20         37.4409
   633.34         37.4109
   633.48         37.3611
   633.62         37.2927
   633.76         37.2065
   633.90         37.1051
   634.04         36.9936
   634.18         36.8743
   634.32         36.7480
   634.46         36.6163
   634.60         36.4834
   634.74         36.3570
   634.88         36.2454
   635.02         36.1541
   635.16         36.0893
   635.30         36.0588
   635.44         36.0662
   635.58         36.1071
   635.72         36.1735
   635.86         36.2564
   636.00         36.3482
   636.14         36.4461
   636.28         36.5482
   636.42         36.6486
   636.56         36.7374
   636.70         36.8016
   636.84         36.8275
   636.98         36.8079
   637.12         36.7419
   637.26         36.6334
   637.40         36.4922
   637.54         36.3310
   637.68         36.1625
   637.82         35.9995
   637.96         35.8558
   638.10         35.7421
   638.24         35.6634
   638.38         35.6235
   638.52         35.6253
   638.66         35.6674
   638.80         35.7397
   638.94         35.8239
   639.08         35.9004
   639.22         35.9571
   639.36         35.9923
   639.50         36.0141
   639.64         36.0332
   639.78         36.0521
   639.92         36.0657
   640.06         36.0681
   640.20         36.0529
   640.34         36.0152
   640.48         35.9567
   640.62         35.8816
   640.76         35.7912
   640.90         35.6893
   641.04         35.5859
   641.18         35.4910
   641.32         35.4103
   641.46         35.3465
   641.60         35.3041
   641.74         35.2912
   641.88         35.3153
   642.02         35.3759
   642.16         35.4628
   642.30         35.5592
   642.44         35.6498
   642.58         35.7267
   642.72         35.7888
   642.86         35.8396
   643.00         35.8859
   643.14         35.9320
   643.28         35.9727
   643.42         35.9989
   643.56         36.0042
   643.70         35.9846
   643.84         35.9373
   643.98         35.8622
   644.12         35.7638
   644.26         35.6508
   644.40         35.5320
   644.54         35.4129
   644.68         35.2977
   644.82         35.1912
   644.96         35.0980
   645.10         35.0223
   645.24         34.9664
   645.38         34.9297
   645.52         34.9107
   645.66         34.9063
   645.80         34.9104
   645.94         34.9160
   646.08         34.9203
   646.22         34.9246
   646.36         34.9298
   646.50         34.9363
   646.64         34.9434
   646.78         34.9485
   646.92         34.9471
   647.06         34.9340
   647.20         34.9054
   647.34         34.8576
   647.48         34.7874
   647.62         34.6949
   647.76         34.5856
   647.90         34.4657
   648.04         34.3412
   648.18         34.2182
   648.32         34.1009
   648.46         33.9921
   648.60         33.8970
   648.74         33.8231
   648.88         33.7765
   649.02         33.7609
   649.16         33.7797
   649.30         33.8348
   649.44         33.9237
   649.58         34.0402
   649.72         34.1751
   649.86         34.3161
   650.00         34.4503
   650.14         34.5673
   650.28         34.6591
   650.42         34.7180
   650.56         34.7374
   650.70         34.7163
   650.84         34.6577
   650.98         34.5686
   651.12         34.4597
   651.26         34.3427
   651.40         34.2278
   651.54         34.1266
   651.68         34.0514
   651.82         34.0092
   651.96         33.9979
   652.10         34.0083
   652.24         34.0311
   652.38         34.0588
   652.52         34.0842
   652.66         34.1032
   652.80         34.1128
   652.94         34.1093
   653.08         34.0873
   653.22         34.0431
   653.36         33.9750
   653.50         33.8826
   653.64         33.7676
   653.78         33.6346
   653.92         33.4919
   654.06         33.3506
   654.20         33.2206
   654.34         33.1069
   654.48         33.0071
   654.62         32.9129
   654.76         32.8095
   654.90         32.6741
   655.04         32.4796
   655.18         32.2073
   655.32         31.8565
   655.46         31.4409
   655.60         30.9832
   655.74         30.5164
   655.88         30.0829
   656.02         29.7273
   656.16         29.4855
   656.30         29.3806
   656.44         29.4203
   656.58         29.5953
   656.72         29.8822
   656.86         30.2470
   657.00         30.6499
   657.14         31.0502
   657.28         31.4116
   657.42         31.7090
   657.56         31.9324
   657.70         32.0902
   657.84         32.2055
   657.98         32.3010
   658.12         32.3894
   658.26         32.4753
   658.40         32.5606
   658.54         32.6453
   658.68         32.7260
   658.82         32.7968
   658.96         32.8497
   659.10         32.8777
   659.24         32.8804
   659.38         32.8643
   659.52         32.8397
   659.66         32.8175
   659.80         32.8074
   659.94         32.8131
   660.08         32.8301
   660.22         32.8495
   660.36         32.8651
   660.50         32.8746
   660.64         32.8751
   660.78         32.8641
   660.92         32.8433
   661.06         32.8181
   661.20         32.7948
   661.34         32.7807
   661.48         32.7806
   661.62         32.7985
   661.76         32.8404
   661.90         32.9120
   662.04         33.0112
   662.18         33.1266
   662.32         33.2402
   662.46         33.3330
   662.60         33.3899
   662.74         33.4042
   662.88         33.3769
   663.02         33.3115
   663.16         33.2117
   663.30         33.0836
   663.44         32.9390
   663.58         32.7922
   663.72         32.6541
   663.86         32.5316
   664.00         32.4285
   664.14         32.3451
   664.28         32.2806
   664.42         32.2331
   664.56         32.1978
   664.70         32.1676
   664.84         32.1375
   664.98         32.1060
   665.12         32.0746
   665.26         32.0467
   665.40         32.0255
   665.54         32.0113
   665.68         32.0039
   665.82         32.0058
   665.96         32.0192
   666.10         32.0400
   666.24         32.0578
   666.38         32.0572
   666.52         32.0208
   666.66         31.9335
   666.80         31.7885
   666.94         31.5918
   667.08         31.3585
   667.22         31.1081
   667.36         30.8634
   667.50         30.6502
   667.64         30.4939
   667.78         30.4155
   667.92         30.4264
   668.06         30.5249
   668.20         30.6989
   668.34         30.9310
   668.48         31.1994
   668.62         31.4771
   668.76         31.7358
   668.90         31.9528
   669.04         32.1155
   669.18         32.2206
   669.32         32.2744
   669.46         32.2912
   669.60         32.2857
   669.74         32.2658
   669.88         32.2358
   670.02         32.2022
   670.16         32.1732
   670.30         32.1537
   670.44         32.1424
   670.58         32.1345
   670.72         32.1245
   670.86         32.1085
   671.00         32.0850
   671.14         32.0538
   671.28         32.0164
   671.42         31.9781
   671.56         31.9467
   671.70         31.9243
   671.84         31.9035
   671.98         31.8766
   672.12         31.8407
   672.26         31.7959
   672.40         31.7441
   672.54         31.6910
   672.68         31.6430
   672.82         31.6024
   672.96         31.5655
   673.10         31.5272
   673.24         31.4855
   673.38         31.4427
   673.52         31.4047
   673.66         31.3768
   673.80         31.3600
   673.94         31.3515
   674.08         31.3480
   674.22         31.3439
   674.36         31.3314
   674.50         31.3072
   674.64         31.2750
   674.78         31.2393
   674.92         31.2012
   675.06         31.1622
   675.20         31.1238
   675.34         31.0866
   675.48         31.0498
   675.62         31.0140
   675.76         30.9797
   675.90         30.9470
   676.04         30.9172
   676.18         30.8921
   676.32         30.8703
   676.46         30.8489
   676.60         30.8266
   676.74         30.8034
   676.88         30.7783
   677.02         30.7499
   677.16         30.7164
   677.30         30.6754
   677.44         30.6276
   677.58         30.5791
   677.72         30.5377
   677.86         30.5075
   678.00         30.4897
   678.14         30.4831
   678.28         30.4815
   678.42         30.4758
   678.56         30.4621
   678.70         30.4403
   678.84         30.4094
   678.98         30.3682
   679.12         30.3214
   679.26         30.2799
   679.40         30.2549
   679.54         30.2537
   679.68         30.2790
   679.82         30.3305
   679.96         30.4086
   680.10         30.5106
   680.24         30.6277
   680.38         30.7465
   680.52         30.8492
   680.66         30.9167
   680.80         30.9343
   680.94         30.8976
   681.08         30.8149
   681.22         30.7043
   681.36         30.5866
   681.50         30.4811
   681.64         30.4030
   681.78         30.3606
   681.92         30.3520
   682.06         30.3673
   682.20         30.3959
   682.34         30.4287
   682.48         30.4572
   682.62         30.4734
   682.76         30.4704
   682.90         30.4448
   683.04         30.3950
   683.18         30.3226
   683.32         30.2354
   683.46         30.1484
   683.60         30.0752
   683.74         30.0227
   683.88         29.9920
   684.02         29.9783
   684.16         29.9721
   684.30         29.9633
   684.44         29.9451
   684.58         29.9156
   684.72         29.8762
   684.86         29.8282
   685.00         29.7707
   685.14         29.7030
   685.28         29.6273
   685.42         29.5422
   685.56         29.4328
   685.70         29.2702
   685.84         29.0244
   685.98         28.6745
   686.12         28.2104
   686.26         27.6340
   686.40         26.9620
   686.54         26.2258
   686.68         25.4689
   686.82         24.7437
   686.96         24.1084
   687.10         23.6178
   687.24         23.3118
   687.38         23.2089
   687.52         23.3063
   687.66         23.5805
   687.80         23.9902
   687.94         24.4811
   688.08         24.9903
   688.22         25.4573
   688.36         25.8409
   688.50         26.1266
   688.64         26.3198
   688.78         26.4355
   688.92         26.4906
   689.06         26.5032
   689.20         26.4923
   689.34         26.4754
   689.48         26.4659
   689.62         26.4697
   689.76         26.4842
   689.90         26.5056
   690.04         26.5355
   690.18         26.5776
   690.32         26.6342
   690.46         26.7083
   690.60         26.8033
   690.74         26.9192
   690.88         27.0542
   691.02         27.2076
   691.16         27.3752
   691.30         27.5469
   691.44         27.7100
   691.58         27.8511
   691.72         27.9610
   691.86         28.0356
   692.00         28.0767
   692.14         28.0910
   692.28         28.0858
   692.42         28.0693
   692.56         28.0514
   692.70         28.0379
   692.84         28.0284
   692.98         28.0223
   693.12         28.0209
   693.26         28.0240
   693.40         28.0303
   693.54         28.0393
   693.68         28.0509
   693.82         28.0642
   693.96         28.0801
   694.10         28.1008
   694.24         28.1273
   694.38         28.1593
   694.52         28.1978
   694.66         28.2427
   694.80         28.2909
   694.94         28.3368
   695.08         28.3759
   695.22         28.4073
   695.36         28.4335
   695.50         28.4584
   695.64         28.4863
   695.78         28.5213
   695.92         28.5677
   696.06         28.6285
   696.20         28.7057
   696.34         28.8004
   696.48         28.9107
   696.62         29.0295
   696.76         29.1458
   696.90         29.2478
   697.04         29.3245
   697.18         29.3718
   697.32         29.3951
   697.46         29.4028
   697.60         29.3991
   697.74         29.3858
   697.88         29.3662
   698.02         29.3452
   698.16         29.3265
   698.30         29.3140
   698.44         29.3114
   698.58         29.3167
   698.72         29.3217
   698.86         29.3173
   699.00         29.2962
   699.14         29.2525
   699.28         29.1832
   699.42         29.0896
   699.56         28.9766
   699.70         28.8543
   699.84         28.7383
   699.98         28.6421
   700.12         28.5724
   700.26         28.5334
   700.40         28.5302
   700.54         28.5659
   700.68         28.6376
   700.82         28.7369
   700.96         28.8510
   701.10         28.9619
   701.24         29.0497
   701.38         29.0986
   701.52         29.0993
   701.66         29.0479
   701.80         28.9464
   701.94         28.8022
   702.08         28.6260
   702.22         28.4321
   702.36         28.2393
   702.50         28.0677
   702.64         27.9329
   702.78         27.8429
   702.92         27.7982
   703.06         27.7949
   703.20         27.8276
   703.34         27.8898
   703.48         27.9734
   703.62         28.0693
   703.76         28.1669
   703.90         28.2559
   704.04         28.3279
   704.18         28.3789
   704.32         28.4096
   704.46         28.4241
   704.60         28.4267
   704.74         28.4198
   704.88         28.4062
   705.02         28.3857
   705.16         28.3495
   705.30         28.2812
   705.44         28.1673
   705.58         28.0050
   705.72         27.8023
   705.86         27.5765
   706.00         27.3498
   706.14         27.1432
   706.28         26.9738
   706.42         26.8544
   706.56         26.7945
   706.70         26.7972
   706.84         26.8582
   706.98         26.9675
   707.12         27.1120
   707.26         27.2746
   707.40         27.4342
   707.54         27.5713
   707.68         27.6693
   707.82         27.7157
   707.96         27.7108
   708.10         27.6703
   708.24         27.6161
   708.38         27.5674
   708.52         27.5390
   708.66         27.5369
   708.80         27.5584
   708.94         27.5999
   709.08         27.6615
   709.22         27.7438
   709.36         27.8458
   709.50         27.9627
   709.64         28.0863
   709.78         28.2058
   709.92         28.3103
   710.06         28.3932
   710.20         28.4543
   710.34         28.4951
   710.48         28.5202
   710.62         28.5394
   710.76         28.5597
   710.90         28.5820
   711.04         28.6059
   711.18         28.6284
   711.32         28.6417
   711.46         28.6407
   711.60         28.6297
   711.74         28.6165
   711.88         28.6062
   712.02         28.5992
   712.16         28.5905
   712.30         28.5763
   712.44         28.5578
   712.58         28.5400
   712.72         28.5289
   712.86         28.5272
   713.00         28.5343
   713.14         28.5484
   713.28         28.5658
   713.42         28.5815
   713.56         28.5927
   713.70         28.5960
   713.84         28.5825
   713.98         28.5458
   714.12         28.4867
   714.26         28.4105
   714.40         28.3205
   714.54         28.2189
   714.68         28.1083
   714.82         27.9920
   714.96         27.8767
   715.10         27.7740
   715.24         27.6937
   715.38         27.6379
   715.52         27.6025
   715.66         27.5829
   715.80         27.5752
   715.94         27.5709
   716.08         27.5567
   716.22         27.5203
   716.36         27.4523
   716.50         27.3471
   716.64         27.2071
   716.78         27.0396
   716.92         26.8526
   717.06         26.6520
   717.20         26.4410
   717.34         26.2217
   717.48         25.9969
   717.62         25.7748
   717.76         25.5650
   717.90         25.3690
   718.04         25.1830
   718.18         25.0067
   718.32         24.8462
   718.46         24.7085
   718.60         24.5982
   718.74         24.5177
   718.88         24.4681
   719.02         24.4488
   719.16         24.4587
   719.30         24.4970
   719.44         24.5616
   719.58         24.6511
   719.72         24.7670
   719.86         24.9152
   720.00         25.1035
   720.14         25.3333
   720.28         25.5975
   720.42         25.8831
   720.56         26.1773
   720.70         26.4720
   720.84         26.7615
   720.98         27.0338
   721.12         27.2708
   721.26         27.4568
   721.40         27.5825
   721.54         27.6437
   721.68         27.6427
   721.82         27.5839
   721.96         27.4699
   722.10         27.3044
   722.24         27.0929
   722.38         26.8423
   722.52         26.5614
   722.66         26.2600
   722.80         25.9476
   722.94         25.6385
   723.08         25.3535
   723.22         25.1129
   723.36         24.9287
   723.50         24.8046
   723.64         24.7407
   723.78         24.7366
   723.92         24.7873
   724.06         24.8792
   724.20         24.9948
   724.34         25.1187
   724.48         25.2389
   724.62         25.3474
   724.76         25.4450
   724.90         25.5387
   725.04         25.6340
   725.18         25.7311
   725.32         25.8236
   725.46         25.9020
   725.60         25.9584
   725.74         25.9894
   725.88         25.9978
   726.02         25.9863
   726.16         25.9534
   726.30         25.8968
   726.44         25.8153
   726.58         25.7085
   726.72         25.5785
   726.86         25.4293
   727.00         25.2679
   727.14         25.1051
   727.28         24.9550
   727.42         24.8309
   727.56         24.7385
   727.70         24.6736
   727.84         24.6281
   727.98         24.5954
   728.12         24.5743
   728.26         24.5665
   728.40         24.5724
   728.54         24.5888
   728.68         24.6052
   728.82         24.6135
   728.96         24.6152
   729.10         24.6144
   729.24         24.6113
   729.38         24.6056
   729.52         24.6012
   729.66         24.6026
   729.80         24.6097
   729.94         24.6170
   730.08         24.6165
   730.22         24.6012
   730.36         24.5709
   730.50         24.5299
   730.64         24.4836
   730.78         24.4389
   730.92         24.4060
   731.06         24.3943
   731.20         24.4083
   731.34         24.4467
   731.48         24.5072
   731.62         24.5869
   731.76         24.6801
   731.90         24.7810
   732.04         24.8850
   732.18         24.9858
   732.32         25.0736
   732.46         25.1395
   732.60         25.1765
   732.74         25.1788
   732.88         25.1431
   733.02         25.0704
   733.16         24.9649
   733.30         24.8365
   733.44         24.7023
   733.58         24.5776
   733.72         24.4686
   733.86         24.3758
   734.00         24.3016
   734.14         24.2519
   734.28         24.2309
   734.42         24.2345
   734.56         24.2515
   734.70         24.2704
   734.84         24.2834
   734.98         24.2876
   735.12         24.2821
   735.26         24.2650
   735.40         24.2353
   735.54         24.1953
   735.68         24.1488
   735.82         24.0964
   735.96         24.0353
   736.10         23.9645
   736.24         23.8868
   736.38         23.8098
   736.52         23.7433
   736.66         23.6936
   736.80         23.6652
   736.94         23.6621
   737.08         23.6864
   737.22         23.7365
   737.36         23.8078
   737.50         23.8939
   737.64         23.9841
   737.78         24.0647
   737.92         24.1217
   738.06         24.1447
   738.20         24.1287
   738.34         24.0742
   738.48         23.9855
   738.62         23.8728
   738.76         23.7493
   738.90         23.6266
   739.04         23.5153
   739.18         23.4236
   739.32         23.3553
   739.46         23.3144
   739.60         23.3017
   739.74         23.3111
   739.88         23.3333
   740.02         23.3611
   740.16         23.3916
   740.30         23.4224
   740.44         23.4513
   740.58         23.4775
   740.72         23.5015
   740.86         23.5225
   741.00         23.5386
   741.14         23.5477
   741.28         23.5458
   741.42         23.5279
   741.56         23.4886
   741.70         23.4238
   741.84         23.3313
   741.98         23.2124
   742.12         23.0752
   742.26         22.9323
   742.40         22.7966
   742.54         22.6819
   742.68         22.6002
   742.82         22.5585
   742.96         22.5585
   743.10         22.6002
   743.24         22.6819
   743.38         22.7966
   743.52         22.9323
   743.66         23.0752
   743.80         23.2124
   743.94         23.3313
   744.08         23.4238
   744.22         23.4886
