# File BD-145030
# Wavelength [nm]    Normalized Amplitude
   349.70         538.0843
   349.84         535.3583
   349.98         531.1839
   350.12         525.7715
   350.26         519.5493
   350.40         513.0074
   350.54         506.5891
   350.68         500.8235
   350.82         496.2948
   350.96         493.4266
   351.10         492.4443
   351.24         493.4266
   351.38         496.2948
   351.52         500.8235
   351.66         506.5891
   351.80         513.0074
   351.94         519.5493
   352.08         525.7715
   352.22         531.1839
   352.36         535.3583
   352.50         538.0843
   352.64         539.3085
   352.78         539.1268
   352.92         537.7061
   353.06         535.2100
   353.20         532.0125
   353.34         528.6881
   353.48         525.7422
   353.62         523.4678
   353.76         521.9649
   353.90         521.2046
   354.04         521.0159
   354.18         521.1292
   354.32         521.3409
   354.46         521.6712
   354.60         522.3161
   354.74         523.4662
   354.88         525.1480
   355.02         527.2210
   355.16         529.6104
   355.30         532.3384
   355.44         535.3069
   355.58         538.2610
   355.72         540.9879
   355.86         543.2855
   356.00         544.7790
   356.14         545.1720
   356.28         544.4480
   356.42         542.7573
   356.56         540.3899
   356.70         537.6727
   356.84         534.8176
   356.98         531.9892
   357.12         529.3960
   357.26         527.2254
   357.40         525.5043
   357.54         524.1019
   357.68         522.9613
   357.82         522.1493
   357.96         521.5542
   358.10         520.8344
   358.24         519.7414
   358.38         518.2709
   358.52         516.5760
   358.66         514.9032
   358.80         513.4980
   358.94         512.4000
   359.08         511.5170
   359.22         510.9194
   359.36         510.6785
   359.50         510.6072
   359.64         510.4521
   359.78         510.0795
   359.92         509.4078
   360.06         508.3590
   360.20         506.9895
   360.34         505.4999
   360.48         504.0431
   360.62         502.7450
   360.76         501.8273
   360.90         501.5145
   361.04         501.8397
   361.18         502.5631
   361.32         503.3029
   361.46         503.7061
   361.60         503.5542
   361.74         502.7925
   361.88         501.3758
   362.02         499.1575
   362.16         496.0599
   362.30         492.2686
   362.44         488.2129
   362.58         484.4079
   362.72         481.2857
   362.86         479.1088
   363.00         477.9500
   363.14         477.8283
   363.28         478.7395
   363.42         480.5109
   363.56         482.9354
   363.70         485.9408
   363.84         489.4779
   363.98         493.4716
   364.12         497.8099
   364.26         502.2327
   364.40         506.3232
   364.54         509.6711
   364.68         512.0493
   364.82         513.3525
   364.96         513.5284
   365.10         512.6445
   365.24         510.8234
   365.38         508.1393
   365.52         504.7444
   365.66         501.0068
   365.80         497.3604
   365.94         494.0444
   366.08         491.1658
   366.22         488.8526
   366.36         487.1177
   366.50         485.7870
   366.64         484.6759
   366.78         483.6819
   366.92         482.7309
   367.06         481.7662
   367.20         480.8144
   367.34         479.9975
   367.48         479.4494
   367.62         479.3048
   367.76         479.6973
   367.90         480.6433
   368.04         482.0523
   368.18         483.9538
   368.32         486.5005
   368.46         489.5872
   368.60         492.7867
   368.74         495.6944
   368.88         498.0887
   369.02         499.9291
   369.16         501.1801
   369.30         501.6507
   369.44         501.2022
   369.58         499.9475
   369.72         498.1485
   369.86         496.0354
   370.00         493.7415
   370.14         491.4207
   370.28         489.3478
   370.42         487.8536
   370.56         487.2831
   370.70         487.9097
   370.84         489.8003
   370.98         492.6920
   371.12         496.0343
   371.26         499.4767
   371.40         503.1441
   371.54         507.3637
   371.68         512.3367
   371.82         517.9665
   371.96         523.9626
   372.10         529.9236
   372.24         535.2324
   372.38         539.1830
   372.52         541.2857
   372.66         541.5145
   372.80         540.3465
   372.94         538.4489
   373.08         536.4168
   373.22         534.7812
   373.36         533.9278
   373.50         534.0291
   373.64         535.0909
   373.78         536.9471
   373.92         539.2640
   374.06         541.6269
   374.20         543.6760
   374.34         545.0954
   374.48         545.6128
   374.62         545.1622
   374.76         544.0130
   374.90         542.8127
   375.04         542.3381
   375.18         543.1093
   375.32         545.3800
   375.46         549.1581
   375.60         554.0494
   375.74         559.2286
   375.88         563.5579
   376.02         565.8696
   376.16         565.3712
   376.30         561.9705
   376.44         556.2172
   376.58         549.1083
   376.72         541.9788
   376.86         536.0951
   377.00         532.2894
   377.14         531.0424
   377.28         532.6113
   377.42         537.0064
   377.56         543.9395
   377.70         552.7947
   377.84         562.7800
   377.98         573.0974
   378.12         582.8588
   378.26         591.0869
   378.40         596.8968
   378.54         599.6593
   378.68         599.1275
   378.82         595.4682
   378.96         589.1786
   379.10         580.9380
   379.24         571.5484
   379.38         561.9292
   379.52         553.0111
   379.66         545.6727
   379.80         540.7520
   379.94         538.8925
   380.08         540.3132
   380.22         544.7750
   380.36         551.6849
   380.50         560.2038
   380.64         569.2894
   380.78         577.7933
   380.92         584.6762
   381.06         589.2275
   381.20         591.2594
   381.34         591.0892
   381.48         589.2883
   381.62         586.4299
   381.76         582.9163
   381.90         578.9409
   382.04         574.5197
   382.18         569.4797
   382.32         563.4956
   382.46         556.2988
   382.60         547.9075
   382.74         538.6589
   382.88         529.1212
   383.02         519.9842
   383.16         511.9695
   383.30         505.8143
   383.44         502.2147
   383.58         501.7353
   383.72         504.6878
   383.86         510.9564
   384.00         519.9131
   384.14         530.5620
   384.28         541.7877
   384.42         552.5406
   384.56         561.9712
   384.70         569.4445
   384.84         574.5617
   384.98         577.2795
   385.12         577.9231
   385.26         577.0338
   385.40         575.1292
   385.54         572.5623
   385.68         569.6166
   385.82         566.6286
   385.96         563.9295
   386.10         561.7464
   386.24         560.2287
   386.38         559.4309
   386.52         559.2773
   386.66         559.6328
   386.80         560.3634
   386.94         561.3403
   387.08         562.3909
   387.22         563.2297
   387.36         563.4026
   387.50         562.2991
   387.64         559.3192
   387.78         554.0882
   387.92         546.6085
   388.06         537.3299
   388.20         527.0860
   388.34         516.9526
   388.48         508.0217
   388.62         501.2299
   388.76         497.3031
   388.90         496.6510
   389.04         499.3361
   389.18         505.0915
   389.32         513.2900
   389.46         523.0334
   389.60         533.3254
   389.74         543.1835
   389.88         551.6920
   390.02         558.1876
   390.16         562.4612
   390.30         564.7421
   390.44         565.5215
   390.58         565.3243
   390.72         564.6118
   390.86         563.6926
   391.00         562.6109
   391.14         561.2367
   391.28         559.3946
   391.42         556.8992
   391.56         553.6790
   391.70         549.9000
   391.84         545.8363
   391.98         541.6189
   392.12         537.2344
   392.26         532.7345
   392.40         528.3075
   392.54         524.2242
   392.68         520.8740
   392.82         518.6184
   392.96         517.6000
   393.10         517.8208
   393.24         519.2201
   393.38         521.7076
   393.52         525.0920
   393.66         529.0423
   393.80         533.2096
   393.94         537.2977
   394.08         541.0618
   394.22         544.2807
   394.36         546.7247
   394.50         548.1068
   394.64         548.1693
   394.78         546.9477
   394.92         544.7613
   395.06         541.9090
   395.20         538.4875
   395.34         534.4139
   395.48         529.4053
   395.62         522.9785
   395.76         514.6490
   395.90         504.2270
   396.04         492.0144
   396.18         478.7871
   396.32         465.6410
   396.46         453.7642
   396.60         444.2091
   396.74         437.7772
   396.88         434.9864
   397.02         436.0046
   397.16         440.5589
   397.30         448.0280
   397.44         457.5832
   397.58         468.2586
   397.72         479.0786
   397.86         489.1509
   398.00         497.7078
   398.14         504.2078
   398.28         508.4644
   398.42         510.7245
   398.56         511.5670
   398.70         511.5929
   398.84         511.2073
   398.98         510.5928
   399.12         509.7367
   399.26         508.5209
   399.40         506.8499
   399.54         504.7105
   399.68         502.1388
   399.82         499.2184
   399.96         496.1209
   400.10         493.0837
   400.24         490.3541
   400.38         488.1399
   400.52         486.5931
   400.66         485.7933
   400.80         485.7181
   400.94         486.2737
   401.08         487.2763
   401.22         488.3881
   401.36         489.1690
   401.50         489.2198
   401.64         488.3257
   401.78         486.5198
   401.92         484.0370
   402.06         481.2327
   402.20         478.5128
   402.34         476.2556
   402.48         474.7988
   402.62         474.4180
   402.76         475.2244
   402.90         477.0984
   403.04         479.7275
   403.18         482.7280
   403.32         485.7195
   403.46         488.3828
   403.60         490.4987
   403.74         491.8901
   403.88         492.4822
   404.02         492.4073
   404.16         491.9379
   404.30         491.3706
   404.44         490.8788
   404.58         490.4457
   404.72         489.9652
   404.86         489.3550
   405.00         488.5598
   405.14         487.4943
   405.28         486.0901
   405.42         484.4047
   405.56         482.5857
   405.70         480.7897
   405.84         479.1718
   405.98         477.8607
   406.12         476.8982
   406.26         476.1752
   406.40         475.5026
   406.54         474.7436
   406.68         473.7868
   406.82         472.5092
   406.96         470.8218
   407.10         468.7055
   407.24         466.2387
   407.38         463.5490
   407.52         460.7707
   407.66         458.0772
   407.80         455.6629
   407.94         453.6766
   408.08         452.1500
   408.22         450.9731
   408.36         449.9760
   408.50         448.9624
   408.64         447.6500
   408.78         445.6189
   408.92         442.3672
   409.06         437.5692
   409.20         431.2406
   409.34         423.6841
   409.48         415.4670
   409.62         407.3687
   409.76         400.2435
   409.90         394.8591
   410.04         391.7607
   410.18         391.2853
   410.32         393.5243
   410.46         398.1778
   410.60         404.6065
   410.74         412.0593
   410.88         419.7775
   411.02         426.9882
   411.16         432.9691
   411.30         437.2082
   411.44         439.4980
   411.58         439.9260
   411.72         438.8513
   411.86         436.7766
   412.00         434.2208
   412.14         431.6574
   412.28         429.4244
   412.42         427.6825
   412.56         426.4125
   412.70         425.5123
   412.84         424.9221
   412.98         424.5324
   413.12         424.1427
   413.26         423.5944
   413.40         422.8323
   413.54         421.8896
   413.68         420.8747
   413.82         419.9512
   413.96         419.2928
   414.10         419.0071
   414.24         419.1634
   414.38         419.8413
   414.52         421.0517
   414.66         422.6989
   414.80         424.5890
   414.94         426.4500
   415.08         427.9954
   415.22         428.9742
   415.36         429.2466
   415.50         428.8067
   415.64         427.7050
   415.78         426.0465
   415.92         424.0437
   416.06         421.9787
   416.20         420.1111
   416.34         418.6222
   416.48         417.6073
   416.62         417.0596
   416.76         416.8798
   416.90         416.9638
   417.04         417.1959
   417.18         417.4202
   417.32         417.5463
   417.46         417.5665
   417.60         417.4249
   417.74         417.0216
   417.88         416.3468
   418.02         415.5054
   418.16         414.6337
   418.30         413.8296
   418.44         413.1743
   418.58         412.7491
   418.72         412.6050
   418.86         412.7530
   419.00         413.1548
   419.14         413.7125
   419.28         414.2760
   419.42         414.7188
   419.56         415.0054
   419.70         415.1287
   419.84         415.0764
   419.98         414.8570
   420.12         414.4752
   420.26         413.9498
   420.40         413.3933
   420.54         412.9574
   420.68         412.6986
   420.82         412.5748
   420.96         412.4954
   421.10         412.3263
   421.24         411.9486
   421.38         411.3662
   421.52         410.6530
   421.66         409.8600
   421.80         409.0212
   421.94         408.1471
   422.08         407.2529
   422.22         406.3759
   422.36         405.5212
   422.50         404.6603
   422.64         403.7722
   422.78         402.8695
   422.92         401.9942
   423.06         401.1716
   423.20         400.4030
   423.34         399.7057
   423.48         399.1024
   423.62         398.5883
   423.76         398.1611
   423.90         397.8718
   424.04         397.7857
   424.18         397.8860
   424.32         398.0948
   424.46         398.3423
   424.60         398.5913
   424.74         398.8539
   424.88         399.1653
   425.02         399.5244
   425.16         399.8921
   425.30         400.2241
   425.44         400.4625
   425.58         400.5227
   425.72         400.3301
   425.86         399.8700
   426.00         399.1584
   426.14         398.1880
   426.28         396.9412
   426.42         395.4274
   426.56         393.7095
   426.70         391.8996
   426.84         390.1294
   426.98         388.5249
   427.12         387.1754
   427.26         386.1419
   427.40         385.4779
   427.54         385.2017
   427.68         385.2939
   427.82         385.7348
   427.96         386.4878
   428.10         387.4636
   428.24         388.5489
   428.38         389.6861
   428.52         390.8654
   428.66         392.0351
   428.80         393.1103
   428.94         394.0109
   429.08         394.6771
   429.22         395.0886
   429.36         395.2273
   429.50         395.0528
   429.64         394.5207
   429.78         393.6069
   429.92         392.3637
   430.06         390.9312
   430.20         389.4589
   430.34         388.0641
   430.48         386.8199
   430.62         385.7374
   430.76         384.8038
   430.90         384.0276
   431.04         383.4300
   431.18         382.9842
   431.32         382.6478
   431.46         382.4201
   431.60         382.2839
   431.74         382.2185
   431.88         382.2208
   432.02         382.2570
   432.16         382.2749
   432.30         382.2197
   432.44         381.9917
   432.58         381.3889
   432.72         380.0775
   432.86         377.6441
   433.00         373.7615
   433.14         368.3706
   433.28         361.7318
   433.42         354.3370
   433.56         346.7884
   433.70         339.7280
   433.84         333.7930
   433.98         329.5355
   434.12         327.2756
   434.26         327.1123
   434.40         329.0466
   434.54         332.9171
   434.68         338.3370
   434.82         344.7737
   434.96         351.6276
   435.10         358.2810
   435.24         364.1730
   435.38         368.9275
   435.52         372.4521
   435.66         374.8923
   435.80         376.4952
   435.94         377.4826
   436.08         378.0101
   436.22         378.1916
   436.36         378.1043
   436.50         377.8205
   436.64         377.4179
   436.78         376.9723
   436.92         376.5898
   437.06         376.3121
   437.20         376.0422
   437.34         375.6510
   437.48         375.0238
   437.62         374.0221
   437.76         372.5138
   437.90         370.4560
   438.04         367.9409
   438.18         365.1517
   438.32         362.2826
   438.46         359.5248
   438.60         357.0878
   438.74         355.1863
   438.88         353.9617
   439.02         353.4428
   439.16         353.6080
   439.30         354.3882
   439.44         355.6154
   439.58         357.0462
   439.72         358.4426
   439.86         359.6476
   440.00         360.5585
   440.14         361.1093
   440.28         361.2972
   440.42         361.1639
   440.56         360.7573
   440.70         360.0810
   440.84         359.0929
   440.98         357.7370
   441.12         355.9663
   441.26         353.7728
   441.40         351.1834
   441.54         348.2238
   441.68         344.9419
   441.82         341.4481
   441.96         337.8810
   442.10         334.3662
   442.24         331.0544
   442.38         328.1394
   442.52         325.7745
   442.66         324.0323
   442.80         322.9493
   442.94         322.5502
   443.08         322.8766
   443.22         323.9651
   443.36         325.7824
   443.50         328.2091
   443.64         331.0382
   443.78         334.0529
   443.92         337.0874
   444.06         339.9744
   444.20         342.5252
   444.34         344.5982
   444.48         346.1581
   444.62         347.2247
   444.76         347.8355
   444.90         348.1032
   445.04         348.1941
   445.18         348.2562
   445.32         348.3867
   445.46         348.6012
   445.60         348.8457
   445.74         348.9651
   445.88         348.6619
   446.02         347.6546
   446.16         345.8634
   446.30         343.4047
   446.44         340.5077
   446.58         337.4184
   446.72         334.3461
   446.86         331.4827
   447.00         329.0338
   447.14         327.2037
   447.28         326.1483
   447.42         325.9833
   447.56         326.7523
   447.70         328.3720
   447.84         330.6620
   447.98         333.3604
   448.12         336.1602
   448.26         338.8072
   448.40         341.1381
   448.54         343.1002
   448.68         344.7524
   448.82         346.1530
   448.96         347.2800
   449.10         348.0874
   449.24         348.5525
   449.38         348.6828
   449.52         348.5629
   449.66         348.3606
   449.80         348.2301
   449.94         348.2325
   450.08         348.3289
   450.22         348.4271
   450.36         348.4761
   450.50         348.4734
   450.64         348.4088
   450.78         348.2610
   450.92         348.0118
   451.06         347.6560
   451.20         347.2027
   451.34         346.6559
   451.48         346.0214
   451.62         345.3353
   451.76         344.6390
   451.90         343.9450
   452.04         343.2311
   452.18         342.4521
   452.32         341.5781
   452.46         340.6054
   452.60         339.5684
   452.74         338.5611
   452.88         337.6873
   453.02         337.0123
   453.16         336.5842
   453.30         336.4327
   453.44         336.5354
   453.58         336.8280
   453.72         337.2116
   453.86         337.5505
   454.00         337.7092
   454.14         337.6086
   454.28         337.2772
   454.42         336.8415
   454.56         336.4274
   454.70         336.1186
   454.84         336.0319
   454.98         336.2849
   455.12         336.8800
   455.26         337.7306
   455.40         338.7057
   455.54         339.6128
   455.68         340.2545
   455.82         340.4973
   455.96         340.2432
   456.10         339.4161
   456.24         338.0151
   456.38         336.1278
   456.52         333.9206
   456.66         331.6120
   456.80         329.4193
   456.94         327.5442
   457.08         326.1323
   457.22         325.2110
   457.36         324.7528
   457.50         324.7244
   457.64         325.0122
   457.78         325.4454
   457.92         325.9011
   458.06         326.3143
   458.20         326.6314
   458.34         326.7991
   458.48         326.8020
   458.62         326.6522
   458.76         326.3521
   458.90         325.9136
   459.04         325.3850
   459.18         324.8198
   459.32         324.2457
   459.46         323.6658
   459.60         323.0668
   459.74         322.4172
   459.88         321.6548
   460.02         320.7385
   460.16         319.7017
   460.30         318.6451
   460.44         317.7036
   460.58         316.9883
   460.72         316.5446
   460.86         316.3583
   461.00         316.4287
   461.14         316.8022
   461.28         317.4811
   461.42         318.4044
   461.56         319.4682
   461.70         320.5021
   461.84         321.3064
   461.98         321.7370
   462.12         321.7594
   462.26         321.4434
   462.40         320.9167
   462.54         320.2958
   462.68         319.6748
   462.82         319.1375
   462.96         318.7405
   463.10         318.5103
   463.24         318.4587
   463.38         318.5957
   463.52         318.9201
   463.66         319.3979
   463.80         319.9571
   463.94         320.5066
   464.08         320.9566
   464.22         321.2280
   464.36         321.3151
   464.50         321.3036
   464.64         321.2660
   464.78         321.2144
   464.92         321.1496
   465.06         321.1000
   465.20         321.0855
   465.34         321.0762
   465.48         321.0691
   465.62         321.1726
   465.76         321.5130
   465.90         322.1020
   466.04         322.8719
   466.18         323.7371
   466.32         324.6150
   466.46         325.4251
   466.60         326.0754
   466.74         326.4766
   466.88         326.5741
   467.02         326.3925
   467.16         326.0005
   467.30         325.4616
   467.44         324.8669
   467.58         324.3526
   467.72         324.0566
   467.86         324.0382
   468.00         324.2778
   468.14         324.7451
   468.28         325.3669
   468.42         325.9639
   468.56         326.3366
   468.70         326.3790
   468.84         326.0295
   468.98         325.2581
   469.12         324.1249
   469.26         322.7451
   469.40         321.2307
   469.54         319.6759
   469.68         318.1633
   469.82         316.7404
   469.96         315.3968
   470.10         314.1122
   470.24         312.8856
   470.38         311.7156
   470.52         310.5777
   470.66         309.4225
   470.80         308.2303
   470.94         307.0393
   471.08         305.8942
   471.22         304.8257
   471.36         303.8288
   471.50         302.8497
   471.64         301.8652
   471.78         300.9255
   471.92         300.0881
   472.06         299.3937
   472.20         298.8928
   472.34         298.6366
   472.48         298.6526
   472.62         298.9390
   472.76         299.4863
   472.90         300.2543
   473.04         301.1582
   473.18         302.0972
   473.32         302.9543
   473.46         303.6382
   473.60         304.1023
   473.74         304.3153
   473.88         304.2796
   474.02         304.0243
   474.16         303.5823
   474.30         302.9956
   474.44         302.3123
   474.58         301.5744
   474.72         300.8177
   474.86         300.0586
   475.00         299.2670
   475.14         298.3955
   475.28         297.4400
   475.42         296.4358
   475.56         295.4246
   475.70         294.4615
   475.84         293.6184
   475.98         292.9665
   476.12         292.5580
   476.26         292.4001
   476.40         292.4504
   476.54         292.6531
   476.68         292.9583
   476.82         293.3099
   476.96         293.6720
   477.10         294.0560
   477.24         294.4905
   477.38         294.9612
   477.52         295.3902
   477.66         295.7215
   477.80         295.9954
   477.94         296.3087
   478.08         296.7356
   478.22         297.3123
   478.36         298.0416
   478.50         298.8947
   478.64         299.8177
   478.78         300.7109
   478.92         301.4537
   479.06         301.9549
   479.20         302.1500
   479.34         301.9982
   479.48         301.4985
   479.62         300.6978
   479.76         299.6676
   479.90         298.4676
   480.04         297.1312
   480.18         295.6699
   480.32         294.0909
   480.46         292.4206
   480.60         290.7100
   480.74         289.0063
   480.88         287.3262
   481.02         285.6678
   481.16         284.0742
   481.30         282.6541
   481.44         281.5306
   481.58         280.7848
   481.72         280.4122
   481.86         280.3609
   482.00         280.5825
   482.14         281.0125
   482.28         281.5764
   482.42         282.2033
   482.56         282.8203
   482.70         283.3546
   482.84         283.7617
   482.98         284.0695
   483.12         284.3531
   483.26         284.6567
   483.40         284.9501
   483.54         285.1665
   483.68         285.2728
   483.82         285.2677
   483.96         285.1190
   484.10         284.7244
   484.24         283.9454
   484.38         282.6657
   484.52         280.7871
   484.66         278.2004
   484.80         274.8231
   484.94         270.6728
   485.08         265.8927
   485.22         260.7505
   485.36         255.6067
   485.50         250.8450
   485.64         246.8079
   485.78         243.7619
   485.92         241.8818
   486.06         241.2425
   486.20         241.8358
   486.34         243.5672
   486.48         246.2124
   486.62         249.4295
   486.76         252.8271
   486.90         256.0301
   487.04         258.7060
   487.18         260.6007
   487.32         261.6280
   487.46         261.8810
   487.60         261.5622
   487.74         260.9204
   487.88         260.1898
   488.02         259.5558
   488.16         259.1455
   488.30         259.0316
   488.44         259.2363
   488.58         259.7244
   488.72         260.4292
   488.86         261.2699
   489.00         262.1578
   489.14         263.0166
   489.28         263.8094
   489.42         264.5258
   489.56         265.1387
   489.70         265.6225
   489.84         265.9835
   489.98         266.2455
   490.12         266.4240
   490.26         266.5289
   490.40         266.5730
   490.54         266.5490
   490.68         266.4141
   490.82         266.0653
   490.96         265.3590
   491.10         264.1966
   491.24         262.5793
   491.38         260.6118
   491.52         258.4656
   491.66         256.3375
   491.80         254.4149
   491.94         252.8553
   492.08         251.7809
   492.22         251.2742
   492.36         251.3852
   492.50         252.1056
   492.64         253.3500
   492.78         255.0118
   492.92         256.9799
   493.06         259.1067
   493.20         261.2108
   493.34         263.1165
   493.48         264.6876
   493.62         265.8493
   493.76         266.6203
   493.90         267.0904
   494.04         267.3579
   494.18         267.4966
   494.32         267.5471
   494.46         267.5210
   494.60         267.4187
   494.74         267.2348
   494.88         266.9638
   495.02         266.6166
   495.16         266.2134
   495.30         265.7749
   495.44         265.3339
   495.58         264.9186
   495.72         264.5442
   495.86         264.2301
   496.00         263.9798
   496.14         263.7695
   496.28         263.5656
   496.42         263.3653
   496.56         263.1796
   496.70         262.9886
   496.84         262.7552
   496.98         262.4537
   497.12         262.0804
   497.26         261.6559
   497.40         261.2090
   497.54         260.7654
   497.68         260.3475
   497.82         259.9631
   497.96         259.6073
   498.10         259.2786
   498.24         258.9761
   498.38         258.6947
   498.52         258.4309
   498.66         258.1779
   498.80         257.9360
   498.94         257.7107
   499.08         257.4709
   499.22         257.1251
   499.36         256.5565
   499.50         255.6782
   499.64         254.4612
   499.78         252.9310
   499.92         251.1465
   500.06         249.1822
   500.20         247.1120
   500.34         244.9973
   500.48         242.9007
   500.62         240.9078
   500.76         239.1408
   500.90         237.7483
   501.04         236.8398
   501.18         236.4582
   501.32         236.6022
   501.46         237.2246
   501.60         238.2438
   501.74         239.5619
   501.88         241.0880
   502.02         242.7445
   502.16         244.4483
   502.30         246.1031
   502.44         247.5966
   502.58         248.8258
   502.72         249.7290
   502.86         250.2767
   503.00         250.4734
   503.14         250.3630
   503.28         250.0087
   503.42         249.4672
   503.56         248.7631
   503.70         247.8924
   503.84         246.9041
   503.98         245.9088
   504.12         245.0024
   504.26         244.2343
   504.40         243.6089
   504.54         243.1090
   504.68         242.7246
   504.82         242.4651
   504.96         242.3397
   505.10         242.3291
   505.24         242.3934
   505.38         242.4876
   505.52         242.5707
   505.66         242.6234
   505.80         242.6429
   505.94         242.6343
   506.08         242.6126
   506.22         242.6018
   506.36         242.6372
   506.50         242.7452
   506.64         242.9068
   506.78         243.0665
   506.92         243.1869
   507.06         243.2915
   507.20         243.4329
   507.34         243.6305
   507.48         243.8601
   507.62         244.0858
   507.76         244.2894
   507.90         244.4821
   508.04         244.6862
   508.18         244.8930
   508.32         245.0473
   508.46         245.0779
   508.60         244.9427
   508.74         244.6428
   508.88         244.2026
   509.02         243.6582
   509.16         243.0499
   509.30         242.4144
   509.44         241.7877
   509.58         241.2064
   509.72         240.6941
   509.86         240.2492
   510.00         239.8602
   510.14         239.5277
   510.28         239.2517
   510.42         239.0123
   510.56         238.7819
   510.70         238.5328
   510.84         238.2263
   510.98         237.8351
   511.12         237.3679
   511.26         236.8518
   511.40         236.2927
   511.54         235.6754
   511.68         234.9924
   511.82         234.2565
   511.96         233.5024
   512.10         232.7816
   512.24         232.1399
   512.38         231.6052
   512.52         231.2051
   512.66         230.9649
   512.80         230.8861
   512.94         230.9479
   513.08         231.1229
   513.22         231.3708
   513.36         231.6375
   513.50         231.8709
   513.64         232.0313
   513.78         232.0895
   513.92         232.0254
   514.06         231.8286
   514.20         231.4923
   514.34         231.0159
   514.48         230.4059
   514.62         229.6788
   514.76         228.8615
   514.90         227.9893
   515.04         227.1149
   515.18         226.2993
   515.32         225.5706
   515.46         224.9201
   515.60         224.3414
   515.74         223.8398
   515.88         223.4186
   516.02         223.0802
   516.16         222.8237
   516.30         222.6410
   516.44         222.5290
   516.58         222.4915
   516.72         222.5218
   516.86         222.6051
   517.00         222.7409
   517.14         222.9433
   517.28         223.2300
   517.42         223.6058
   517.56         224.0448
   517.70         224.4947
   517.84         224.9003
   517.98         225.2268
   518.12         225.4634
   518.26         225.6085
   518.40         225.6626
   518.54         225.6280
   518.68         225.5134
   518.82         225.3419
   518.96         225.1457
   519.10         224.9517
   519.24         224.7698
   519.38         224.5961
   519.52         224.4315
   519.66         224.2821
   519.80         224.1423
   519.94         223.9952
   520.08         223.8186
   520.22         223.5808
   520.36         223.2487
   520.50         222.8194
   520.64         222.3142
   520.78         221.7501
   520.92         221.1532
   521.06         220.5661
   521.20         220.0219
   521.34         219.5377
   521.48         219.1294
   521.62         218.8107
   521.76         218.5670
   521.90         218.3516
   522.04         218.1193
   522.18         217.8372
   522.32         217.4731
   522.46         217.0138
   522.60         216.4820
   522.74         215.9093
   522.88         215.3271
   523.02         214.7817
   523.16         214.3288
   523.30         214.0002
   523.44         213.7946
   523.58         213.6997
   523.72         213.6841
   523.86         213.6957
   524.00         213.6907
   524.14         213.6469
   524.28         213.5466
   524.42         213.3645
   524.56         213.0962
   524.70         212.7747
   524.84         212.4391
   524.98         212.1124
   525.12         211.8074
   525.26         211.5238
   525.40         211.2341
   525.54         210.9049
   525.68         210.5177
   525.82         210.0625
   525.96         209.5360
   526.10         208.9488
   526.24         208.3235
   526.38         207.6873
   526.52         207.0644
   526.66         206.4863
   526.80         205.9893
   526.94         205.5949
   527.08         205.3136
   527.22         205.1575
   527.36         205.1328
   527.50         205.2253
   527.64         205.4081
   527.78         205.6532
   527.92         205.9276
   528.06         206.1951
   528.20         206.4401
   528.34         206.6597
   528.48         206.8413
   528.62         206.9786
   528.76         207.0809
   528.90         207.1632
   529.04         207.2385
   529.18         207.3205
   529.32         207.4304
   529.46         207.5873
   529.60         207.7860
   529.74         207.9927
   529.88         208.1600
   530.02         208.2409
   530.16         208.1856
   530.30         207.9490
   530.44         207.5096
   530.58         206.8663
   530.72         206.0272
   530.86         205.0141
   531.00         203.8775
   531.14         202.7077
   531.28         201.6195
   531.42         200.7179
   531.56         200.0705
   531.70         199.6983
   531.84         199.5943
   531.98         199.7339
   532.12         200.0617
   532.26         200.4990
   532.40         200.9726
   532.54         201.4365
   532.68         201.8637
   532.82         202.2289
   532.96         202.5066
   533.10         202.6786
   533.24         202.7363
   533.38         202.6893
   533.52         202.5708
   533.66         202.4213
   533.80         202.2626
   533.94         202.0811
   534.08         201.8524
   534.22         201.5658
   534.36         201.2276
   534.50         200.8622
   534.64         200.4858
   534.78         200.0951
   534.92         199.6929
   535.06         199.2890
   535.20         198.8928
   535.34         198.5075
   535.48         198.1293
   535.62         197.7600
   535.76         197.4164
   535.90         197.1207
   536.04         196.8828
   536.18         196.6980
   536.32         196.5575
   536.46         196.4522
   536.60         196.3712
   536.74         196.3111
   536.88         196.2626
   537.02         196.2043
   537.16         196.1204
   537.30         195.9991
   537.44         195.8462
   537.58         195.6915
   537.72         195.5697
   537.86         195.5108
   538.00         195.5294
   538.14         195.6227
   538.28         195.7711
   538.42         195.9267
   538.56         196.0246
   538.70         196.0136
   538.84         195.8663
   538.98         195.5631
   539.12         195.0950
   539.26         194.4813
   539.40         193.7756
   539.54         193.0521
   539.68         192.3870
   539.82         191.8390
   539.96         191.4353
   540.10         191.1959
   540.24         191.1258
   540.38         191.1924
   540.52         191.3401
   540.66         191.5041
   540.80         191.6305
   540.94         191.6776
   541.08         191.6121
   541.22         191.4336
   541.36         191.1612
   541.50         190.7955
   541.64         190.3260
   541.78         189.7663
   541.92         189.1488
   542.06         188.4973
   542.20         187.8251
   542.34         187.1450
   542.48         186.4693
   542.62         185.8096
   542.76         185.1928
   542.90         184.6471
   543.04         184.1940
   543.18         183.8526
   543.32         183.6279
   543.46         183.5098
   543.60         183.4647
   543.74         183.4404
   543.88         183.3858
   544.02         183.2319
   544.16         182.9002
   544.30         182.3480
   544.44         181.5877
   544.58         180.6764
   544.72         179.6957
   544.86         178.7368
   545.00         177.8992
   545.14         177.2877
   545.28         176.9959
   545.42         177.0844
   545.56         177.5424
   545.70         178.2995
   545.84         179.2598
   545.98         180.3081
   546.12         181.3251
   546.26         182.2080
   546.40         182.8801
   546.54         183.2919
   546.68         183.4205
   546.82         183.2792
   546.96         182.9206
   547.10         182.4199
   547.24         181.8530
   547.38         181.2746
   547.52         180.7180
   547.66         180.2130
   547.80         179.7750
   547.94         179.3913
   548.08         179.0303
   548.22         178.6621
   548.36         178.2893
   548.50         177.9457
   548.64         177.6681
   548.78         177.4847
   548.92         177.4185
   549.06         177.4824
   549.20         177.6704
   549.34         177.9550
   549.48         178.2912
   549.62         178.6330
   549.76         178.9407
   549.90         179.1793
   550.04         179.3139
   550.18         179.3247
   550.32         179.2194
   550.46         179.0180
   550.60         178.7400
   550.74         178.4131
   550.88         178.0787
   551.02         177.7743
   551.16         177.5116
   551.30         177.2691
   551.44         177.0087
   551.58         176.7033
   551.72         176.3390
   551.86         175.9129
   552.00         175.4388
   552.14         174.9433
   552.28         174.4531
   552.42         173.9995
   552.56         173.6233
   552.70         173.3530
   552.84         173.1911
   552.98         173.1172
   553.12         173.0922
   553.26         173.0739
   553.40         173.0375
   553.54         172.9780
   553.68         172.9046
   553.82         172.8453
   553.96         172.8417
   554.10         172.9358
   554.24         173.1535
   554.38         173.4932
   554.52         173.9221
   554.66         174.3792
   554.80         174.7913
   554.94         175.0976
   555.08         175.2615
   555.22         175.2596
   555.36         175.0746
   555.50         174.7130
   555.64         174.2099
   555.78         173.6207
   555.92         173.0155
   556.06         172.4636
   556.20         172.0134
   556.34         171.6894
   556.48         171.4978
   556.62         171.4247
   556.76         171.4419
   556.90         171.5159
   557.04         171.6148
   557.18         171.7127
   557.32         171.7916
   557.46         171.8433
   557.60         171.8595
   557.74         171.8320
   557.88         171.7604
   558.02         171.6487
   558.16         171.5028
   558.30         171.3332
   558.44         171.1559
   558.58         170.9876
   558.72         170.8337
   558.86         170.6841
   559.00         170.5260
   559.14         170.3446
   559.28         170.1150
   559.42         169.8130
   559.56         169.4272
   559.70         168.9649
   559.84         168.4448
   559.98         167.8951
   560.12         167.3557
   560.26         166.8662
   560.40         166.4597
   560.54         166.1578
   560.68         165.9654
   560.82         165.8763
   560.96         165.8772
   561.10         165.9490
   561.24         166.0713
   561.38         166.2222
   561.52         166.3799
   561.66         166.5342
   561.80         166.6780
   561.94         166.8040
   562.08         166.9110
   562.22         166.9987
   562.36         167.0607
   562.50         167.0837
   562.64         167.0537
   562.78         166.9460
   562.92         166.7276
   563.06         166.3891
   563.20         165.9461
   563.34         165.4164
   563.48         164.8146
   563.62         164.1556
   563.76         163.4633
   563.90         162.7713
   564.04         162.1152
   564.18         161.5323
   564.32         161.0548
   564.46         160.7032
   564.60         160.4849
   564.74         160.3859
   564.88         160.3741
   565.02         160.4200
   565.16         160.4978
   565.30         160.5714
   565.44         160.5969
   565.58         160.5480
   565.72         160.4296
   565.86         160.2484
   566.00         160.0081
   566.14         159.7295
   566.28         159.4473
   566.42         159.1926
   566.56         158.9716
   566.70         158.7664
   566.84         158.5527
   566.98         158.3123
   567.12         158.0399
   567.26         157.7357
   567.40         157.4003
   567.54         157.0441
   567.68         156.6892
   567.82         156.3621
   567.96         156.0927
   568.10         155.9156
   568.24         155.8615
   568.38         155.9308
   568.52         156.0804
   568.66         156.2536
   568.80         156.4033
   568.94         156.4907
   569.08         156.4835
   569.22         156.3584
   569.36         156.1151
   569.50         155.7826
   569.64         155.3969
   569.78         154.9822
   569.92         154.5558
   570.06         154.1508
   570.20         153.8179
   570.34         153.5995
   570.48         153.5141
   570.62         153.5538
   570.76         153.6866
   570.90         153.8638
   571.04         154.0396
   571.18         154.1983
   571.32         154.3499
   571.46         154.5057
   571.60         154.6638
   571.74         154.8037
   571.88         154.9043
   572.02         154.9688
   572.16         155.0182
   572.30         155.0685
   572.44         155.1207
   572.58         155.1647
   572.72         155.1809
   572.86         155.1351
   573.00         154.9945
   573.14         154.7513
   573.28         154.4119
   573.42         153.9811
   573.56         153.4739
   573.70         152.9347
   573.84         152.4295
   573.98         152.0159
   574.12         151.7300
   574.26         151.5894
   574.40         151.6011
   574.54         151.7659
   574.68         152.0647
   574.82         152.4477
   574.96         152.8412
   575.10         153.1713
   575.24         153.3915
   575.38         153.4851
   575.52         153.4473
   575.66         153.2776
   575.80         152.9784
   575.94         152.5560
   576.08         152.0244
   576.22         151.4163
   576.36         150.7765
   576.50         150.1272
   576.64         149.4473
   576.78         148.6753
   576.92         147.7446
   577.06         146.6238
   577.20         145.3237
   577.34         143.9027
   577.48         142.4598
   577.62         141.1085
   577.76         139.9531
   577.90         139.0764
   578.04         138.5311
   578.18         138.3328
   578.32         138.4559
   578.46         138.8438
   578.60         139.4219
   578.74         140.1070
   578.88         140.8172
   579.02         141.4723
   579.16         141.9987
   579.30         142.3470
   579.44         142.5068
   579.58         142.5205
   579.72         142.4615
   579.86         142.3955
   580.00         142.3747
   580.14         142.4296
   580.28         142.5699
   580.42         142.7993
   580.56         143.1144
   580.70         143.4942
   580.84         143.9041
   580.98         144.3220
   581.12         144.7490
   581.26         145.1854
   581.40         145.6100
   581.54         145.9839
   581.68         146.2674
   581.82         146.4376
   581.96         146.4842
   582.10         146.4027
   582.24         146.2017
   582.38         145.9124
   582.52         145.5889
   582.66         145.2866
   582.80         145.0418
   582.94         144.8737
   583.08         144.7887
   583.22         144.7765
   583.36         144.8133
   583.50         144.8714
   583.64         144.9153
   583.78         144.9064
   583.92         144.8124
   584.06         144.6320
   584.20         144.3994
   584.34         144.1533
   584.48         143.9267
   584.62         143.7410
   584.76         143.6025
   584.90         143.5149
   585.04         143.4841
   585.18         143.5052
   585.32         143.5613
   585.46         143.6315
   585.60         143.6959
   585.74         143.7355
   585.88         143.7207
   586.02         143.5911
   586.16         143.2516
   586.30         142.6149
   586.44         141.6515
   586.58         140.3943
   586.72         138.9316
   586.86         137.3755
   587.00         135.8304
   587.14         134.4061
   587.28         133.2056
   587.42         132.2826
   587.56         131.6084
   587.70         131.0874
   587.84         130.6275
   587.98         130.1610
   588.12         129.5988
   588.26         128.8367
   588.40         127.8224
   588.54         126.5837
   588.68         125.2081
   588.82         123.8469
   588.96         122.7150
   589.10         122.0315
   589.24         121.9530
   589.38         122.5471
   589.52         123.7899
   589.66         125.5798
   589.80         127.7569
   589.94         130.1156
   590.08         132.4373
   590.22         134.5427
   590.36         136.3403
   590.50         137.8191
   590.64         138.9702
   590.78         139.7693
   590.92         140.2398
   591.06         140.4640
   591.20         140.5193
   591.34         140.4360
   591.48         140.2175
   591.62         139.8732
   591.76         139.4312
   591.90         138.9294
   592.04         138.4031
   592.18         137.8883
   592.32         137.4246
   592.46         137.0500
   592.60         136.7923
   592.74         136.6541
   592.88         136.6151
   593.02         136.6419
   593.16         136.6862
   593.30         136.6872
   593.44         136.5951
   593.58         136.3935
   593.72         136.0928
   593.86         135.7068
   594.00         135.2500
   594.14         134.7513
   594.28         134.2613
   594.42         133.8311
   594.56         133.4958
   594.70         133.2822
   594.84         133.2092
   594.98         133.2772
   595.12         133.4629
   595.26         133.7232
   595.40         134.0138
   595.54         134.3026
   595.68         134.5610
   595.82         134.7655
   595.96         134.9072
   596.10         134.9813
   596.24         134.9766
   596.38         134.8822
   596.52         134.6914
   596.66         134.4043
   596.80         134.0348
   596.94         133.6198
   597.08         133.2137
   597.22         132.8544
   597.36         132.5470
   597.50         132.2803
   597.64         132.0388
   597.78         131.8067
   597.92         131.5713
   598.06         131.3281
   598.20         131.0790
   598.34         130.8347
   598.48         130.6210
   598.62         130.4558
   598.76         130.3369
   598.90         130.2655
   599.04         130.2564
   599.18         130.3184
   599.32         130.4437
   599.46         130.6147
   599.60         130.8079
   599.74         130.9892
   599.88         131.1093
   600.02         131.1387
   600.16         131.0877
   600.30         130.9806
   600.44         130.8449
   600.58         130.7138
   600.72         130.6206
   600.86         130.5867
   601.00         130.6175
   601.14         130.7041
   601.28         130.8285
   601.42         130.9758
   601.56         131.1355
   601.70         131.2863
   601.84         131.3913
   601.98         131.4058
   602.12         131.2874
   602.26         131.0170
   602.40         130.6101
   602.54         130.1033
   602.68         129.5473
   602.82         128.9903
   602.96         128.4678
   603.10         128.0145
   603.24         127.6670
   603.38         127.4517
   603.52         127.3835
   603.66         127.4668
   603.80         127.6834
   603.94         128.0010
   604.08         128.3783
   604.22         128.7633
   604.36         129.1073
   604.50         129.3716
   604.64         129.5295
   604.78         129.5708
   604.92         129.5053
   605.06         129.3562
   605.20         129.1476
   605.34         128.9045
   605.48         128.6544
   605.62         128.4270
   605.76         128.2543
   605.90         128.1592
   606.04         128.1408
   606.18         128.1693
   606.32         128.2008
   606.46         128.1965
   606.60         128.1397
   606.74         128.0254
   606.88         127.8415
   607.02         127.5761
   607.16         127.2283
   607.30         126.8212
   607.44         126.3995
   607.58         126.0097
   607.72         125.6934
   607.86         125.4924
   608.00         125.4352
   608.14         125.5208
   608.28         125.7245
   608.42         126.0079
   608.56         126.3215
   608.70         126.6100
   608.84         126.8347
   608.98         126.9916
   609.12         127.0967
   609.26         127.1644
   609.40         127.2026
   609.54         127.2149
   609.68         127.2073
   609.82         127.1931
   609.96         127.1870
   610.10         127.1907
   610.24         127.1941
   610.38         127.1929
   610.52         127.1905
   610.66         127.1826
   610.80         127.1635
   610.94         127.1327
   611.08         127.0863
   611.22         127.0200
   611.36         126.9406
   611.50         126.8647
   611.64         126.8017
   611.78         126.7422
   611.92         126.6593
   612.06         126.5221
   612.20         126.3055
   612.34         125.9874
   612.48         125.5588
   612.62         125.0382
   612.76         124.4672
   612.90         123.8901
   613.04         123.3404
   613.18         122.8447
   613.32         122.4333
   613.46         122.1387
   613.60         121.9865
   613.74         121.9919
   613.88         122.1626
   614.02         122.4892
   614.16         122.9392
   614.30         123.4639
   614.44         124.0065
   614.58         124.5077
   614.72         124.9083
   614.86         125.1534
   615.00         125.2021
   615.14         125.0444
   615.28         124.6963
   615.42         124.1712
   615.56         123.4724
   615.70         122.6163
   615.84         121.6507
   615.98         120.6444
   616.12         119.6574
   616.26         118.7310
   616.40         117.8974
   616.54         117.1845
   616.68         116.6099
   616.82         116.1775
   616.96         115.8753
   617.10         115.6810
   617.24         115.5739
   617.38         115.5365
   617.52         115.5476
   617.66         115.5831
   617.80         115.6280
   617.94         115.6798
   618.08         115.7449
   618.22         115.8372
   618.36         115.9750
   618.50         116.1791
   618.64         116.4675
   618.78         116.8421
   618.92         117.2847
   619.06         117.7560
   619.20         118.1951
   619.34         118.5373
   619.48         118.7373
   619.62         118.7822
   619.76         118.6882
   619.90         118.4861
   620.04         118.2088
   620.18         117.8901
   620.32         117.5745
   620.46         117.3223
   620.60         117.1932
   620.74         117.2254
   620.88         117.4254
   621.02         117.7690
   621.16         118.2108
   621.30         118.6936
   621.44         119.1578
   621.58         119.5505
   621.72         119.8249
   621.86         119.9505
   622.00         119.9335
   622.14         119.8103
   622.28         119.6255
   622.42         119.4144
   622.56         119.1971
   622.70         118.9812
   622.84         118.7787
   622.98         118.6076
   623.12         118.4828
   623.26         118.4120
   623.40         118.3888
   623.54         118.3948
   623.68         118.4054
   623.82         118.3955
   623.96         118.3510
   624.10         118.2714
   624.24         118.1638
   624.38         118.0436
   624.52         117.9362
   624.66         117.8645
   624.80         117.8341
   624.94         117.8266
   625.08         117.7964
   625.22         117.6883
   625.36         117.4683
   625.50         117.1346
   625.64         116.6942
   625.78         116.1495
   625.92         115.5098
   626.06         114.7975
   626.20         114.0441
   626.34         113.2817
   626.48         112.5399
   626.62         111.8378
   626.76         111.1677
   626.90         110.4928
   627.04         109.7476
   627.18         108.8427
   627.32         107.7046
   627.46         106.3210
   627.60         104.7501
   627.74         103.1122
   627.88         101.5692
   628.02         100.2973
   628.16         99.4514
   628.30         99.1310
   628.44         99.3785
   628.58         100.1973
   628.72         101.5426
   628.86         103.3021
   629.00         105.3044
   629.14         107.3443
   629.28         109.2136
   629.42         110.7405
   629.56         111.8178
   629.70         112.4104
   629.84         112.5513
   629.98         112.3349
   630.12         111.8943
   630.26         111.3616
   630.40         110.8419
   630.54         110.4084
   630.68         110.1095
   630.82         109.9684
   630.96         109.9797
   631.10         110.1264
   631.24         110.3874
   631.38         110.7197
   631.52         111.0640
   631.66         111.3746
   631.80         111.6305
   631.94         111.8339
   632.08         112.0066
   632.22         112.1728
   632.36         112.3468
   632.50         112.5338
   632.64         112.7359
   632.78         112.9513
   632.92         113.1671
   633.06         113.3568
   633.20         113.4831
   633.34         113.5044
   633.48         113.3773
   633.62         113.0567
   633.76         112.5157
   633.90         111.7667
   634.04         110.8616
   634.18         109.8803
   634.32         108.9146
   634.46         108.0450
   634.60         107.3346
   634.74         106.8312
   634.88         106.5640
   635.02         106.5469
   635.16         106.7759
   635.30         107.2149
   635.44         107.7953
   635.58         108.4294
   635.72         109.0199
   635.86         109.4736
   636.00         109.7185
   636.14         109.7148
   636.28         109.4664
   636.42         109.0241
   636.56         108.4577
   636.70         107.8171
   636.84         107.1322
   636.98         106.4408
   637.12         105.8006
   637.26         105.2762
   637.40         104.9256
   637.54         104.7896
   637.68         104.8798
   637.82         105.1816
   637.96         105.6593
   638.10         106.2633
   638.24         106.9377
   638.38         107.6272
   638.52         108.2926
   638.66         108.9068
   638.80         109.4408
   638.94         109.8614
   639.08         110.1353
   639.22         110.2381
   639.36         110.1728
   639.50         109.9730
   639.64         109.6888
   639.78         109.3680
   639.92         109.0444
   640.06         108.7496
   640.20         108.5162
   640.34         108.3708
   640.48         108.3327
   640.62         108.4050
   640.76         108.5774
   640.90         108.8344
   641.04         109.1515
   641.18         109.4944
   641.32         109.8268
   641.46         110.1243
   641.60         110.3792
   641.74         110.5939
   641.88         110.7715
   642.02         110.9124
   642.16         111.0192
   642.30         111.1044
   642.44         111.1841
   642.58         111.2666
   642.72         111.3548
   642.86         111.4413
   643.00         111.5064
   643.14         111.5241
   643.28         111.4687
   643.42         111.3193
   643.56         111.0561
   643.70         110.6663
   643.84         110.1638
   643.98         109.5863
   644.12         108.9700
   644.26         108.3432
   644.40         107.7359
   644.54         107.1806
   644.68         106.7053
   644.82         106.3259
   644.96         106.0394
   645.10         105.8269
   645.24         105.6638
   645.38         105.5293
   645.52         105.4139
   645.66         105.3172
   645.80         105.2399
   645.94         105.1863
   646.08         105.1686
   646.22         105.2071
   646.36         105.3261
   646.50         105.5409
   646.64         105.8410
   646.78         106.1913
   646.92         106.5509
   647.06         106.8789
   647.20         107.1338
   647.34         107.2882
   647.48         107.3347
   647.62         107.2791
   647.76         107.1370
   647.90         106.9287
   648.04         106.6742
   648.18         106.3926
   648.32         106.1010
   648.46         105.8215
   648.60         105.5849
   648.74         105.4152
   648.88         105.3169
   649.02         105.2845
   649.16         105.3118
   649.30         105.3850
   649.44         105.4812
   649.58         105.5824
   649.72         105.6792
   649.86         105.7675
   650.00         105.8446
   650.14         105.8977
   650.28         105.9019
   650.42         105.8294
   650.56         105.6650
   650.70         105.4201
   650.84         105.1294
   650.98         104.8203
   651.12         104.5017
   651.26         104.1796
   651.40         103.8639
   651.54         103.5682
   651.68         103.3080
   651.82         103.0867
   651.96         102.8914
   652.10         102.7107
   652.24         102.5418
   652.38         102.3808
   652.52         102.2212
   652.66         102.0605
   652.80         101.8992
   652.94         101.7442
   653.08         101.6173
   653.22         101.5525
   653.36         101.5744
   653.50         101.6764
   653.64         101.8301
   653.78         102.0183
   653.92         102.2426
   654.06         102.5009
   654.20         102.7800
   654.34         103.0611
   654.48         103.3158
   654.62         103.5060
   654.76         103.5837
   654.90         103.4876
   655.04         103.1529
   655.18         102.5420
   655.32         101.6675
   655.46         100.5889
   655.60         99.3974
   655.74         98.1980
   655.88         97.0961
   656.02         96.1879
   656.16         95.5495
   656.30         95.2292
   656.44         95.2361
   656.58         95.5325
   656.72         96.0465
   656.86         96.6921
   657.00         97.3765
   657.14         98.0118
   657.28         98.5385
   657.42         98.9344
   657.56         99.2047
   657.70         99.3807
   657.84         99.5215
   657.98         99.6887
   658.12         99.9129
   658.26         100.1927
   658.40         100.5133
   658.54         100.8539
   658.68         101.1869
   658.82         101.4861
   658.96         101.7356
   659.10         101.9318
   659.24         102.0870
   659.38         102.2210
   659.52         102.3501
   659.66         102.4831
   659.80         102.6203
   659.94         102.7518
   660.08         102.8519
   660.22         102.8857
   660.36         102.8366
   660.50         102.7146
   660.64         102.5379
   660.78         102.3246
   660.92         102.0970
   661.06         101.8824
   661.20         101.7044
   661.34         101.5786
   661.48         101.5172
   661.62         101.5260
   661.76         101.5966
   661.90         101.7101
   662.04         101.8445
   662.18         101.9836
   662.32         102.1164
   662.46         102.2319
   662.60         102.3213
   662.74         102.3818
   662.88         102.4174
   663.02         102.4317
   663.16         102.4197
   663.30         102.3671
   663.44         102.2597
   663.58         102.0972
   663.72         101.8972
   663.86         101.6818
   664.00         101.4700
   664.14         101.2778
   664.28         101.1162
   664.42         100.9905
   664.56         100.9057
   664.70         100.8722
   664.84         100.9052
   664.98         101.0148
   665.12         101.1986
   665.26         101.4405
   665.40         101.7151
   665.54         101.9945
   665.68         102.2518
   665.82         102.4577
   665.96         102.5867
   666.10         102.6299
   666.24         102.5857
   666.38         102.4292
   666.52         102.1045
   666.66         101.5488
   666.80         100.7291
   666.94         99.6708
   667.08         98.4521
   667.22         97.1815
   667.36         95.9792
   667.50         94.9604
   667.64         94.2191
   667.78         93.8215
   667.92         93.8022
   668.06         94.1593
   668.20         94.8499
   668.34         95.7904
   668.48         96.8749
   668.62         97.9926
   668.76         99.0294
   668.90         99.8740
   669.04         100.4486
   669.18         100.7405
   669.32         100.8017
   669.46         100.7190
   669.60         100.5753
   669.74         100.4229
   669.88         100.2893
   670.02         100.1917
   670.16         100.1363
   670.30         100.1180
   670.44         100.1246
   670.58         100.1400
   670.72         100.1441
   670.86         100.1196
   671.00         100.0610
   671.14         99.9791
   671.28         99.8989
   671.42         99.8558
   671.56         99.8816
   671.70         99.9808
   671.84         100.1236
   671.98         100.2626
   672.12         100.3531
   672.26         100.3681
   672.40         100.3035
   672.54         100.1668
   672.68         99.9638
   672.82         99.7013
   672.96         99.3930
   673.10         99.0608
   673.24         98.7280
   673.38         98.4171
   673.52         98.1543
   673.66         97.9674
   673.80         97.8762
   673.94         97.8852
   674.08         97.9794
   674.22         98.1252
   674.36         98.2870
   674.50         98.4505
   674.64         98.6203
   674.78         98.7985
   674.92         98.9773
   675.06         99.1436
   675.20         99.2763
   675.34         99.3549
   675.48         99.3695
   675.62         99.3209
   675.76         99.2212
   675.90         99.0879
   676.04         98.9370
   676.18         98.7803
   676.32         98.6242
   676.46         98.4723
   676.60         98.3304
   676.74         98.2059
   676.88         98.1001
   677.02         98.0083
   677.16         97.9209
   677.30         97.8216
   677.44         97.7006
   677.58         97.5654
   677.72         97.4304
   677.86         97.3068
   678.00         97.2057
   678.14         97.1346
   678.28         97.0893
   678.42         97.0581
   678.56         97.0291
   678.70         96.9915
   678.84         96.9396
   678.98         96.8767
   679.12         96.8122
   679.26         96.7574
   679.40         96.7254
   679.54         96.7258
   679.68         96.7589
   679.82         96.8258
   679.96         96.9419
   680.10         97.1249
   680.24         97.3739
   680.38         97.6655
   680.52         97.9643
   680.66         98.2320
   680.80         98.4352
   680.94         98.5547
   681.08         98.5903
   681.22         98.5495
   681.36         98.4351
   681.50         98.2462
   681.64         97.9841
   681.78         97.6527
   681.92         97.2611
   682.06         96.8296
   682.20         96.3879
   682.34         95.9666
   682.48         95.5958
   682.62         95.2966
   682.76         95.0675
   682.90         94.8986
   683.04         94.7846
   683.18         94.7228
   683.32         94.7104
   683.46         94.7410
   683.60         94.8017
   683.74         94.8712
   683.88         94.9215
   684.02         94.9327
   684.16         94.9040
   684.30         94.8463
   684.44         94.7715
   684.58         94.6937
   684.72         94.6269
   684.86         94.5744
   685.00         94.5255
   685.14         94.4676
   685.28         94.3961
   685.42         94.3006
   685.56         94.1356
   685.70         93.8065
   685.84         93.1978
   685.98         92.2216
   686.12         90.8443
   686.26         89.0880
   686.40         87.0211
   686.54         84.7509
   686.68         82.4212
   686.82         80.1958
   686.96         78.2391
   687.10         76.7028
   687.24         75.6999
   687.38         75.2819
   687.52         75.4316
   687.66         76.0665
   687.80         77.0554
   687.94         78.2409
   688.08         79.4527
   688.22         80.5285
   688.36         81.3544
   688.50         81.8891
   688.64         82.1531
   688.78         82.2022
   688.92         82.1077
   689.06         81.9512
   689.20         81.8207
   689.34         81.7959
   689.48         81.9345
   689.62         82.2618
   689.76         82.7600
   689.90         83.3831
   690.04         84.0897
   690.18         84.8447
   690.32         85.6111
   690.46         86.3560
   690.60         87.0460
   690.74         87.6410
   690.88         88.1077
   691.02         88.4347
   691.16         88.6304
   691.30         88.7194
   691.44         88.7387
   691.58         88.7239
   691.72         88.6976
   691.86         88.6632
   692.00         88.6182
   692.14         88.5695
   692.28         88.5265
   692.42         88.4963
   692.56         88.4882
   692.70         88.5044
   692.84         88.5301
   692.98         88.5512
   693.12         88.5668
   693.26         88.5838
   693.40         88.6196
   693.54         88.6978
   693.68         88.8314
   693.82         89.0203
   693.96         89.2655
   694.10         89.5681
   694.24         89.9155
   694.38         90.2796
   694.52         90.6303
   694.66         90.9511
   694.80         91.2283
   694.94         91.4371
   695.08         91.5506
   695.22         91.5500
   695.36         91.4283
   695.50         91.1966
   695.64         90.8857
   695.78         90.5381
   695.92         90.2014
   696.06         89.9260
   696.20         89.7551
   696.34         89.7169
   696.48         89.8227
   696.62         90.0664
   696.76         90.4311
   696.90         90.8977
   697.04         91.4437
   697.18         92.0451
   697.32         92.6812
   697.46         93.3261
   697.60         93.9450
   697.74         94.4990
   697.88         94.9520
   698.02         95.2780
   698.16         95.4640
   698.30         95.5098
   698.44         95.4253
   698.58         95.2251
   698.72         94.9211
   698.86         94.5214
   699.00         94.0389
   699.14         93.5028
   699.28         92.9589
   699.42         92.4557
   699.56         92.0274
   699.70         91.6914
   699.84         91.4566
   699.98         91.3239
   700.12         91.2840
   700.26         91.3193
   700.40         91.4068
   700.54         91.5273
   700.68         91.6759
   700.82         91.8497
   700.96         92.0362
   701.10         92.2146
   701.24         92.3525
   701.38         92.4212
   701.52         92.4096
   701.66         92.3163
   701.80         92.1479
   701.94         91.9241
   702.08         91.6721
   702.22         91.4221
   702.36         91.2058
   702.50         91.0498
   702.64         90.9686
   702.78         90.9608
   702.92         91.0078
   703.06         91.0860
   703.20         91.1831
   703.34         91.2898
   703.48         91.3828
   703.62         91.4384
   703.76         91.4451
   703.90         91.3950
   704.04         91.2871
   704.18         91.1280
   704.32         90.9341
   704.46         90.7365
   704.60         90.5712
   704.74         90.4597
   704.88         90.4000
   705.02         90.3723
   705.16         90.3378
   705.30         90.2401
   705.44         90.0321
   705.58         89.7020
   705.72         89.2682
   705.86         88.7614
   706.00         88.2196
   706.14         87.6916
   706.28         87.2364
   706.42         86.9096
   706.56         86.7534
   706.70         86.7935
   706.84         87.0355
   706.98         87.4713
   707.12         88.0829
   707.26         88.8366
   707.40         89.6760
   707.54         90.5276
   707.68         91.3198
   707.82         91.9939
   707.96         92.5149
   708.10         92.8800
   708.24         93.1070
   708.38         93.2190
   708.52         93.2439
   708.66         93.2081
   708.80         93.1222
   708.94         92.9858
   709.08         92.7985
   709.22         92.5657
   709.36         92.3051
   709.50         92.0474
   709.64         91.8257
   709.78         91.6560
   709.92         91.5335
   710.06         91.4473
   710.20         91.3933
   710.34         91.3697
   710.48         91.3680
   710.62         91.3795
   710.76         91.4013
   710.90         91.4266
   711.04         91.4346
   711.18         91.3927
   711.32         91.2667
   711.46         91.0410
   711.60         90.7384
   711.74         90.4073
   711.88         90.0906
   712.02         89.8145
   712.16         89.5917
   712.30         89.4302
   712.44         89.3401
   712.58         89.3268
   712.72         89.3801
   712.86         89.4739
   713.00         89.5722
   713.14         89.6371
   713.28         89.6429
   713.42         89.5822
   713.56         89.4588
   713.70         89.2806
   713.84         89.0622
   713.98         88.8303
   714.12         88.6192
   714.26         88.4627
   714.40         88.3833
   714.54         88.3882
   714.68         88.4764
   714.82         88.6374
   714.96         88.8533
   715.10         89.1010
   715.24         89.3483
   715.38         89.5643
   715.52         89.7289
   715.66         89.8221
   715.80         89.8210
   715.94         89.7158
   716.08         89.5109
   716.22         89.2097
   716.36         88.8124
   716.50         88.3311
   716.64         87.7953
   716.78         87.2368
   716.92         86.6801
   717.06         86.1413
   717.20         85.6199
   717.34         85.1002
   717.48         84.5675
   717.62         84.0207
   717.76         83.4642
   717.90         82.9022
   718.04         82.3431
   718.18         81.8006
   718.32         81.2911
   718.46         80.8412
   718.60         80.4834
   718.74         80.2366
   718.88         80.0993
   719.02         80.0597
   719.16         80.1025
   719.30         80.2062
   719.44         80.3484
   719.58         80.5203
   719.72         80.7255
   719.86         80.9723
   720.00         81.2714
   720.14         81.6314
   720.28         82.0572
   720.42         82.5540
   720.56         83.1248
   720.70         83.7629
   720.84         84.4440
   720.98         85.1213
   721.12         85.7375
   721.26         86.2456
   721.40         86.6164
   721.54         86.8374
   721.68         86.9094
   721.82         86.8431
   721.96         86.6588
   722.10         86.3858
   722.24         86.0474
   722.38         85.6484
   722.52         85.1931
   722.66         84.6970
   722.80         84.1770
   722.94         83.6524
   723.08         83.1496
   723.22         82.6937
   723.36         82.3001
   723.50         81.9816
   723.64         81.7590
   723.78         81.6543
   723.92         81.6734
   724.06         81.7951
   724.20         81.9851
   724.34         82.2194
   724.48         82.4775
   724.62         82.7355
   724.76         82.9687
   724.90         83.1527
   725.04         83.2745
   725.18         83.3317
   725.32         83.3155
   725.46         83.2219
   725.60         83.0745
   725.74         82.9071
   725.88         82.7413
   726.02         82.5839
   726.16         82.4333
   726.30         82.2752
   726.44         82.0827
   726.58         81.8387
   726.72         81.5474
   726.86         81.2191
   727.00         80.8585
   727.14         80.4711
   727.28         80.0816
   727.42         79.7321
   727.56         79.4577
   727.70         79.2813
   727.84         79.2106
   727.98         79.2361
   728.12         79.3437
   728.26         79.5050
   728.40         79.6734
   728.54         79.8145
   728.68         79.9178
   728.82         79.9819
   728.96         80.0081
   729.10         80.0007
   729.24         79.9636
   729.38         79.9003
   729.52         79.8219
   729.66         79.7575
   729.80         79.7407
   729.94         79.7827
   730.08         79.8718
   730.22         79.9888
   730.36         80.1245
   730.50         80.2775
   730.64         80.4478
   730.78         80.6414
   730.92         80.8648
   731.06         81.1174
   731.20         81.3890
   731.34         81.6564
   731.48         81.8895
   731.62         82.0601
   731.76         82.1455
   731.90         82.1349
   732.04         82.0362
   732.18         81.8681
   732.32         81.6440
   732.46         81.3734
   732.60         81.0727
   732.74         80.7642
   732.88         80.4690
   733.02         80.2014
   733.16         79.9685
   733.30         79.7726
   733.44         79.6174
   733.58         79.5122
   733.72         79.4695
   733.86         79.4937
   734.00         79.5782
   734.14         79.7082
   734.28         79.8585
   734.42         79.9988
   734.56         80.1040
   734.70         80.1546
   734.84         80.1335
   734.98         80.0342
   735.12         79.8676
   735.26         79.6542
   735.40         79.4192
   735.54         79.1919
   735.68         79.0006
   735.82         78.8666
   735.96         78.8023
   736.10         78.8107
   736.24         78.8841
   736.38         79.0035
   736.52         79.1423
   736.66         79.2784
   736.80         79.4003
   736.94         79.4984
   737.08         79.5642
   737.22         79.5909
   737.36         79.5636
   737.50         79.4634
   737.64         79.2806
   737.78         79.0156
   737.92         78.6739
   738.06         78.2660
   738.20         77.8124
   738.34         77.3453
   738.48         76.9011
   738.62         76.5130
   738.76         76.2117
   738.90         76.0278
   739.04         75.9899
   739.18         76.1124
   739.32         76.3858
   739.46         76.7774
   739.60         77.2332
   739.74         77.6875
   739.88         78.0754
   740.02         78.3469
   740.16         78.4831
   740.30         78.4966
   740.44         78.4164
   740.58         78.2724
   740.72         78.0896
   740.86         77.8847
   741.00         77.6637
   741.14         77.4276
   741.28         77.1820
   741.42         76.9393
   741.56         76.7106
   741.70         76.5008
   741.84         76.3096
   741.98         76.1312
   742.12         75.9580
   742.26         75.7830
   742.40         75.6058
   742.54         75.4383
   742.68         75.3037
   742.82         75.2281
   742.96         75.2281
   743.10         75.3037
   743.24         75.4383
   743.38         75.6058
   743.52         75.7830
   743.66         75.9580
   743.80         76.1312
   743.94         76.3096
   744.08         76.5008
   744.22         76.7106
