# File BD-114586
# Wavelength [nm]    Normalized Amplitude
   349.70         1252.6286
   349.84         1255.2470
   349.98         1254.7407
   350.12         1251.2472
   350.26         1245.2090
   350.40         1237.4813
   350.54         1229.2930
   350.68         1222.0303
   350.82         1216.8301
   350.96         1214.0375
   351.10         1213.2160
   351.24         1214.0375
   351.38         1216.8301
   351.52         1222.0303
   351.66         1229.2930
   351.80         1237.4813
   351.94         1245.2090
   352.08         1251.2472
   352.22         1254.7407
   352.36         1255.2470
   352.50         1252.6286
   352.64         1246.9632
   352.78         1238.8541
   352.92         1229.2617
   353.06         1218.9144
   353.20         1208.4996
   353.34         1198.8630
   353.48         1190.6397
   353.62         1184.1328
   353.76         1179.7444
   353.90         1177.8282
   354.04         1178.0701
   354.18         1179.6535
   354.32         1181.6991
   354.46         1183.5172
   354.60         1184.7365
   354.74         1185.3625
   354.88         1185.7131
   355.02         1186.1212
   355.16         1186.8136
   355.30         1188.1237
   355.44         1190.2415
   355.58         1192.9769
   355.72         1196.3190
   355.86         1200.3738
   356.00         1204.5951
   356.14         1207.9750
   356.28         1209.9087
   356.42         1210.5201
   356.56         1210.3244
   356.70         1209.9036
   356.84         1209.6366
   356.98         1209.3562
   357.12         1208.7522
   357.26         1207.8177
   357.40         1206.5265
   357.54         1204.6479
   357.68         1201.9154
   357.82         1198.1561
   357.96         1193.3120
   358.10         1187.4219
   358.24         1181.0034
   358.38         1174.8856
   358.52         1169.5646
   358.66         1165.4486
   358.80         1163.1828
   358.94         1163.1970
   359.08         1165.2451
   359.22         1168.4487
   359.36         1171.4812
   359.50         1173.0423
   359.64         1172.4506
   359.78         1169.7911
   359.92         1165.5637
   360.06         1160.4125
   360.20         1155.1645
   360.34         1150.6714
   360.48         1147.5686
   360.62         1146.2871
   360.76         1147.1383
   360.90         1150.1247
   361.04         1154.6577
   361.18         1159.8041
   361.32         1164.7300
   361.46         1168.6887
   361.60         1171.0064
   361.74         1171.3267
   361.88         1169.5520
   362.02         1165.7141
   362.16         1160.1814
   362.30         1153.5713
   362.44         1146.5554
   362.58         1139.8497
   362.72         1133.9957
   362.86         1129.2653
   363.00         1125.8011
   363.14         1123.6925
   363.28         1122.8498
   363.42         1123.0546
   363.56         1124.1472
   363.70         1126.0011
   363.84         1128.6210
   363.98         1132.1833
   364.12         1136.6210
   364.26         1141.4971
   364.40         1146.3098
   364.54         1150.5685
   364.68         1153.8270
   364.82         1155.8543
   364.96         1156.5084
   365.10         1155.5979
   365.24         1152.9501
   365.38         1148.4449
   365.52         1142.1904
   365.66         1134.5567
   365.80         1125.9117
   365.94         1116.5509
   366.08         1106.9845
   366.22         1097.9604
   366.36         1090.1932
   366.50         1084.2326
   366.64         1080.2755
   366.78         1078.0608
   366.92         1077.2008
   367.06         1077.3513
   367.20         1078.0303
   367.34         1078.7113
   367.48         1079.0974
   367.62         1079.0214
   367.76         1078.3265
   367.90         1077.0466
   368.04         1075.4146
   368.18         1073.7788
   368.32         1072.5660
   368.46         1071.9658
   368.60         1071.6913
   368.74         1071.2375
   368.88         1070.1864
   369.02         1068.2443
   369.16         1065.1336
   369.30         1060.5610
   369.44         1054.4058
   369.58         1046.8805
   369.72         1038.4625
   369.86         1029.7555
   370.00         1021.3756
   370.14         1013.7726
   370.28         1007.0433
   370.42         1001.1288
   370.56         996.2838
   370.70         992.9043
   370.84         991.0859
   370.98         990.5743
   371.12         990.8306
   371.26         991.4187
   371.40         992.3992
   371.54         994.1517
   371.68         996.8960
   371.82         1000.5912
   371.96         1005.2261
   372.10         1010.7731
   372.24         1016.8604
   372.38         1022.7573
   372.52         1027.6883
   372.66         1031.2906
   372.80         1033.7440
   372.94         1035.3989
   373.08         1036.6553
   373.22         1037.9290
   373.36         1039.2264
   373.50         1040.1736
   373.64         1040.3724
   373.78         1039.3909
   373.92         1036.8425
   374.06         1032.5455
   374.20         1026.5357
   374.34         1018.9523
   374.48         1010.0038
   374.62         1000.0148
   374.76         989.3762
   374.90         978.7723
   375.04         969.2836
   375.18         962.0552
   375.32         958.0591
   375.46         957.7597
   375.60         960.7954
   375.74         966.1037
   375.88         972.1769
   376.02         977.4778
   376.16         980.9908
   376.30         982.4065
   376.44         982.0415
   376.58         980.7028
   376.72         979.3411
   376.86         978.6699
   377.00         979.1570
   377.14         981.2771
   377.28         985.4861
   377.42         991.9555
   377.56         1000.4893
   377.70         1010.4919
   377.84         1021.1067
   377.98         1031.3654
   378.12         1040.0592
   378.26         1045.8849
   378.40         1047.8764
   378.54         1045.7216
   378.68         1039.7803
   378.82         1030.8294
   378.96         1019.8411
   379.10         1007.8821
   379.24         996.0595
   379.38         985.5281
   379.52         977.3652
   379.66         972.3699
   379.80         971.0728
   379.94         973.5788
   380.08         979.3906
   380.22         987.6701
   380.36         997.5333
   380.50         1008.0100
   380.64         1017.7814
   380.78         1025.3248
   380.92         1029.4805
   381.06         1029.7731
   381.20         1026.5484
   381.34         1020.8183
   381.48         1013.7692
   381.62         1006.4595
   381.76         999.6995
   381.90         993.9037
   382.04         989.0130
   382.18         984.5339
   382.32         979.7304
   382.46         973.9735
   382.60         966.9659
   382.74         958.7004
   382.88         949.4509
   383.02         939.7642
   383.16         930.3326
   383.30         921.9985
   383.44         915.7620
   383.58         912.6118
   383.72         913.2241
   383.86         917.7217
   384.00         925.5918
   384.14         935.8286
   384.28         947.2431
   384.42         958.6128
   384.56         968.7596
   384.70         976.7823
   384.84         982.1956
   384.98         984.9566
   385.12         985.4536
   385.26         984.3331
   385.40         982.2709
   385.54         979.8618
   385.68         977.5338
   385.82         975.4842
   385.96         973.7212
   386.10         972.1184
   386.24         970.5749
   386.38         969.0721
   386.52         967.6073
   386.66         966.1579
   386.80         964.6030
   386.94         962.7737
   387.08         960.5956
   387.22         958.0427
   387.36         954.9539
   387.50         950.9593
   387.64         945.6291
   387.78         938.6679
   387.92         930.0856
   388.06         920.3040
   388.20         910.0347
   388.34         900.1088
   388.48         891.3513
   388.62         884.5595
   388.76         880.4774
   388.90         879.5599
   389.04         881.8694
   389.18         887.2027
   389.32         895.0625
   389.46         904.5819
   389.60         914.7357
   389.74         924.5635
   389.88         933.1130
   390.02         939.6081
   390.16         943.7981
   390.30         945.9490
   390.44         946.6122
   390.58         946.4106
   390.72         945.8932
   390.86         945.3445
   391.00         944.6543
   391.14         943.5822
   391.28         942.0577
   391.42         940.0640
   391.56         937.6008
   391.70         934.8602
   391.84         932.0514
   391.98         929.0528
   392.12         925.5262
   392.26         921.3506
   392.40         916.7335
   392.54         912.0580
   392.68         907.9303
   392.82         904.9842
   392.96         903.5495
   393.10         903.7126
   393.24         905.4350
   393.38         908.4452
   393.52         912.1838
   393.66         916.0853
   393.80         919.8138
   393.94         923.1843
   394.08         926.0366
   394.22         928.2190
   394.36         929.5562
   394.50         929.7504
   394.64         928.5444
   394.78         925.9924
   394.92         922.3273
   395.06         917.7163
   395.20         912.2117
   395.34         905.7487
   395.48         898.0265
   395.62         888.4905
   395.76         876.6282
   395.90         862.3673
   396.04         846.2307
   396.18         829.3496
   396.32         813.2901
   396.46         799.5380
   396.60         789.1438
   396.74         782.7350
   396.88         780.5978
   397.02         782.6150
   397.16         788.1981
   397.30         796.4918
   397.44         806.5326
   397.58         817.3127
   397.72         827.9815
   397.86         837.8276
   398.00         846.1283
   398.14         852.2844
   398.28         856.1029
   398.42         857.9425
   398.56         858.5451
   398.70         858.5789
   398.84         858.3733
   398.98         857.9674
   399.12         857.2324
   399.26         855.9986
   399.40         854.1938
   399.54         851.9015
   399.68         849.2477
   399.82         846.3143
   399.96         843.1878
   400.10         839.9933
   400.24         836.9372
   400.38         834.2983
   400.52         832.2651
   400.66         830.8491
   400.80         829.9879
   400.94         829.6425
   401.08         829.6346
   401.22         829.4743
   401.36         828.5121
   401.50         826.2417
   401.64         822.5199
   401.78         817.5908
   401.92         811.9540
   402.06         806.2690
   402.20         801.2508
   402.34         797.4369
   402.48         795.1275
   402.62         794.4981
   402.76         795.5685
   402.90         798.0823
   403.04         801.5354
   403.18         805.3105
   403.32         808.7951
   403.46         811.5127
   403.60         813.1156
   403.74         813.2928
   403.88         811.9944
   404.02         809.6517
   404.16         807.0130
   404.30         804.8348
   404.44         803.5557
   404.58         803.2341
   404.72         803.7346
   404.86         804.8232
   405.00         806.1261
   405.14         807.1374
   405.28         807.4109
   405.42         806.6994
   405.56         804.8446
   405.70         801.7775
   405.84         797.5959
   405.98         792.5446
   406.12         786.9794
   406.26         781.2174
   406.40         775.5287
   406.54         770.2356
   406.68         765.5977
   406.82         761.7310
   406.96         758.6408
   407.10         756.2728
   407.24         754.6107
   407.38         753.5763
   407.52         752.8559
   407.66         752.0085
   407.80         750.6737
   407.94         748.6482
   408.08         745.8291
   408.22         742.1970
   408.36         737.8764
   408.50         732.9886
   408.64         727.4845
   408.78         721.1047
   408.92         713.4312
   409.06         704.2510
   409.20         693.7831
   409.34         682.5657
   409.48         671.4216
   409.62         661.3859
   409.76         653.5031
   409.90         648.5814
   410.04         646.9759
   410.18         648.6883
   410.32         653.5131
   410.46         660.9313
   410.60         670.1322
   410.74         680.2768
   410.88         690.5722
   411.02         700.1557
   411.16         708.1671
   411.30         714.0649
   411.44         717.7316
   411.58         719.4045
   411.72         719.6911
   411.86         719.3569
   412.00         719.0647
   412.14         719.2578
   412.28         720.0653
   412.42         721.3202
   412.56         722.6190
   412.70         723.5189
   412.84         723.8254
   412.98         723.5088
   413.12         722.5316
   413.26         720.9312
   413.40         718.8466
   413.54         716.4097
   413.68         713.7047
   413.82         710.8619
   413.96         708.1400
   414.10         705.8197
   414.24         704.1622
   414.38         703.3624
   414.52         703.3866
   414.66         704.0217
   414.80         705.0021
   414.94         706.0607
   415.08         706.9660
   415.22         707.5325
   415.36         707.6811
   415.50         707.4524
   415.64         706.8772
   415.78         705.9350
   415.92         704.6338
   416.06         703.0591
   416.20         701.3814
   416.34         699.8223
   416.48         698.6007
   416.62         697.8352
   416.76         697.4416
   416.90         697.1852
   417.04         696.7508
   417.18         695.8590
   417.32         694.4504
   417.46         692.6067
   417.60         690.3040
   417.74         687.4468
   417.88         684.0670
   418.02         680.3442
   418.16         676.5056
   418.30         672.7307
   418.44         669.1314
   418.58         665.7749
   418.72         662.7065
   418.86         659.9160
   419.00         657.2814
   419.14         654.6458
   419.28         651.8875
   419.42         648.9608
   419.56         646.0000
   419.70         643.3224
   419.84         641.2742
   419.98         640.0551
   420.12         639.6429
   420.26         639.9161
   420.40         640.8397
   420.54         642.3890
   420.68         644.3899
   420.82         646.5790
   420.96         648.6912
   421.10         650.4772
   421.24         651.8086
   421.38         652.7961
   421.52         653.6510
   421.66         654.5181
   421.80         655.4728
   421.94         656.4739
   422.08         657.3709
   422.22         658.0174
   422.36         658.2763
   422.50         657.9737
   422.64         656.9990
   422.78         655.4459
   422.92         653.5944
   423.06         651.7503
   423.20         650.1611
   423.34         649.0133
   423.48         648.3848
   423.62         648.2182
   423.76         648.3805
   423.90         648.7530
   424.04         649.2260
   424.18         649.6350
   424.32         649.8214
   424.46         649.6894
   424.60         649.1976
   424.74         648.3824
   424.88         647.3280
   425.02         646.0635
   425.16         644.5743
   425.30         642.9035
   425.44         641.1635
   425.58         639.4634
   425.72         637.8550
   425.86         636.3610
   426.00         635.0019
   426.14         633.7852
   426.28         632.6817
   426.42         631.6193
   426.56         630.5619
   426.70         629.5307
   426.84         628.5445
   426.98         627.6034
   427.12         626.6864
   427.26         625.7910
   427.40         624.9435
   427.54         624.1395
   427.68         623.3928
   427.82         622.8125
   427.96         622.4933
   428.10         622.3861
   428.24         622.3401
   428.38         622.2040
   428.52         621.8810
   428.66         621.3066
   428.80         620.4352
   428.94         619.2770
   429.08         617.9375
   429.22         616.6031
   429.36         615.4265
   429.50         614.4600
   429.64         613.6604
   429.78         612.9006
   429.92         612.0857
   430.06         611.2576
   430.20         610.5153
   430.34         609.9061
   430.48         609.3898
   430.62         608.8867
   430.76         608.3935
   430.90         607.9900
   431.04         607.7520
   431.18         607.7168
   431.32         607.9409
   431.46         608.4865
   431.60         609.3182
   431.74         610.3493
   431.88         611.4920
   432.02         612.6229
   432.16         613.6271
   432.30         614.4202
   432.44         614.8717
   432.58         614.7244
   432.72         613.5724
   432.86         610.9210
   433.00         606.3741
   433.14         599.8828
   433.28         591.8383
   433.42         582.9059
   433.56         573.8206
   433.70         565.3280
   433.84         558.1522
   433.98         552.8833
   434.12         549.8333
   434.26         549.1351
   434.40         550.8954
   434.54         555.0308
   434.68         561.1529
   434.82         568.6620
   434.96         576.8200
   435.10         584.8367
   435.24         592.0163
   435.38         597.9336
   435.52         602.5043
   435.66         605.8735
   435.80         608.2745
   435.94         609.9033
   436.08         610.8384
   436.22         611.0677
   436.36         610.5444
   436.50         609.2734
   436.64         607.3168
   436.78         604.7671
   436.92         601.8017
   437.06         598.5710
   437.20         595.1014
   437.34         591.4452
   437.48         587.7371
   437.62         584.0964
   437.76         580.6131
   437.90         577.4102
   438.04         574.6768
   438.18         572.5899
   438.32         571.1935
   438.46         570.4282
   438.60         570.2215
   438.74         570.5180
   438.88         571.2523
   439.02         572.3265
   439.16         573.6367
   439.30         575.0266
   439.44         576.2628
   439.58         577.1145
   439.72         577.4319
   439.86         577.1803
   440.00         576.3722
   440.14         575.0436
   440.28         573.2718
   440.42         571.1618
   440.56         568.8304
   440.70         566.3465
   440.84         563.7303
   440.98         560.9817
   441.12         558.0991
   441.26         555.0981
   441.40         551.9700
   441.54         548.6247
   441.68         544.9443
   441.82         540.8823
   441.96         536.4397
   442.10         531.6260
   442.24         526.5723
   442.38         521.6009
   442.52         517.0542
   442.66         513.1835
   442.80         510.1910
   442.94         508.2369
   443.08         507.4826
   443.22         508.0583
   443.36         509.9783
   443.50         513.1266
   443.64         517.2046
   443.78         521.8127
   443.92         526.5923
   444.06         531.2031
   444.20         535.3220
   444.34         538.7432
   444.48         541.3766
   444.62         543.1350
   444.76         543.9815
   444.90         544.0994
   445.04         543.7975
   445.18         543.3110
   445.32         542.7992
   445.46         542.3677
   445.60         542.0476
   445.74         541.6873
   445.88         540.8795
   446.02         539.1910
   446.16         536.4138
   446.30         532.5987
   446.44         528.0198
   446.58         523.0784
   446.72         518.1998
   446.86         513.8151
   447.00         510.3830
   447.14         508.3463
   447.28         508.0511
   447.42         509.7187
   447.56         513.3407
   447.70         518.5954
   447.84         524.9457
   447.98         531.7383
   448.12         538.2749
   448.26         543.9379
   448.40         548.2938
   448.54         551.1702
   448.68         552.6769
   448.82         553.0933
   448.96         552.7372
   449.10         551.9294
   449.24         550.9426
   449.38         549.9552
   449.52         549.1264
   449.66         548.6102
   449.80         548.4014
   449.94         548.2719
   450.08         547.8716
   450.22         546.8655
   450.36         545.1164
   450.50         542.6914
   450.64         539.7180
   450.78         536.3644
   450.92         532.8851
   451.06         529.5732
   451.20         526.6823
   451.34         524.4156
   451.48         522.9411
   451.62         522.3742
   451.76         522.6889
   451.90         523.6676
   452.04         524.9666
   452.18         526.2006
   452.32         526.9945
   452.46         527.0583
   452.60         526.3213
   452.74         524.9217
   452.88         523.0129
   453.02         520.7181
   453.16         518.1864
   453.30         515.5866
   453.44         513.1390
   453.58         511.1176
   453.72         509.7095
   453.86         508.9663
   454.00         508.8871
   454.14         509.4398
   454.28         510.5655
   454.42         512.1575
   454.56         514.0202
   454.70         515.9482
   454.84         517.8629
   454.98         519.7404
   455.12         521.4943
   455.26         523.0451
   455.40         524.3005
   455.54         525.0993
   455.68         525.3678
   455.82         525.1728
   455.96         524.5975
   456.10         523.7197
   456.24         522.6001
   456.38         521.2288
   456.52         519.5922
   456.66         517.7521
   456.80         515.8166
   456.94         513.9284
   457.08         512.2085
   457.22         510.6882
   457.36         509.3888
   457.50         508.3332
   457.64         507.4403
   457.78         506.6166
   457.92         505.8498
   458.06         505.1256
   458.20         504.4067
   458.34         503.6786
   458.48         502.9399
   458.62         502.2014
   458.76         501.4982
   458.90         500.8569
   459.04         500.3048
   459.18         499.8711
   459.32         499.5838
   459.46         499.4507
   459.60         499.4290
   459.74         499.4486
   459.88         499.4455
   460.02         499.4101
   460.16         499.3933
   460.30         499.4862
   460.44         499.7839
   460.58         500.3032
   460.72         500.9876
   460.86         501.7845
   461.00         502.7202
   461.14         503.9075
   461.28         505.4413
   461.42         507.3597
   461.56         509.6080
   461.70         512.0182
   461.84         514.3843
   461.98         516.5479
   462.12         518.4603
   462.26         520.1686
   462.40         521.7205
   462.54         523.0801
   462.68         524.1664
   462.82         524.9367
   462.96         525.3781
   463.10         525.4668
   463.24         525.1942
   463.38         524.5973
   463.52         523.7216
   463.66         522.5385
   463.80         520.9175
   463.94         518.7352
   464.08         515.9900
   464.22         512.7864
   464.36         509.3730
   464.50         506.1125
   464.64         503.2826
   464.78         501.0355
   464.92         499.4578
   465.06         498.5854
   465.20         498.3717
   465.34         498.6664
   465.48         499.3307
   465.62         500.3180
   465.76         501.5724
   465.90         502.9473
   466.04         504.2674
   466.18         505.3770
   466.32         506.1644
   466.46         506.6182
   466.60         506.8225
   466.74         506.8546
   466.88         506.7425
   467.02         506.5295
   467.16         506.2010
   467.30         505.6620
   467.44         504.9028
   467.58         504.0398
   467.72         503.2515
   467.86         502.6779
   468.00         502.3869
   468.14         502.4231
   468.28         502.7608
   468.42         503.2633
   468.56         503.7726
   468.70         504.1684
   468.84         504.3166
   468.98         504.1202
   469.12         503.5816
   469.26         502.7269
   469.40         501.5544
   469.54         500.0606
   469.68         498.2621
   469.82         496.1685
   469.96         493.8338
   470.10         491.3979
   470.24         488.9886
   470.38         486.6494
   470.52         484.3069
   470.66         481.8041
   470.80         479.0807
   470.94         476.2486
   471.08         473.4271
   471.22         470.6252
   471.36         467.7859
   471.50         464.8900
   471.64         462.0175
   471.78         459.3100
   471.92         456.9162
   472.06         454.9753
   472.20         453.6077
   472.34         452.8950
   472.48         452.8576
   472.62         453.4607
   472.76         454.6295
   472.90         456.2144
   473.04         457.9897
   473.18         459.7217
   473.32         461.2013
   473.46         462.2801
   473.60         462.8499
   473.74         462.8102
   473.88         462.1593
   474.02         461.0264
   474.16         459.5863
   474.30         457.9980
   474.44         456.3991
   474.58         454.8972
   474.72         453.5385
   474.86         452.2859
   475.00         451.0486
   475.14         449.7841
   475.28         448.5537
   475.42         447.4338
   475.56         446.4436
   475.70         445.6017
   475.84         444.9713
   475.98         444.6095
   476.12         444.5100
   476.26         444.6225
   476.40         444.8820
   476.54         445.2199
   476.68         445.5738
   476.82         445.9081
   476.96         446.2458
   477.10         446.6165
   477.24         447.0066
   477.38         447.3897
   477.52         447.7469
   477.66         448.1054
   477.80         448.5715
   477.94         449.2432
   478.08         450.1080
   478.22         451.0985
   478.36         452.1269
   478.50         453.0735
   478.64         453.8194
   478.78         454.2465
   478.92         454.2954
   479.06         453.9933
   479.20         453.4163
   479.34         452.6783
   479.48         451.8907
   479.62         451.1034
   479.76         450.2987
   479.90         449.4609
   480.04         448.6261
   480.18         447.8309
   480.32         447.0568
   480.46         446.2738
   480.60         445.4738
   480.74         444.6450
   480.88         443.7678
   481.02         442.8141
   481.16         441.7884
   481.30         440.7315
   481.44         439.7009
   481.58         438.7659
   481.72         437.9448
   481.86         437.2266
   482.00         436.6070
   482.14         436.0839
   482.28         435.6887
   482.42         435.4845
   482.56         435.5260
   482.70         435.7987
   482.84         436.2283
   482.98         436.7512
   483.12         437.3395
   483.26         437.9665
   483.40         438.5403
   483.54         438.9222
   483.68         439.0356
   483.82         438.8891
   483.96         438.5039
   484.10         437.8606
   484.24         436.8805
   484.38         435.4601
   484.52         433.4998
   484.66         430.8806
   484.80         427.4977
   484.94         423.3127
   485.08         418.3712
   485.22         412.8516
   485.36         407.0932
   485.50         401.5638
   485.64         396.7464
   485.78         393.0282
   485.92         390.6521
   486.06         389.7074
   486.20         390.1738
   486.34         391.9258
   486.48         394.6510
   486.62         397.8640
   486.76         401.0392
   486.90         403.7331
   487.04         405.6524
   487.18         406.6795
   487.32         406.8888
   487.46         406.5033
   487.60         405.8148
   487.74         405.1125
   487.88         404.6196
   488.02         404.4695
   488.16         404.7163
   488.30         405.3353
   488.44         406.2340
   488.58         407.3077
   488.72         408.4881
   488.86         409.7098
   489.00         410.8738
   489.14         411.8820
   489.28         412.6817
   489.42         413.2518
   489.56         413.5593
   489.70         413.5701
   489.84         413.2737
   489.98         412.7029
   490.12         411.9005
   490.26         410.8926
   490.40         409.7197
   490.54         408.4459
   490.68         407.1734
   490.82         405.9869
   490.96         404.8557
   491.10         403.7010
   491.24         402.5117
   491.38         401.3283
   491.52         400.1772
   491.66         399.0718
   491.80         398.0410
   491.94         397.1321
   492.08         396.4181
   492.22         395.9805
   492.36         395.8848
   492.50         396.1525
   492.64         396.7642
   492.78         397.6817
   492.92         398.8438
   493.06         400.1755
   493.20         401.5870
   493.34         402.9635
   493.48         404.1675
   493.62         405.0713
   493.76         405.6641
   493.90         406.0307
   494.04         406.2204
   494.18         406.2256
   494.32         406.0354
   494.46         405.6787
   494.60         405.1959
   494.74         404.5931
   494.88         403.8559
   495.02         402.9808
   495.16         401.9997
   495.30         400.9809
   495.44         399.9900
   495.58         399.0399
   495.72         398.1231
   495.86         397.2478
   496.00         396.4163
   496.14         395.6280
   496.28         394.9133
   496.42         394.3660
   496.56         394.0759
   496.70         394.0660
   496.84         394.3222
   496.98         394.8195
   497.12         395.5381
   497.26         396.4409
   497.40         397.4532
   497.54         398.4970
   497.68         399.5062
   497.82         400.4095
   497.96         401.1102
   498.10         401.5067
   498.24         401.5286
   498.38         401.1614
   498.52         400.4668
   498.66         399.5721
   498.80         398.6581
   498.94         397.9143
   499.08         397.4149
   499.22         397.0760
   499.36         396.7588
   499.50         396.3558
   499.64         395.8196
   499.78         395.1623
   499.92         394.3876
   500.06         393.4369
   500.20         392.2122
   500.34         390.6177
   500.48         388.6057
   500.62         386.2168
   500.76         383.6153
   500.90         381.0632
   501.04         378.8103
   501.18         377.0385
   501.32         375.8513
   501.46         375.2546
   501.60         375.1604
   501.74         375.4117
   501.88         375.8740
   502.02         376.4666
   502.16         377.1195
   502.30         377.7729
   502.44         378.3416
   502.58         378.7017
   502.72         378.7442
   502.86         378.4229
   503.00         377.7878
   503.14         376.9537
   503.28         376.0422
   503.42         375.1530
   503.56         374.3175
   503.70         373.4890
   503.84         372.6380
   503.98         371.7886
   504.12         370.9581
   504.26         370.1463
   504.40         369.3718
   504.54         368.6982
   504.68         368.2078
   504.82         367.9575
   504.96         367.9431
   505.10         368.0913
   505.24         368.3195
   505.38         368.5519
   505.52         368.7180
   505.66         368.7803
   505.80         368.7143
   505.94         368.4891
   506.08         368.0971
   506.22         367.5720
   506.36         366.9907
   506.50         366.4504
   506.64         366.0094
   506.78         365.6740
   506.92         365.4309
   507.06         365.2712
   507.20         365.1703
   507.34         365.0699
   507.48         364.9044
   507.62         364.6514
   507.76         364.3231
   507.90         363.9279
   508.04         363.4723
   508.18         362.9711
   508.32         362.4376
   508.46         361.8570
   508.60         361.2253
   508.74         360.5956
   508.88         360.0287
   509.02         359.5381
   509.16         359.0863
   509.30         358.6121
   509.44         358.0872
   509.58         357.5321
   509.72         356.9822
   509.86         356.4682
   510.00         356.0398
   510.14         355.7710
   510.28         355.7062
   510.42         355.8288
   510.56         356.1066
   510.70         356.5098
   510.84         356.9590
   510.98         357.3393
   511.12         357.5692
   511.26         357.6234
   511.40         357.4962
   511.54         357.1666
   511.68         356.6033
   511.82         355.8067
   511.96         354.8399
   512.10         353.8001
   512.24         352.7543
   512.38         351.7266
   512.52         350.7445
   512.66         349.8337
   512.80         348.9781
   512.94         348.1444
   513.08         347.3421
   513.22         346.6082
   513.36         345.9879
   513.50         345.5331
   513.64         345.2928
   513.78         345.3050
   513.92         345.5710
   514.06         346.0339
   514.20         346.5620
   514.34         346.9960
   514.48         347.2277
   514.62         347.2078
   514.76         346.9064
   514.90         346.3054
   515.04         345.4229
   515.18         344.3268
   515.32         343.1003
   515.46         341.8522
   515.60         340.7306
   515.74         339.8498
   515.88         339.2346
   516.02         338.8577
   516.16         338.6800
   516.30         338.6614
   516.44         338.7731
   516.58         338.9838
   516.72         339.2309
   516.86         339.4362
   517.00         339.5718
   517.14         339.6643
   517.28         339.7316
   517.42         339.7558
   517.56         339.6959
   517.70         339.4938
   517.84         339.0948
   517.98         338.4704
   518.12         337.6421
   518.26         336.6683
   518.40         335.6136
   518.54         334.5429
   518.68         333.5043
   518.82         332.5193
   518.96         331.5896
   519.10         330.7051
   519.24         329.8259
   519.38         328.8970
   519.52         327.9127
   519.66         326.9515
   519.80         326.1098
   519.94         325.4323
   520.08         324.9264
   520.22         324.5762
   520.36         324.3527
   520.50         324.2858
   520.64         324.4400
   520.78         324.8162
   520.92         325.3523
   521.06         325.9373
   521.20         326.4221
   521.34         326.6612
   521.48         326.5698
   521.62         326.1429
   521.76         325.4040
   521.90         324.3862
   522.04         323.1693
   522.18         321.8536
   522.32         320.5151
   522.46         319.2218
   522.60         318.0651
   522.74         317.1385
   522.88         316.5206
   523.02         316.2783
   523.16         316.4468
   523.30         316.9709
   523.44         317.7252
   523.58         318.5928
   523.72         319.4538
   523.86         320.1705
   524.00         320.6143
   524.14         320.6945
   524.28         320.3641
   524.42         319.6166
   524.56         318.5141
   524.70         317.1821
   524.84         315.7684
   524.98         314.4295
   525.12         313.3068
   525.26         312.4650
   525.40         311.8746
   525.54         311.4736
   525.68         311.2008
   525.82         310.9795
   525.96         310.7318
   526.10         310.4059
   526.24         309.9730
   526.38         309.4135
   526.52         308.7224
   526.66         307.9438
   526.80         307.1695
   526.94         306.5029
   527.08         306.0340
   527.22         305.8169
   527.36         305.8381
   527.50         306.0131
   527.64         306.2441
   527.78         306.4584
   527.92         306.5988
   528.06         306.6268
   528.20         306.5411
   528.34         306.3581
   528.48         306.0828
   528.62         305.7267
   528.76         305.3218
   528.90         304.9137
   529.04         304.5513
   529.18         304.2734
   529.32         304.1134
   529.46         304.0869
   529.60         304.1652
   529.74         304.2729
   529.88         304.3203
   530.02         304.2382
   530.16         303.9882
   530.30         303.5681
   530.44         303.0042
   530.58         302.3283
   530.72         301.5684
   530.86         300.7573
   531.00         299.9408
   531.14         299.1781
   531.28         298.5359
   531.42         298.0790
   531.56         297.8455
   531.70         297.8149
   531.84         297.9303
   531.98         298.1395
   532.12         298.3889
   532.26         298.6315
   532.40         298.8419
   532.54         299.0181
   532.68         299.1695
   532.82         299.3051
   532.96         299.4367
   533.10         299.5726
   533.24         299.7058
   533.38         299.8247
   533.52         299.9319
   533.66         300.0414
   533.80         300.1553
   533.94         300.2455
   534.08         300.2659
   534.22         300.1744
   534.36         299.9412
   534.50         299.5633
   534.64         299.0393
   534.78         298.3608
   534.92         297.5448
   535.06         296.6233
   535.20         295.6467
   535.34         294.6826
   535.48         293.7892
   535.62         293.0036
   535.76         292.3425
   535.90         291.8130
   536.04         291.4141
   536.18         291.1284
   536.32         290.9214
   536.46         290.7422
   536.60         290.5301
   536.74         290.2447
   536.88         289.8695
   537.02         289.4018
   537.16         288.8540
   537.30         288.2389
   537.44         287.5872
   537.58         286.9468
   537.72         286.3503
   537.86         285.8106
   538.00         285.3167
   538.14         284.8575
   538.28         284.4519
   538.42         284.1258
   538.56         283.8870
   538.70         283.7306
   538.84         283.6408
   538.98         283.5745
   539.12         283.4661
   539.26         283.2593
   539.40         282.9198
   539.54         282.4091
   539.68         281.6589
   539.82         280.5829
   539.96         279.1099
   540.10         277.2450
   540.24         275.0690
   540.38         272.7021
   540.52         270.2985
   540.66         268.0249
   540.80         266.0461
   540.94         264.5020
   541.08         263.4852
   541.22         263.0627
   541.36         263.2706
   541.50         264.0694
   541.64         265.3475
   541.78         266.9718
   541.92         268.7957
   542.06         270.6400
   542.20         272.3172
   542.34         273.6873
   542.48         274.6874
   542.62         275.3104
   542.76         275.5947
   542.90         275.6086
   543.04         275.4308
   543.18         275.1312
   543.32         274.7452
   543.46         274.2818
   543.60         273.7397
   543.74         273.1186
   543.88         272.4298
   544.02         271.6684
   544.16         270.8063
   544.30         269.8322
   544.44         268.7742
   544.58         267.6909
   544.72         266.6525
   544.86         265.7313
   545.00         265.0023
   545.14         264.5267
   545.28         264.3460
   545.42         264.4789
   545.56         264.8623
   545.70         265.3531
   545.84         265.7969
   545.98         266.0670
   546.12         266.0952
   546.26         265.8839
   546.40         265.4893
   546.54         264.9902
   546.68         264.4561
   546.82         263.9361
   546.96         263.4742
   547.10         263.1079
   547.24         262.8491
   547.38         262.6786
   547.52         262.5579
   547.66         262.4452
   547.80         262.2921
   547.94         262.0539
   548.08         261.6927
   548.22         261.1800
   548.36         260.5435
   548.50         259.8584
   548.64         259.1884
   548.78         258.5758
   548.92         258.0647
   549.06         257.6995
   549.20         257.4978
   549.34         257.4297
   549.48         257.4294
   549.62         257.4313
   549.76         257.3938
   549.90         257.3093
   550.04         257.1838
   550.18         257.0156
   550.32         256.8009
   550.46         256.5320
   550.60         256.2024
   550.74         255.8095
   550.88         255.3513
   551.02         254.8285
   551.16         254.2438
   551.30         253.6017
   551.44         252.9254
   551.58         252.2589
   551.72         251.6269
   551.86         251.0185
   552.00         250.4140
   552.14         249.8049
   552.28         249.2016
   552.42         248.6423
   552.56         248.1772
   552.70         247.8256
   552.84         247.5737
   552.98         247.3979
   553.12         247.2711
   553.26         247.1683
   553.40         247.0783
   553.54         247.0072
   553.68         246.9768
   553.82         247.0140
   553.96         247.1384
   554.10         247.3508
   554.24         247.6280
   554.38         247.9331
   554.52         248.2324
   554.66         248.5012
   554.80         248.7229
   554.94         248.8941
   555.08         249.0189
   555.22         249.0939
   555.36         249.1000
   555.50         249.0195
   555.64         248.8558
   555.78         248.6323
   555.92         248.3844
   556.06         248.1517
   556.20         247.9582
   556.34         247.8019
   556.48         247.6742
   556.62         247.5826
   556.76         247.5483
   556.90         247.5878
   557.04         247.7080
   557.18         247.8991
   557.32         248.1236
   557.46         248.3243
   557.60         248.4472
   557.74         248.4605
   557.88         248.3271
   558.02         247.9802
   558.16         247.3562
   558.30         246.4397
   558.44         245.2707
   558.58         243.9295
   558.72         242.5196
   558.86         241.1507
   559.00         239.9319
   559.14         238.9567
   559.28         238.2818
   559.42         237.9141
   559.56         237.8279
   559.70         237.9955
   559.84         238.3766
   559.98         238.9108
   560.12         239.5379
   560.26         240.1953
   560.40         240.7952
   560.54         241.2279
   560.68         241.4163
   560.82         241.3582
   560.96         241.1005
   561.10         240.6875
   561.24         240.1488
   561.38         239.5166
   561.52         238.8284
   561.66         238.1284
   561.80         237.4621
   561.94         236.8738
   562.08         236.4000
   562.22         236.0666
   562.36         235.8831
   562.50         235.8393
   562.64         235.9281
   562.78         236.1327
   562.92         236.4013
   563.06         236.6772
   563.20         236.9198
   563.34         237.1101
   563.48         237.2523
   563.62         237.3543
   563.76         237.4200
   563.90         237.4577
   564.04         237.4725
   564.18         237.4580
   564.32         237.3965
   564.46         237.2728
   564.60         237.0795
   564.74         236.8076
   564.88         236.4527
   565.02         236.0151
   565.16         235.4951
   565.30         234.8910
   565.44         234.1890
   565.58         233.3941
   565.72         232.5597
   565.86         231.7470
   566.00         230.9995
   566.14         230.3414
   566.28         229.7776
   566.42         229.3070
   566.56         228.9312
   566.70         228.6663
   566.84         228.5394
   566.98         228.5635
   567.12         228.7338
   567.26         229.0242
   567.40         229.3922
   567.54         229.7862
   567.68         230.1419
   567.82         230.4108
   567.96         230.5788
   568.10         230.6664
   568.24         230.7406
   568.38         230.8840
   568.52         231.1504
   568.66         231.5601
   568.80         232.0939
   568.94         232.6959
   569.08         233.2877
   569.22         233.7725
   569.36         234.0481
   569.50         234.0166
   569.64         233.6011
   569.78         232.7767
   569.92         231.5820
   570.06         230.1246
   570.20         228.5544
   570.34         227.0241
   570.48         225.6809
   570.62         224.6484
   570.76         223.9937
   570.90         223.7145
   571.04         223.7493
   571.18         224.0044
   571.32         224.3670
   571.46         224.7279
   571.60         225.0091
   571.74         225.1493
   571.88         225.1051
   572.02         224.8772
   572.16         224.5117
   572.30         224.0731
   572.44         223.6129
   572.58         223.1640
   572.72         222.7465
   572.86         222.3525
   573.00         221.9544
   573.14         221.5378
   573.28         221.0922
   573.42         220.5885
   573.56         220.0100
   573.70         219.3801
   573.84         218.7328
   573.98         218.0865
   574.12         217.4594
   574.26         216.8768
   574.40         216.3724
   574.54         215.9901
   574.68         215.7566
   574.82         215.6568
   574.96         215.6327
   575.10         215.6137
   575.24         215.5486
   575.38         215.3994
   575.52         215.1331
   575.66         214.7277
   575.80         214.1813
   575.94         213.5088
   576.08         212.7238
   576.22         211.8497
   576.36         210.9165
   576.50         209.9240
   576.64         208.8294
   576.78         207.5524
   576.92         206.0215
   577.06         204.2258
   577.20         202.2121
   577.34         200.0765
   577.48         197.9601
   577.62         196.0182
   577.76         194.3963
   577.90         193.2157
   578.04         192.5578
   578.18         192.4527
   578.32         192.8558
   578.46         193.6544
   578.60         194.6920
   578.74         195.7819
   578.88         196.7367
   579.02         197.4031
   579.16         197.6947
   579.30         197.6093
   579.44         197.2185
   579.58         196.6637
   579.72         196.1095
   579.86         195.6789
   580.00         195.4401
   580.14         195.4143
   580.28         195.5984
   580.42         195.9840
   580.56         196.5457
   580.70         197.2231
   580.84         197.9405
   580.98         198.6469
   581.12         199.3322
   581.26         199.9983
   581.40         200.6347
   581.54         201.2317
   581.68         201.7980
   581.82         202.3581
   581.96         202.9191
   582.10         203.4543
   582.24         203.9217
   582.38         204.2877
   582.52         204.5364
   582.66         204.6683
   582.80         204.7029
   582.94         204.6724
   583.08         204.5908
   583.22         204.4420
   583.36         204.2096
   583.50         203.8935
   583.64         203.4912
   583.78         202.9870
   583.92         202.3727
   584.06         201.6779
   584.20         200.9595
   584.34         200.2708
   584.48         199.6547
   584.62         199.1385
   584.76         198.7237
   584.90         198.4021
   585.04         198.1712
   585.18         198.0243
   585.32         197.9429
   585.46         197.9009
   585.60         197.8664
   585.74         197.8034
   585.88         197.6642
   586.02         197.3653
   586.16         196.7849
   586.30         195.8269
   586.44         194.4845
   586.58         192.8419
   586.72         191.0418
   586.86         189.2319
   587.00         187.5374
   587.14         186.0776
   587.28         184.9561
   587.42         184.2098
   587.56         183.7762
   587.70         183.5228
   587.84         183.3233
   587.98         183.0801
   588.12         182.6800
   588.26         182.0012
   588.40         180.9868
   588.54         179.6771
   588.68         178.1873
   588.82         176.7166
   588.96         175.5326
   589.10         174.8771
   589.24         174.8883
   589.38         175.5934
   589.52         176.9264
   589.66         178.7536
   589.80         180.9062
   589.94         183.1954
   590.08         185.4271
   590.22         187.4410
   590.36         189.1533
   590.50         190.5408
   590.64         191.5688
   590.78         192.1901
   590.92         192.4167
   591.06         192.3302
   591.20         192.0136
   591.34         191.5106
   591.48         190.8534
   591.62         190.0887
   591.76         189.2747
   591.90         188.4725
   592.04         187.7434
   592.18         187.1418
   592.32         186.7088
   592.46         186.4769
   592.60         186.4662
   592.74         186.6629
   592.88         187.0204
   593.02         187.4728
   593.16         187.9470
   593.30         188.3759
   593.44         188.7073
   593.58         188.9167
   593.72         189.0045
   593.86         188.9753
   594.00         188.8294
   594.14         188.5799
   594.28         188.2618
   594.42         187.9107
   594.56         187.5559
   594.70         187.2338
   594.84         186.9798
   594.98         186.8089
   595.12         186.7092
   595.26         186.6459
   595.40         186.5682
   595.54         186.4264
   595.68         186.1858
   595.82         185.8392
   595.96         185.4004
   596.10         184.8835
   596.24         184.3014
   596.38         183.6773
   596.52         183.0356
   596.66         182.3941
   596.80         181.7786
   596.94         181.2387
   597.08         180.8410
   597.22         180.6248
   597.36         180.5795
   597.50         180.6676
   597.64         180.8410
   597.78         181.0511
   597.92         181.2528
   598.06         181.4157
   598.20         181.5311
   598.34         181.6065
   598.48         181.6573
   598.62         181.6888
   598.76         181.6969
   598.90         181.6833
   599.04         181.6549
   599.18         181.6079
   599.32         181.5271
   599.46         181.3945
   599.60         181.1839
   599.74         180.8524
   599.88         180.3456
   600.02         179.6409
   600.16         178.7714
   600.30         177.8015
   600.44         176.8190
   600.58         175.9293
   600.72         175.2334
   600.86         174.7960
   601.00         174.6312
   601.14         174.7180
   601.28         175.0058
   601.42         175.4267
   601.56         175.9106
   601.70         176.3909
   601.84         176.8027
   601.98         177.0745
   602.12         177.1322
   602.26         176.9349
   602.40         176.4959
   602.54         175.8605
   602.68         175.0973
   602.82         174.2923
   602.96         173.5301
   603.10         172.8859
   603.24         172.4159
   603.38         172.1442
   603.52         172.0718
   603.66         172.1950
   603.80         172.4865
   603.94         172.8932
   604.08         173.3642
   604.22         173.8565
   604.36         174.3304
   604.50         174.7464
   604.64         175.0796
   604.78         175.3289
   604.92         175.5184
   605.06         175.6842
   605.20         175.8516
   605.34         176.0248
   605.48         176.1845
   605.62         176.3007
   605.76         176.3495
   605.90         176.3098
   606.04         176.1595
   606.18         175.8815
   606.32         175.4670
   606.46         174.9105
   606.60         174.2271
   606.74         173.4669
   606.88         172.7002
   607.02         171.9970
   607.16         171.4051
   607.30         170.9499
   607.44         170.6437
   607.58         170.4843
   607.72         170.4532
   607.86         170.5189
   608.00         170.6432
   608.14         170.7944
   608.28         170.9488
   608.42         171.0820
   608.56         171.1747
   608.70         171.2196
   608.84         171.2125
   608.98         171.1462
   609.12         171.0210
   609.26         170.8524
   609.40         170.6650
   609.54         170.4763
   609.68         170.2873
   609.82         170.0838
   609.96         169.8453
   610.10         169.5582
   610.24         169.2256
   610.38         168.8677
   610.52         168.5130
   610.66         168.1792
   610.80         167.8739
   610.94         167.6074
   611.08         167.3938
   611.22         167.2434
   611.36         167.1517
   611.50         167.0930
   611.64         167.0358
   611.78         166.9568
   611.92         166.8391
   612.06         166.6728
   612.20         166.4505
   612.34         166.1532
   612.48         165.7668
   612.62         165.3058
   612.76         164.8105
   612.90         164.3271
   613.04         163.8895
   613.18         163.5229
   613.32         163.2435
   613.46         163.0576
   613.60         162.9613
   613.74         162.9305
   613.88         162.9383
   614.02         162.9726
   614.16         163.0271
   614.30         163.1004
   614.44         163.1952
   614.58         163.2998
   614.72         163.3863
   614.86         163.4254
   615.00         163.4107
   615.14         163.3665
   615.28         163.3004
   615.42         163.1814
   615.56         162.9730
   615.70         162.6431
   615.84         162.1624
   615.98         161.5143
   616.12         160.7114
   616.26         159.7907
   616.40         158.8077
   616.54         157.8475
   616.68         157.0013
   616.82         156.3280
   616.96         155.8558
   617.10         155.5989
   617.24         155.5630
   617.38         155.7504
   617.52         156.1437
   617.66         156.6886
   617.80         157.3027
   617.94         157.9033
   618.08         158.4370
   618.22         158.8763
   618.36         159.1946
   618.50         159.3766
   618.64         159.4413
   618.78         159.4201
   618.92         159.3305
   619.06         159.1827
   619.20         158.9902
   619.34         158.7617
   619.48         158.5081
   619.62         158.2578
   619.76         158.0435
   619.90         157.8790
   620.04         157.7562
   620.18         157.6519
   620.32         157.5518
   620.46         157.4716
   620.60         157.4336
   620.74         157.4324
   620.88         157.4371
   621.02         157.4142
   621.16         157.3527
   621.30         157.2677
   621.44         157.1712
   621.58         157.0606
   621.72         156.9409
   621.86         156.8368
   622.00         156.7728
   622.14         156.7485
   622.28         156.7312
   622.42         156.6744
   622.56         156.5527
   622.70         156.3721
   622.84         156.1617
   622.98         155.9679
   623.12         155.8268
   623.26         155.7371
   623.40         155.6771
   623.54         155.6391
   623.68         155.6291
   623.82         155.6535
   623.96         155.7137
   624.10         155.7922
   624.24         155.8545
   624.38         155.8719
   624.52         155.8309
   624.66         155.7271
   624.80         155.5717
   624.94         155.3993
   625.08         155.2511
   625.22         155.1518
   625.36         155.0969
   625.50         155.0577
   625.64         154.9859
   625.78         154.8152
   625.92         154.4826
   626.06         153.9607
   626.20         153.2608
   626.34         152.4017
   626.48         151.3969
   626.62         150.2565
   626.76         148.9841
   626.90         147.5877
   627.04         146.0873
   627.18         144.5052
   627.32         142.8638
   627.46         141.2025
   627.60         139.5876
   627.74         138.1047
   627.88         136.8469
   628.02         135.9069
   628.16         135.3650
   628.30         135.2830
   628.44         135.7016
   628.58         136.6364
   628.72         138.0656
   628.86         139.9094
   629.00         142.0278
   629.14         144.2469
   629.28         146.3898
   629.42         148.3085
   629.56         149.8966
   629.70         151.0799
   629.84         151.8245
   629.98         152.1519
   630.12         152.1321
   630.26         151.8529
   630.40         151.3916
   630.54         150.8066
   630.68         150.1480
   630.82         149.4671
   630.96         148.8171
   631.10         148.2515
   631.24         147.8184
   631.38         147.5539
   631.52         147.4820
   631.66         147.6133
   631.80         147.9318
   631.94         148.4027
   632.08         148.9931
   632.22         149.6659
   632.36         150.3755
   632.50         151.0736
   632.64         151.7204
   632.78         152.2897
   632.92         152.7512
   633.06         153.0644
   633.20         153.1955
   633.34         153.1333
   633.48         152.8936
   633.62         152.5169
   633.76         152.0471
   633.90         151.5122
   634.04         150.9250
   634.18         150.2903
   634.32         149.6137
   634.46         148.9143
   634.60         148.2352
   634.74         147.6290
   634.88         147.1338
   635.02         146.7735
   635.16         146.5615
   635.30         146.4912
   635.44         146.5241
   635.58         146.5979
   635.72         146.6612
   635.86         146.6918
   636.00         146.6860
   636.14         146.6459
   636.28         146.5692
   636.42         146.4419
   636.56         146.2523
   636.70         146.0025
   636.84         145.7021
   636.98         145.3637
   637.12         145.0064
   637.26         144.6517
   637.40         144.3232
   637.54         144.0531
   637.68         143.8709
   637.82         143.7844
   637.96         143.7845
   638.10         143.8579
   638.24         143.9967
   638.38         144.1977
   638.52         144.4506
   638.66         144.7259
   638.80         144.9848
   638.94         145.1964
   639.08         145.3413
   639.22         145.4078
   639.36         145.3881
   639.50         145.2805
   639.64         145.0953
   639.78         144.8528
   639.92         144.5738
   640.06         144.2738
   640.20         143.9584
   640.34         143.6283
   640.48         143.2985
   640.62         142.9906
   640.76         142.7144
   640.90         142.4787
   641.04         142.3003
   641.18         142.1851
   641.32         142.1213
   641.46         142.0925
   641.60         142.0826
   641.74         142.0766
   641.88         142.0646
   642.02         142.0394
   642.16         141.9966
   642.30         141.9405
   642.44         141.8853
   642.58         141.8413
   642.72         141.8019
   642.86         141.7573
   643.00         141.7126
   643.14         141.6710
   643.28         141.6210
   643.42         141.5484
   643.56         141.4478
   643.70         141.3227
   643.84         141.1795
   643.98         141.0304
   644.12         140.8992
   644.26         140.8143
   644.40         140.7934
   644.54         140.8350
   644.68         140.9216
   644.82         141.0328
   644.96         141.1545
   645.10         141.2677
   645.24         141.3405
   645.38         141.3476
   645.52         141.2879
   645.66         141.1678
   645.80         140.9852
   645.94         140.7448
   646.08         140.4648
   646.22         140.1680
   646.36         139.8762
   646.50         139.6054
   646.64         139.3634
   646.78         139.1555
   646.92         138.9959
   647.06         138.9022
   647.20         138.8839
   647.34         138.9399
   647.48         139.0642
   647.62         139.2436
   647.76         139.4486
   647.90         139.6390
   648.04         139.7792
   648.18         139.8467
   648.32         139.8301
   648.46         139.7365
   648.60         139.6020
   648.74         139.4743
   648.88         139.3904
   649.02         139.3759
   649.16         139.4522
   649.30         139.6332
   649.44         139.9121
   649.58         140.2580
   649.72         140.6183
   649.86         140.9321
   650.00         141.1512
   650.14         141.2392
   650.28         141.1646
   650.42         140.9109
   650.56         140.4924
   650.70         139.9565
   650.84         139.3651
   650.98         138.7666
   651.12         138.1929
   651.26         137.6676
   651.40         137.1957
   651.54         136.7599
   651.68         136.3344
   651.82         135.8972
   651.96         135.4344
   652.10         134.9471
   652.24         134.4638
   652.38         134.0303
   652.52         133.6903
   652.66         133.4769
   652.80         133.4088
   652.94         133.4905
   653.08         133.7191
   653.22         134.0835
   653.36         134.5562
   653.50         135.0839
   653.64         135.6031
   653.78         136.0660
   653.92         136.4427
   654.06         136.7158
   654.20         136.8828
   654.34         136.9569
   654.48         136.9544
   654.62         136.8876
   654.76         136.7748
   654.90         136.6473
   655.04         136.5485
   655.18         136.5377
   655.32         136.6827
   655.46         137.0360
   655.60         137.6173
   655.74         138.4102
   655.88         139.3637
   656.02         140.3944
   656.16         141.4004
   656.30         142.2885
   656.44         142.9899
   656.58         143.4641
   656.72         143.6926
   656.86         143.6634
   657.00         143.3726
   657.14         142.8384
   657.28         142.1077
   657.42         141.2541
   657.56         140.3622
   657.70         139.5041
   657.84         138.7246
   657.98         138.0323
   658.12         137.4019
   658.26         136.8029
   658.40         136.2251
   658.54         135.6775
   658.68         135.1834
   658.82         134.7815
   658.96         134.5128
   659.10         134.4007
   659.24         134.4459
   659.38         134.6232
   659.52         134.8863
   659.66         135.1950
   659.80         135.5252
   659.94         135.8422
   660.08         136.0881
   660.22         136.2085
   660.36         136.1748
   660.50         135.9785
   660.64         135.6250
   660.78         135.1421
   660.92         134.5895
   661.06         134.0413
   661.20         133.5649
   661.34         133.2154
   661.48         133.0268
   661.62         133.0132
   661.76         133.1800
   661.90         133.5182
   662.04         133.9913
   662.18         134.5469
   662.32         135.1362
   662.46         135.7050
   662.60         136.1879
   662.74         136.5347
   662.88         136.7291
   663.02         136.7691
   663.16         136.6544
   663.30         136.3911
   663.44         136.0010
   663.58         135.5205
   663.72         134.9846
   663.86         134.4175
   664.00         133.8344
   664.14         133.2519
   664.28         132.7003
   664.42         132.2096
   664.56         131.7916
   664.70         131.4576
   664.84         131.2309
   664.98         131.1210
   665.12         131.1125
   665.26         131.1854
   665.40         131.3222
   665.54         131.5081
   665.68         131.7323
   665.82         131.9830
   665.96         132.2373
   666.10         132.4674
   666.24         132.6392
   666.38         132.6939
   666.52         132.5589
   666.66         132.1789
   666.80         131.5345
   666.94         130.6428
   667.08         129.5474
   667.22         128.3202
   667.36         127.0611
   667.50         125.8765
   667.64         124.8651
   667.78         124.1225
   667.92         123.7273
   668.06         123.7118
   668.20         124.0643
   668.34         124.7386
   668.48         125.6519
   668.62         126.6878
   668.76         127.7272
   668.90         128.6758
   669.04         129.4696
   669.18         130.0766
   669.32         130.4959
   669.46         130.7467
   669.60         130.8535
   669.74         130.8467
   669.88         130.7638
   670.02         130.6397
   670.16         130.4963
   670.30         130.3412
   670.44         130.1753
   670.58         130.0037
   670.72         129.8418
   670.86         129.7076
   671.00         129.6084
   671.14         129.5379
   671.28         129.4920
   671.42         129.4852
   671.56         129.5315
   671.70         129.6143
   671.84         129.6987
   671.98         129.7539
   672.12         129.7580
   672.26         129.7034
   672.40         129.6004
   672.54         129.4649
   672.68         129.3063
   672.82         129.1288
   672.96         128.9385
   673.10         128.7468
   673.24         128.5640
   673.38         128.3935
   673.52         128.2340
   673.66         128.0851
   673.80         127.9432
   673.94         127.7981
   674.08         127.6456
   674.22         127.4911
   674.36         127.3451
   674.50         127.2198
   674.64         127.1195
   674.78         127.0416
   674.92         126.9830
   675.06         126.9389
   675.20         126.9019
   675.34         126.8645
   675.48         126.8186
   675.62         126.7560
   675.76         126.6719
   675.90         126.5699
   676.04         126.4572
   676.18         126.3395
   676.32         126.2182
   676.46         126.0892
   676.60         125.9544
   676.74         125.8368
   676.88         125.7650
   677.02         125.7478
   677.16         125.7712
   677.30         125.8128
   677.44         125.8549
   677.58         125.8904
   677.72         125.9266
   677.86         125.9792
   678.00         126.0611
   678.14         126.1739
   678.28         126.3101
   678.42         126.4644
   678.56         126.6371
   678.70         126.8250
   678.84         127.0119
   678.98         127.1671
   679.12         127.2565
   679.26         127.2635
   679.40         127.1963
   679.54         127.0699
   679.68         126.9000
   679.82         126.7089
   679.96         126.5222
   680.10         126.3674
   680.24         126.2684
   680.38         126.2270
   680.52         126.2124
   680.66         126.1802
   680.80         126.0987
   680.94         125.9606
   681.08         125.7772
   681.22         125.5598
   681.36         125.3157
   681.50         125.0603
   681.64         124.8191
   681.78         124.6186
   681.92         124.4784
   682.06         124.4071
   682.20         124.3998
   682.34         124.4397
   682.48         124.4994
   682.62         124.5448
   682.76         124.5444
   682.90         124.4751
   683.04         124.3245
   683.18         124.0932
   683.32         123.7924
   683.46         123.4350
   683.60         123.0279
   683.74         122.5775
   683.88         122.1039
   684.02         121.6335
   684.16         121.1819
   684.30         120.7541
   684.44         120.3540
   684.58         119.9922
   684.72         119.6865
   684.86         119.4516
   685.00         119.2897
   685.14         119.1976
   685.28         119.1654
   685.42         119.1545
   685.56         119.0765
   685.70         118.7892
   685.84         118.1341
   685.98         116.9967
   686.12         115.3352
   686.26         113.1727
   686.40         110.5846
   686.54         107.6937
   686.68         104.6615
   686.82         101.6898
   686.96         99.0149
   687.10         96.8695
   687.24         95.4320
   687.38         94.7877
   687.52         94.9180
   687.66         95.7086
   687.80         96.9701
   687.94         98.4652
   688.08         99.9455
   688.22         101.2004
   688.36         102.1010
   688.50         102.6194
   688.64         102.8047
   688.78         102.7397
   688.92         102.5180
   689.06         102.2467
   689.20         102.0442
   689.34         102.0182
   689.48         102.2444
   689.62         102.7486
   689.76         103.4937
   689.90         104.3955
   690.04         105.3649
   690.18         106.3285
   690.32         107.2288
   690.46         108.0346
   690.60         108.7435
   690.74         109.3647
   690.88         109.9111
   691.02         110.4035
   691.16         110.8601
   691.30         111.2873
   691.44         111.6900
   691.58         112.0781
   691.72         112.4573
   691.86         112.8253
   692.00         113.1805
   692.14         113.5271
   692.28         113.8644
   692.42         114.1852
   692.56         114.4841
   692.70         114.7570
   692.84         114.9937
   692.98         115.1847
   693.12         115.3252
   693.26         115.4125
   693.40         115.4538
   693.54         115.4658
   693.68         115.4599
   693.82         115.4354
   693.96         115.3935
   694.10         115.3479
   694.24         115.3171
   694.38         115.3155
   694.52         115.3537
   694.66         115.4358
   694.80         115.5519
   694.94         115.6742
   695.08         115.7684
   695.22         115.8153
   695.36         115.8132
   695.50         115.7724
   695.64         115.7156
   695.78         115.6753
   695.92         115.6872
   696.06         115.7827
   696.20         115.9718
   696.34         116.2410
   696.48         116.5689
   696.62         116.9348
   696.76         117.3174
   696.90         117.6934
   697.04         118.0382
   697.18         118.3313
   697.32         118.5611
   697.46         118.7206
   697.60         118.8039
   697.74         118.8162
   697.88         118.7757
   698.02         118.6955
   698.16         118.5763
   698.30         118.4166
   698.44         118.2137
   698.58         117.9600
   698.72         117.6469
   698.86         117.2702
   699.00         116.8428
   699.14         116.3992
   699.28         115.9773
   699.42         115.6087
   699.56         115.3227
   699.70         115.1404
   699.84         115.0668
   699.98         115.0926
   700.12         115.2048
   700.26         115.3899
   700.40         115.6261
   700.54         115.8802
   700.68         116.1178
   700.82         116.3187
   700.96         116.4830
   701.10         116.6215
   701.24         116.7418
   701.38         116.8477
   701.52         116.9417
   701.66         117.0217
   701.80         117.0771
   701.94         117.0910
   702.08         117.0516
   702.22         116.9536
   702.36         116.7943
   702.50         116.5788
   702.64         116.3209
   702.78         116.0364
   702.92         115.7402
   703.06         115.4488
   703.20         115.1789
   703.34         114.9452
   703.48         114.7603
   703.62         114.6384
   703.76         114.5824
   703.90         114.5717
   704.04         114.5775
   704.18         114.5859
   704.32         114.5980
   704.46         114.6183
   704.60         114.6479
   704.74         114.6801
   704.88         114.7035
   705.02         114.7045
   705.16         114.6510
   705.30         114.4774
   705.44         114.1133
   705.58         113.5284
   705.72         112.7398
   705.86         111.7942
   706.00         110.7609
   706.14         109.7241
   706.28         108.7699
   706.42         107.9721
   706.56         107.3864
   706.70         107.0475
   706.84         106.9653
   706.98         107.1321
   707.12         107.5292
   707.26         108.1210
   707.40         108.8532
   707.54         109.6603
   707.68         110.4715
   707.82         111.2198
   707.96         111.8661
   708.10         112.4198
   708.24         112.9186
   708.38         113.3854
   708.52         113.8172
   708.66         114.2023
   708.80         114.5328
   708.94         114.8036
   709.08         115.0009
   709.22         115.1029
   709.36         115.0952
   709.50         114.9825
   709.64         114.7815
   709.78         114.5032
   709.92         114.1559
   710.06         113.7600
   710.20         113.3531
   710.34         112.9777
   710.48         112.6684
   710.62         112.4534
   710.76         112.3561
   710.90         112.3908
   711.04         112.5578
   711.18         112.8435
   711.32         113.2267
   711.46         113.6783
   711.60         114.1562
   711.74         114.6127
   711.88         115.0105
   712.02         115.3272
   712.16         115.5510
   712.30         115.6804
   712.44         115.7234
   712.58         115.6885
   712.72         115.5794
   712.86         115.3954
   713.00         115.1341
   713.14         114.8043
   713.28         114.4320
   713.42         114.0441
   713.56         113.6610
   713.70         113.2978
   713.84         112.9681
   713.98         112.6888
   714.12         112.4808
   714.26         112.3674
   714.40         112.3597
   714.54         112.4422
   714.68         112.5829
   714.82         112.7483
   714.96         112.9031
   715.10         113.0106
   715.24         113.0414
   715.38         112.9757
   715.52         112.7935
   715.66         112.4846
   715.80         112.0556
   715.94         111.5098
   716.08         110.8466
   716.22         110.0804
   716.36         109.2310
   716.50         108.3103
   716.64         107.3348
   716.78         106.3253
   716.92         105.2950
   717.06         104.2493
   717.20         103.1997
   717.34         102.1710
   717.48         101.1956
   717.62         100.3172
   717.76         99.5843
   717.90         99.0267
   718.04         98.6446
   718.18         98.4233
   718.32         98.3639
   718.46         98.4785
   718.60         98.7595
   718.74         99.1740
   718.88         99.6713
   719.02         100.1926
   719.16         100.6898
   719.30         101.1303
   719.44         101.4948
   719.58         101.7841
   719.72         102.0193
   719.86         102.2307
   720.00         102.4604
   720.14         102.7641
   720.28         103.1772
   720.42         103.6904
   720.56         104.2797
   720.70         104.9365
   720.84         105.6562
   720.98         106.4108
   721.12         107.1366
   721.26         107.7599
   721.40         108.2306
   721.54         108.5370
   721.68         108.7018
   721.82         108.7516
   721.96         108.7034
   722.10         108.5778
   722.24         108.3944
   722.38         108.1579
   722.52         107.8610
   722.66         107.4937
   722.80         107.0431
   722.94         106.4975
   723.08         105.8694
   723.22         105.1949
   723.36         104.5064
   723.50         103.8284
   723.64         103.1923
   723.78         102.6426
   723.92         102.2191
   724.06         101.9291
   724.20         101.7525
   724.34         101.6640
   724.48         101.6343
   724.62         101.6368
   724.76         101.6572
   724.90         101.6942
   725.04         101.7576
   725.18         101.8564
   725.32         101.9859
   725.46         102.1356
   725.60         102.3098
   725.74         102.5231
   725.88         102.7824
   726.02         103.0752
   726.16         103.3662
   726.30         103.6004
   726.44         103.7138
   726.58         103.6523
   726.72         103.3956
   726.86         102.9686
   727.00         102.4187
   727.14         101.7933
   727.28         101.1424
   727.42         100.5168
   727.56         99.9576
   727.70         99.4804
   727.84         99.0656
   727.98         98.6817
   728.12         98.3225
   728.26         98.0035
   728.40         97.7329
   728.54         97.5085
   728.68         97.3240
   728.82         97.1690
   728.96         97.0363
   729.10         96.9313
   729.24         96.8755
   729.38         96.9035
   729.52         97.0481
   729.66         97.3162
   729.80         97.6850
   729.94         98.1124
   730.08         98.5488
   730.22         98.9530
   730.36         99.2981
   730.50         99.5760
   730.64         99.8043
   730.78         100.0075
   730.92         100.1938
   731.06         100.3580
   731.20         100.4852
   731.34         100.5498
   731.48         100.5317
   731.62         100.4382
   731.76         100.2984
   731.90         100.1414
   732.04         99.9859
   732.18         99.8366
   732.32         99.6837
   732.46         99.5121
   732.60         99.3183
   732.74         99.1172
   732.88         98.9295
   733.02         98.7685
   733.16         98.6379
   733.30         98.5355
   733.44         98.4600
   733.58         98.4176
   733.72         98.4155
   733.86         98.4495
   734.00         98.5166
   734.14         98.6279
   734.28         98.7930
   734.42         99.0036
   734.56         99.2349
   734.70         99.4580
   734.84         99.6477
   734.98         99.7776
   735.12         99.8203
   735.26         99.7586
   735.40         99.5878
   735.54         99.3035
   735.68         98.8943
   735.82         98.3524
   735.96         97.6895
   736.10         96.9412
   736.24         96.1566
   736.38         95.3882
   736.52         94.6902
   736.66         94.1136
   736.80         93.6956
   736.94         93.4537
   737.08         93.3781
   737.22         93.4316
   737.36         93.5654
   737.50         93.7258
   737.64         93.8608
   737.78         93.9352
   737.92         93.9345
   738.06         93.8546
   738.20         93.7038
   738.34         93.5123
   738.48         93.3287
   738.62         93.2026
   738.76         93.1686
   738.90         93.2401
   739.04         93.4101
   739.18         93.6571
   739.32         93.9450
   739.46         94.2266
   739.60         94.4527
   739.74         94.5768
   739.88         94.5722
   740.02         94.4377
   740.16         94.1860
   740.30         93.8436
   740.44         93.4456
   740.58         93.0223
   740.72         92.5986
   740.86         92.1997
   741.00         91.8447
   741.14         91.5370
   741.28         91.2678
   741.42         91.0249
   741.56         90.7937
   741.70         90.5587
   741.84         90.3068
   741.98         90.0311
   742.12         89.7382
   742.26         89.4493
   742.40         89.1897
   742.54         88.9777
   742.68         88.8248
   742.82         88.7427
   742.96         88.7427
   743.10         88.8248
   743.24         88.9777
   743.38         89.1897
   743.52         89.4493
   743.66         89.7382
   743.80         90.0311
   743.94         90.3068
   744.08         90.5587
   744.22         90.7937
