# File HD108
# Wavelength [nm]    Normalized Amplitude
   349.70         813.1753
   349.84         813.6775
   349.98         814.1004
   350.12         814.4398
   350.26         814.7063
   350.40         814.9414
   350.54         815.1944
   350.68         815.4637
   350.82         815.7000
   350.96         815.8512
   351.10         815.9014
   351.24         815.8512
   351.38         815.7000
   351.52         815.4637
   351.66         815.1944
   351.80         814.9414
   351.94         814.7063
   352.08         814.4398
   352.22         814.1004
   352.36         813.6775
   352.50         813.1753
   352.64         812.5828
   352.78         811.8676
   352.92         811.0012
   353.06         809.9399
   353.20         808.5986
   353.34         806.8657
   353.48         804.6538
   353.62         801.9308
   353.76         798.7291
   353.90         795.1799
   354.04         791.5480
   354.18         788.1584
   354.32         785.2721
   354.46         783.0350
   354.60         781.5108
   354.74         780.6981
   354.88         780.5283
   355.02         780.8459
   355.16         781.4002
   355.30         781.8623
   355.44         781.8949
   355.58         781.2590
   355.72         779.8516
   355.86         777.6695
   356.00         774.7630
   356.14         771.2577
   356.28         767.3824
   356.42         763.4119
   356.56         759.6039
   356.70         756.1210
   356.84         752.9616
   356.98         750.0202
   357.12         747.1775
   357.26         744.3150
   357.40         741.3198
   357.54         738.1274
   357.68         734.7532
   357.82         731.3011
   357.96         727.9680
   358.10         725.0145
   358.24         722.6718
   358.38         721.0519
   358.52         720.1336
   358.66         719.8138
   358.80         719.9410
   358.94         720.3247
   359.08         720.7599
   359.22         721.0632
   359.36         721.1415
   359.50         721.0090
   359.64         720.7366
   359.78         720.3987
   359.92         720.0504
   360.06         719.7486
   360.20         719.5523
   360.34         719.4797
   360.48         719.4783
   360.62         719.4440
   360.76         719.2391
   360.90         718.6808
   361.04         717.5704
   361.18         715.7781
   361.32         713.2960
   361.46         710.2176
   361.60         706.7126
   361.74         702.9958
   361.88         699.2883
   362.02         695.7727
   362.16         692.5165
   362.30         689.5481
   362.44         686.9825
   362.58         684.9714
   362.72         683.6287
   362.86         683.0015
   363.00         683.0505
   363.14         683.6516
   363.28         684.6365
   363.42         685.8409
   363.56         687.1239
   363.70         688.3903
   363.84         689.5901
   363.98         690.6631
   364.12         691.5041
   364.26         691.9980
   364.40         692.0838
   364.54         691.7956
   364.68         691.2325
   364.82         690.5321
   364.96         689.8790
   365.10         689.4132
   365.24         689.1330
   365.38         688.9791
   365.52         688.9225
   365.66         688.9478
   365.80         689.0450
   365.94         689.2193
   366.08         689.4681
   366.22         689.7024
   366.36         689.7634
   366.50         689.5358
   366.64         688.9780
   366.78         688.0950
   366.92         686.9283
   367.06         685.5501
   367.20         684.0424
   367.34         682.4672
   367.48         680.8891
   367.62         679.3926
   367.76         678.0326
   367.90         676.8214
   368.04         675.7488
   368.18         674.7923
   368.32         673.9142
   368.46         673.0621
   368.60         672.1863
   368.74         671.2340
   368.88         670.1345
   369.02         668.8436
   369.16         667.3799
   369.30         665.7897
   369.44         664.1168
   369.58         662.4161
   369.72         660.7696
   369.86         659.2640
   370.00         657.9485
   370.14         656.8023
   370.28         655.7507
   370.42         654.7395
   370.56         653.7701
   370.70         652.8737
   370.84         652.0995
   370.98         651.4791
   371.12         651.0092
   371.26         650.6777
   371.40         650.4531
   371.54         650.2967
   371.68         650.1793
   371.82         650.0840
   371.96         649.9910
   372.10         649.8455
   372.24         649.5784
   372.38         649.1347
   372.52         648.4882
   372.66         647.6657
   372.80         646.7550
   372.94         645.8964
   373.08         645.2474
   373.22         644.9055
   373.36         644.8499
   373.50         644.9618
   373.64         645.0841
   373.78         645.0485
   373.92         644.6560
   374.06         643.6962
   374.20         642.0020
   374.34         639.4377
   374.48         635.9053
   374.62         631.4131
   374.76         626.1218
   374.90         620.3521
   375.04         614.5837
   375.18         609.3443
   375.32         605.0165
   375.46         601.7734
   375.60         599.6265
   375.74         598.4785
   375.88         598.1129
   376.02         598.2384
   376.16         598.6223
   376.30         599.1447
   376.44         599.7660
   376.58         600.5052
   376.72         601.4374
   376.86         602.6623
   377.00         604.2533
   377.14         606.2547
   377.28         608.7136
   377.42         611.6688
   377.56         615.0812
   377.70         618.7529
   377.84         622.2971
   377.98         625.2902
   378.12         627.4473
   378.26         628.6381
   378.40         628.8350
   378.54         628.0738
   378.68         626.4778
   378.82         624.2658
   378.96         621.7461
   379.10         619.3048
   379.24         617.3386
   379.38         616.1674
   379.52         615.9696
   379.66         616.7743
   379.80         618.4835
   379.94         620.9221
   380.08         623.8749
   380.22         627.0783
   380.36         630.2075
   380.50         632.9385
   380.64         635.0412
   380.78         636.3867
   380.92         636.9428
   381.06         636.7948
   381.20         636.1400
   381.34         635.2368
   381.48         634.3237
   381.62         633.5617
   381.76         632.9801
   381.90         632.4384
   382.04         631.6538
   382.18         630.3163
   382.32         628.2411
   382.46         625.4109
   382.60         621.9460
   382.74         618.0711
   382.88         614.0402
   383.02         610.1103
   383.16         606.5806
   383.30         603.7643
   383.44         601.8992
   383.58         601.1030
   383.72         601.3632
   383.86         602.5173
   384.00         604.2715
   384.14         606.2624
   384.28         608.1400
   384.42         609.6187
   384.56         610.4865
   384.70         610.6384
   384.84         610.1125
   384.98         609.0441
   385.12         607.5923
   385.26         605.9264
   385.40         604.2175
   385.54         602.6039
   385.68         601.1841
   385.82         600.0207
   385.96         599.1185
   386.10         598.4218
   386.24         597.8508
   386.38         597.3129
   386.52         596.7067
   386.66         595.9479
   386.80         594.9636
   386.94         593.6705
   387.08         591.9676
   387.22         589.7750
   387.36         587.0906
   387.50         584.0081
   387.64         580.6964
   387.78         577.3460
   387.92         574.1128
   388.06         571.1045
   388.20         568.4072
   388.34         566.1194
   388.48         564.3543
   388.62         563.2195
   388.76         562.7961
   388.90         563.1246
   389.04         564.1842
   389.18         565.8859
   389.32         568.0834
   389.46         570.5722
   389.60         573.1100
   389.74         575.4909
   389.88         577.5833
   390.02         579.2952
   390.16         580.5454
   390.30         581.2383
   390.44         581.2718
   390.58         580.5938
   390.72         579.2400
   390.86         577.3116
   391.00         574.9352
   391.14         572.2340
   391.28         569.3607
   391.42         566.5167
   391.56         563.9013
   391.70         561.6724
   391.84         559.9117
   391.98         558.5798
   392.12         557.5357
   392.26         556.6460
   392.40         555.8768
   392.54         555.2707
   392.68         554.8854
   392.82         554.7743
   392.96         554.9769
   393.10         555.5146
   393.24         556.3798
   393.38         557.5298
   393.52         558.8859
   393.66         560.3526
   393.80         561.8547
   393.94         563.3426
   394.08         564.7266
   394.22         565.8412
   394.36         566.4966
   394.50         566.5251
   394.64         565.8209
   394.78         564.3977
   394.92         562.3687
   395.06         559.8414
   395.20         556.8402
   395.34         553.3001
   395.48         549.1333
   395.62         544.3267
   395.76         538.9970
   395.90         533.3893
   396.04         527.8274
   396.18         522.6902
   396.32         518.3788
   396.46         515.2229
   396.60         513.4060
   396.74         512.9304
   396.88         513.6594
   397.02         515.3652
   397.16         517.7473
   397.30         520.4806
   397.44         523.2344
   397.58         525.6920
   397.72         527.6068
   397.86         528.8318
   398.00         529.3139
   398.14         529.1207
   398.28         528.4534
   398.42         527.5592
   398.56         526.6242
   398.70         525.7372
   398.84         524.9168
   398.98         524.1227
   399.12         523.2936
   399.26         522.4009
   399.40         521.4448
   399.54         520.4516
   399.68         519.4615
   399.82         518.5203
   399.96         517.6730
   400.10         516.9412
   400.24         516.3368
   400.38         515.8660
   400.52         515.5026
   400.66         515.1778
   400.80         514.8038
   400.94         514.2807
   401.08         513.4638
   401.22         512.1833
   401.36         510.3186
   401.50         507.8520
   401.64         504.8826
   401.78         501.6065
   401.92         498.2635
   402.06         495.0963
   402.20         492.3392
   402.34         490.2056
   402.48         488.8586
   402.62         488.3608
   402.76         488.6517
   402.90         489.5851
   403.04         490.9687
   403.18         492.5852
   403.32         494.2244
   403.46         495.7068
   403.60         496.8956
   403.74         497.7136
   403.88         498.1728
   404.02         498.3576
   404.16         498.3696
   404.30         498.2847
   404.44         498.1243
   404.58         497.8624
   404.72         497.4666
   404.86         496.9253
   405.00         496.2459
   405.14         495.4446
   405.28         494.5352
   405.42         493.5386
   405.56         492.4986
   405.70         491.4639
   405.84         490.4665
   405.98         489.5218
   406.12         488.6329
   406.26         487.8072
   406.40         487.0527
   406.54         486.3594
   406.68         485.6981
   406.82         485.0457
   406.96         484.3939
   407.10         483.7510
   407.24         483.1442
   407.38         482.5855
   407.52         482.0346
   407.66         481.4051
   407.80         480.6019
   407.94         479.5516
   408.08         478.2182
   408.22         476.5936
   408.36         474.6688
   408.50         472.4258
   408.64         469.8765
   408.78         467.1223
   408.92         464.3666
   409.06         461.8440
   409.20         459.7296
   409.34         458.1229
   409.48         457.0738
   409.62         456.5953
   409.76         456.6578
   409.90         457.1801
   410.04         458.0482
   410.18         459.1521
   410.32         460.3865
   410.46         461.6418
   410.60         462.8069
   410.74         463.7777
   410.88         464.4869
   411.02         464.9176
   411.16         465.1086
   411.30         465.1445
   411.44         465.0997
   411.58         464.9930
   411.72         464.7674
   411.86         464.3347
   412.00         463.6725
   412.14         462.8336
   412.28         461.8904
   412.42         460.8955
   412.56         459.8822
   412.70         458.8841
   412.84         457.9242
   412.98         456.9924
   413.12         456.0669
   413.26         455.1400
   413.40         454.2172
   413.54         453.3033
   413.68         452.3813
   413.82         451.4290
   413.96         450.4389
   414.10         449.4161
   414.24         448.3895
   414.38         447.3950
   414.52         446.4740
   414.66         445.6690
   414.80         444.9828
   414.94         444.3766
   415.08         443.7911
   415.22         443.1739
   415.36         442.5063
   415.50         441.7956
   415.64         441.0633
   415.78         440.3529
   415.92         439.7184
   416.06         439.1921
   416.20         438.7721
   416.34         438.4449
   416.48         438.2031
   416.62         438.0369
   416.76         437.9336
   416.90         437.8767
   417.04         437.8302
   417.18         437.7271
   417.32         437.4618
   417.46         436.9227
   417.60         436.0496
   417.74         434.8427
   417.88         433.3593
   418.02         431.6897
   418.16         429.9112
   418.30         428.0722
   418.44         426.1806
   418.58         424.1998
   418.72         422.0733
   418.86         419.7726
   419.00         417.3498
   419.14         414.9175
   419.28         412.5956
   419.42         410.4914
   419.56         408.6942
   419.70         407.2840
   419.84         406.3305
   419.98         405.8818
   420.12         405.9647
   420.26         406.5574
   420.40         407.5597
   420.54         408.8090
   420.68         410.1022
   420.82         411.2437
   420.96         412.0873
   421.10         412.5413
   421.24         412.5982
   421.38         412.3441
   421.52         411.9194
   421.66         411.4694
   421.80         411.0891
   421.94         410.8198
   422.08         410.6795
   422.22         410.6726
   422.36         410.7803
   422.50         410.9515
   422.64         411.1228
   422.78         411.2412
   422.92         411.2626
   423.06         411.1619
   423.20         410.9450
   423.34         410.6412
   423.48         410.2972
   423.62         409.9544
   423.76         409.6291
   423.90         409.3253
   424.04         409.0473
   424.18         408.7900
   424.32         408.5365
   424.46         408.2571
   424.60         407.9099
   424.74         407.4595
   424.88         406.8939
   425.02         406.2275
   425.16         405.4978
   425.30         404.7580
   425.44         404.0654
   425.58         403.4677
   425.72         402.9995
   425.86         402.6710
   426.00         402.4660
   426.14         402.3512
   426.28         402.2806
   426.42         402.2090
   426.56         402.1063
   426.70         401.9522
   426.84         401.7247
   426.98         401.4027
   427.12         400.9696
   427.26         400.4184
   427.40         399.7640
   427.54         399.0410
   427.68         398.2760
   427.82         397.4821
   427.96         396.6801
   428.10         395.8979
   428.24         395.1642
   428.38         394.5086
   428.52         393.9542
   428.66         393.5261
   428.80         393.2487
   428.94         393.1332
   429.08         393.1830
   429.22         393.3828
   429.36         393.6839
   429.50         394.0074
   429.64         394.2567
   429.78         394.3551
   429.92         394.2638
   430.06         393.9769
   430.20         393.5205
   430.34         392.9355
   430.48         392.2712
   430.62         391.5853
   430.76         390.9396
   430.90         390.3981
   431.04         390.0072
   431.18         389.7862
   431.32         389.7410
   431.46         389.8638
   431.60         390.1283
   431.74         390.4912
   431.88         390.8851
   432.02         391.2149
   432.16         391.3697
   432.30         391.2324
   432.44         390.7030
   432.58         389.7747
   432.72         388.6215
   432.86         387.5663
   433.00         386.9150
   433.14         386.8305
   433.28         387.3406
   433.42         388.3922
   433.56         389.8728
   433.70         391.6145
   433.84         393.4174
   433.98         395.0772
   434.12         396.3944
   434.26         397.2043
   434.40         397.4060
   434.54         396.9688
   434.68         395.9406
   434.82         394.4495
   434.96         392.7027
   435.10         390.9828
   435.24         389.5965
   435.38         388.7467
   435.52         388.4255
   435.66         388.4405
   435.80         388.5578
   435.94         388.6254
   436.08         388.5720
   436.22         388.3652
   436.36         387.9811
   436.50         387.3907
   436.64         386.5707
   436.78         385.5204
   436.92         384.2763
   437.06         382.8932
   437.20         381.4276
   437.34         379.9331
   437.48         378.4579
   437.62         377.0492
   437.76         375.7459
   437.90         374.5701
   438.04         373.5354
   438.18         372.6532
   438.32         371.9340
   438.46         371.3789
   438.60         370.9766
   438.74         370.7074
   438.88         370.5489
   439.02         370.4610
   439.16         370.3916
   439.30         370.3103
   439.44         370.2091
   439.58         370.0706
   439.72         369.8569
   439.86         369.5351
   440.00         369.0943
   440.14         368.5503
   440.28         367.9427
   440.42         367.3182
   440.56         366.7144
   440.70         366.1445
   440.84         365.5914
   440.98         365.0111
   441.12         364.3286
   441.26         363.4520
   441.40         362.3025
   441.54         360.8320
   441.68         359.0297
   441.82         356.9335
   441.96         354.6213
   442.10         352.1909
   442.24         349.7540
   442.38         347.4356
   442.52         345.3658
   442.66         343.6582
   442.80         342.3928
   442.94         341.6103
   443.08         341.2974
   443.22         341.3917
   443.36         341.8064
   443.50         342.4503
   443.64         343.2324
   443.78         344.0664
   443.92         344.8885
   444.06         345.6633
   444.20         346.3673
   444.34         346.9673
   444.48         347.4173
   444.62         347.6716
   444.76         347.7000
   444.90         347.5044
   445.04         347.1142
   445.18         346.5746
   445.32         345.9261
   445.46         345.1870
   445.60         344.3493
   445.74         343.4028
   445.88         342.3843
   446.02         341.3861
   446.16         340.5078
   446.30         339.8184
   446.44         339.3570
   446.58         339.1327
   446.72         339.1265
   446.86         339.3027
   447.00         339.6137
   447.14         340.0085
   447.28         340.4387
   447.42         340.8539
   447.56         341.2038
   447.70         341.4283
   447.84         341.4585
   447.98         341.2504
   448.12         340.8083
   448.26         340.1843
   448.40         339.4772
   448.54         338.8081
   448.68         338.2595
   448.82         337.8419
   448.96         337.5311
   449.10         337.3141
   449.24         337.1848
   449.38         337.1297
   449.52         337.1108
   449.66         337.0564
   449.80         336.8792
   449.94         336.5000
   450.08         335.8633
   450.22         334.9373
   450.36         333.7130
   450.50         332.2275
   450.64         330.5781
   450.78         328.8941
   450.92         327.2968
   451.06         325.8924
   451.20         324.7722
   451.34         323.9926
   451.48         323.5735
   451.62         323.4993
   451.76         323.7150
   451.90         324.1240
   452.04         324.6038
   452.18         325.0362
   452.32         325.3330
   452.46         325.4285
   452.60         325.2540
   452.74         324.7287
   452.88         323.7704
   453.02         322.3456
   453.16         320.5162
   453.30         318.4232
   453.44         316.2412
   453.58         314.1465
   453.72         312.3194
   453.86         310.9453
   454.00         310.1793
   454.14         310.1088
   454.28         310.7347
   454.42         311.9842
   454.56         313.7295
   454.70         315.8033
   454.84         318.0172
   454.98         320.1732
   455.12         322.0766
   455.26         323.5792
   455.40         324.6247
   455.54         325.2560
   455.68         325.5857
   455.82         325.7347
   455.96         325.7809
   456.10         325.7535
   456.24         325.6559
   456.38         325.4885
   456.52         325.2344
   456.66         324.8430
   456.80         324.2558
   456.94         323.4425
   457.08         322.4154
   457.22         321.2337
   457.36         319.9892
   457.50         318.7752
   457.64         317.6629
   457.78         316.6974
   457.92         315.9059
   458.06         315.2830
   458.20         314.7816
   458.34         314.3361
   458.48         313.8836
   458.62         313.3853
   458.76         312.8343
   458.90         312.2430
   459.04         311.6253
   459.18         310.9879
   459.32         310.3532
   459.46         309.7676
   459.60         309.2831
   459.74         308.9499
   459.88         308.8114
   460.02         308.8702
   460.16         309.0873
   460.30         309.4163
   460.44         309.8127
   460.58         310.2438
   460.72         310.6806
   460.86         311.0998
   461.00         311.4911
   461.14         311.8456
   461.28         312.1496
   461.42         312.3827
   461.56         312.5123
   461.70         312.5026
   461.84         312.3480
   461.98         312.0992
   462.12         311.8461
   462.26         311.6731
   462.40         311.6351
   462.54         311.7795
   462.68         312.1742
   462.82         312.9089
   462.96         314.0427
   463.10         315.5523
   463.24         317.3543
   463.38         319.3437
   463.52         321.4168
   463.66         323.4736
   463.80         325.4007
   463.94         327.0491
   464.08         328.2538
   464.22         328.8822
   464.36         328.8705
   464.50         328.2301
   464.64         327.0158
   464.78         325.2995
   464.92         323.1721
   465.06         320.7655
   465.20         318.2474
   465.34         315.7617
   465.48         313.4015
   465.62         311.2307
   465.76         309.3122
   465.90         307.7123
   466.04         306.4761
   466.18         305.5832
   466.32         304.9464
   466.46         304.4545
   466.60         304.0031
   466.74         303.5240
   466.88         302.9951
   467.02         302.4524
   467.16         302.0008
   467.30         301.7853
   467.44         301.9314
   467.58         302.4814
   467.72         303.3817
   467.86         304.5129
   468.00         305.7326
   468.14         306.9163
   468.28         307.9470
   468.42         308.7007
   468.56         309.0740
   468.70         309.0067
   468.84         308.4818
   468.98         307.5364
   469.12         306.2592
   469.26         304.7692
   469.40         303.2014
   469.54         301.6976
   469.68         300.3891
   469.82         299.3475
   469.96         298.5488
   470.10         297.8890
   470.24         297.2430
   470.38         296.5299
   470.52         295.7268
   470.66         294.8491
   470.80         293.9225
   470.94         292.9546
   471.08         291.9441
   471.22         290.9017
   471.36         289.8398
   471.50         288.7573
   471.64         287.6523
   471.78         286.5418
   471.92         285.4582
   472.06         284.4350
   472.20         283.4940
   472.34         282.6518
   472.48         281.9278
   472.62         281.3374
   472.76         280.8811
   472.90         280.5495
   473.04         280.3298
   473.18         280.2007
   473.32         280.1383
   473.46         280.1152
   473.60         280.1014
   473.74         280.0762
   473.88         280.0147
   474.02         279.8827
   474.16         279.6536
   474.30         279.3257
   474.44         278.9187
   474.58         278.4463
   474.72         277.9049
   474.86         277.2809
   475.00         276.5598
   475.14         275.7282
   475.28         274.7773
   475.42         273.7171
   475.56         272.5893
   475.70         271.4611
   475.84         270.4060
   475.98         269.4937
   476.12         268.7695
   476.26         268.2455
   476.40         267.9113
   476.54         267.7271
   476.68         267.6368
   476.82         267.5916
   476.96         267.5456
   477.10         267.4628
   477.24         267.3285
   477.38         267.1426
   477.52         266.9069
   477.66         266.6243
   477.80         266.3154
   477.94         266.0247
   478.08         265.7997
   478.22         265.6699
   478.36         265.6361
   478.50         265.6709
   478.64         265.7283
   478.78         265.7613
   478.92         265.7412
   479.06         265.6513
   479.20         265.4761
   479.34         265.2254
   479.48         264.9392
   479.62         264.6557
   479.76         264.3947
   479.90         264.1497
   480.04         263.8905
   480.18         263.5911
   480.32         263.2475
   480.46         262.8690
   480.60         262.4670
   480.74         262.0433
   480.88         261.5963
   481.02         261.1348
   481.16         260.6637
   481.30         260.1744
   481.44         259.6699
   481.58         259.1721
   481.72         258.6895
   481.86         258.2165
   482.00         257.7495
   482.14         257.2869
   482.28         256.8246
   482.42         256.3641
   482.56         255.9237
   482.70         255.5341
   482.84         255.2254
   482.98         255.0101
   483.12         254.8829
   483.26         254.8413
   483.40         254.8811
   483.54         254.9902
   483.68         255.1442
   483.82         255.2947
   483.96         255.3847
   484.10         255.3667
   484.24         255.1929
   484.38         254.8136
   484.52         254.2300
   484.66         253.5867
   484.80         253.2188
   484.94         253.5634
   485.08         254.9761
   485.22         257.5692
   485.36         261.1909
   485.50         265.5144
   485.64         270.1133
   485.78         274.5153
   485.92         278.2504
   486.06         280.8936
   486.20         282.1161
   486.34         281.7219
   486.48         279.6690
   486.62         276.0894
   486.76         271.2849
   486.90         265.6884
   487.04         259.8119
   487.18         254.1856
   487.32         249.2845
   487.46         245.4209
   487.60         242.6415
   487.74         240.7510
   487.88         239.4698
   488.02         238.6016
   488.16         238.0654
   488.30         237.8187
   488.44         237.8119
   488.58         237.9904
   488.72         238.3054
   488.86         238.7053
   489.00         239.1260
   489.14         239.5060
   489.28         239.8043
   489.42         239.9961
   489.56         240.0634
   489.70         240.0014
   489.84         239.8272
   489.98         239.5786
   490.12         239.3001
   490.26         239.0211
   490.40         238.7554
   490.54         238.5227
   490.68         238.3537
   490.82         238.2767
   490.96         238.3225
   491.10         238.5256
   491.24         238.9012
   491.38         239.4352
   491.52         240.0904
   491.66         240.8213
   491.80         241.5816
   491.94         242.3145
   492.08         242.9463
   492.22         243.3948
   492.36         243.5949
   492.50         243.5175
   492.64         243.1623
   492.78         242.5603
   492.92         241.7856
   493.06         240.9483
   493.20         240.1613
   493.34         239.5054
   493.48         239.0266
   493.62         238.7441
   493.76         238.6394
   493.90         238.6547
   494.04         238.7216
   494.18         238.7835
   494.32         238.7961
   494.46         238.7212
   494.60         238.5290
   494.74         238.2150
   494.88         237.8039
   495.02         237.3300
   495.16         236.8174
   495.30         236.2764
   495.44         235.7160
   495.58         235.1457
   495.72         234.5567
   495.86         233.9169
   496.00         233.2028
   496.14         232.4348
   496.28         231.6641
   496.42         230.9366
   496.56         230.2826
   496.70         229.7235
   496.84         229.2737
   496.98         228.9315
   497.12         228.6760
   497.26         228.4823
   497.40         228.3308
   497.54         228.1980
   497.68         228.0578
   497.82         227.8982
   497.96         227.7323
   498.10         227.5922
   498.24         227.5188
   498.38         227.5568
   498.52         227.7432
   498.66         228.0818
   498.80         228.5459
   498.94         229.0876
   499.08         229.6395
   499.22         230.1307
   499.36         230.4996
   499.50         230.7131
   499.64         230.7616
   499.78         230.6432
   499.92         230.3560
   500.06         229.8839
   500.20         229.2186
   500.34         228.3870
   500.48         227.4468
   500.62         226.4731
   500.76         225.5418
   500.90         224.7120
   501.04         224.0213
   501.18         223.4746
   501.32         223.0552
   501.46         222.7545
   501.60         222.5561
   501.74         222.4158
   501.88         222.2755
   502.02         222.0822
   502.16         221.7982
   502.30         221.3889
   502.44         220.8391
   502.58         220.1754
   502.72         219.4471
   502.86         218.7144
   503.00         218.0331
   503.14         217.4407
   503.28         216.9648
   503.42         216.6183
   503.56         216.3949
   503.70         216.2705
   503.84         216.2098
   503.98         216.1891
   504.12         216.1944
   504.26         216.2125
   504.40         216.2274
   504.54         216.2242
   504.68         216.2018
   504.82         216.1684
   504.96         216.1229
   505.10         216.0532
   505.24         215.9418
   505.38         215.7656
   505.52         215.5159
   505.66         215.2170
   505.80         214.9147
   505.94         214.6565
   506.08         214.4791
   506.22         214.4124
   506.36         214.4701
   506.50         214.6506
   506.64         214.9426
   506.78         215.3203
   506.92         215.7508
   507.06         216.2010
   507.20         216.6407
   507.34         217.0457
   507.48         217.3976
   507.62         217.6802
   507.76         217.8840
   507.90         218.0057
   508.04         218.0460
   508.18         218.0033
   508.32         217.8756
   508.46         217.6625
   508.60         217.3592
   508.74         216.9680
   508.88         216.4918
   509.02         215.9275
   509.16         215.2867
   509.30         214.6029
   509.44         213.9163
   509.58         213.2656
   509.72         212.6826
   509.86         212.1833
   510.00         211.7725
   510.14         211.4425
   510.28         211.1682
   510.42         210.9216
   510.56         210.6799
   510.70         210.4287
   510.84         210.1593
   510.98         209.8691
   511.12         209.5631
   511.26         209.2512
   511.40         208.9468
   511.54         208.6578
   511.68         208.3921
   511.82         208.1675
   511.96         208.0063
   512.10         207.9252
   512.24         207.9254
   512.38         207.9843
   512.52         208.0650
   512.66         208.1359
   512.80         208.1876
   512.94         208.2296
   513.08         208.2623
   513.22         208.2668
   513.36         208.2228
   513.50         208.1258
   513.64         207.9764
   513.78         207.7752
   513.92         207.5317
   514.06         207.2572
   514.20         206.9594
   514.34         206.6554
   514.48         206.3796
   514.62         206.1652
   514.76         206.0294
   514.90         205.9765
   515.04         205.9995
   515.18         206.0816
   515.32         206.2033
   515.46         206.3424
   515.60         206.4602
   515.74         206.5117
   515.88         206.4668
   516.02         206.3113
   516.16         206.0422
   516.30         205.6621
   516.44         205.1845
   516.58         204.6356
   516.72         204.0384
   516.86         203.4188
   517.00         202.8172
   517.14         202.2685
   517.28         201.7838
   517.42         201.3541
   517.56         200.9594
   517.70         200.5807
   517.84         200.2103
   517.98         199.8515
   518.12         199.5127
   518.26         199.2079
   518.40         198.9464
   518.54         198.7236
   518.68         198.5230
   518.82         198.3284
   518.96         198.1333
   519.10         197.9352
   519.24         197.7290
   519.38         197.5121
   519.52         197.2925
   519.66         197.0757
   519.80         196.8570
   519.94         196.6318
   520.08         196.3996
   520.22         196.1711
   520.36         195.9667
   520.50         195.8052
   520.64         195.6973
   520.78         195.6440
   520.92         195.6287
   521.06         195.6177
   521.20         195.5773
   521.34         195.4836
   521.48         195.3342
   521.62         195.1470
   521.76         194.9319
   521.90         194.6871
   522.04         194.4227
   522.18         194.1578
   522.32         193.9070
   522.46         193.6835
   522.60         193.4944
   522.74         193.3379
   522.88         193.1997
   523.02         193.0625
   523.16         192.9141
   523.30         192.7390
   523.44         192.5223
   523.58         192.2558
   523.72         191.9394
   523.86         191.5807
   524.00         191.2036
   524.14         190.8449
   524.28         190.5313
   524.42         190.2680
   524.56         190.0626
   524.70         189.9297
   524.84         189.8702
   524.98         189.8784
   525.12         189.9505
   525.26         190.0785
   525.40         190.2503
   525.54         190.4487
   525.68         190.6570
   525.82         190.8497
   525.96         190.9851
   526.10         191.0234
   526.24         190.9400
   526.38         190.7284
   526.52         190.3980
   526.66         189.9671
   526.80         189.4593
   526.94         188.9016
   527.08         188.3315
   527.22         187.7960
   527.36         187.3316
   527.50         186.9601
   527.64         186.6920
   527.78         186.5236
   527.92         186.4388
   528.06         186.4119
   528.20         186.4095
   528.34         186.3949
   528.48         186.3316
   528.62         186.1857
   528.76         185.9318
   528.90         185.5625
   529.04         185.0835
   529.18         184.5102
   529.32         183.8730
   529.46         183.2177
   529.60         182.5929
   529.74         182.0420
   529.88         181.5937
   530.02         181.2593
   530.16         181.0488
   530.30         180.9720
   530.44         181.0316
   530.58         181.2212
   530.72         181.5250
   530.86         181.9198
   531.00         182.3719
   531.14         182.8355
   531.28         183.2646
   531.42         183.6279
   531.56         183.9131
   531.70         184.1151
   531.84         184.2333
   531.98         184.2731
   532.12         184.2429
   532.26         184.1569
   532.40         184.0300
   532.54         183.8684
   532.68         183.6805
   532.82         183.4894
   532.96         183.3182
   533.10         183.1811
   533.24         183.0822
   533.38         183.0109
   533.52         182.9437
   533.66         182.8528
   533.80         182.7162
   533.94         182.5200
   534.08         182.2616
   534.22         181.9481
   534.36         181.5835
   534.50         181.1621
   534.64         180.6737
   534.78         180.1176
   534.92         179.5064
   535.06         178.8574
   535.20         178.1945
   535.34         177.5666
   535.48         177.0384
   535.62         176.6580
   535.76         176.4431
   535.90         176.3855
   536.04         176.4630
   536.18         176.6393
   536.32         176.8639
   536.46         177.0837
   536.60         177.2519
   536.74         177.3373
   536.88         177.3270
   537.02         177.2128
   537.16         176.9955
   537.30         176.6981
   537.44         176.3547
   537.58         175.9961
   537.72         175.6438
   537.86         175.3158
   538.00         175.0345
   538.14         174.8095
   538.28         174.6304
   538.42         174.4788
   538.56         174.3391
   538.70         174.2003
   538.84         174.0513
   538.98         173.8844
   539.12         173.6965
   539.26         173.4837
   539.40         173.2385
   539.54         172.9365
   539.68         172.5185
   539.82         171.9115
   539.96         171.0535
   540.10         169.9145
   540.24         168.5252
   540.38         166.9746
   540.52         165.3891
   540.66         163.9034
   540.80         162.6321
   540.94         161.6672
   541.08         161.0811
   541.22         160.9208
   541.36         161.2035
   541.50         161.9066
   541.64         162.9648
   541.78         164.2808
   541.92         165.7352
   542.06         167.1971
   542.20         168.5382
   542.34         169.6617
   542.48         170.5268
   542.62         171.1358
   542.76         171.5095
   542.90         171.6721
   543.04         171.6333
   543.18         171.3909
   543.32         170.9491
   543.46         170.3361
   543.60         169.6029
   543.74         168.8018
   543.88         167.9810
   544.02         167.1897
   544.16         166.4723
   544.30         165.8678
   544.44         165.4046
   544.58         165.0911
   544.72         164.9154
   544.86         164.8545
   545.00         164.8834
   545.14         164.9725
   545.28         165.0806
   545.42         165.1684
   545.56         165.2135
   545.70         165.2120
   545.84         165.1760
   545.98         165.1204
   546.12         165.0515
   546.26         164.9661
   546.40         164.8534
   546.54         164.7034
   546.68         164.5034
   546.82         164.2346
   546.96         163.8801
   547.10         163.4349
   547.24         162.9111
   547.38         162.3372
   547.52         161.7502
   547.66         161.1859
   547.80         160.6705
   547.94         160.2192
   548.08         159.8474
   548.22         159.5782
   548.36         159.4320
   548.50         159.4146
   548.64         159.5118
   548.78         159.6978
   548.92         159.9392
   549.06         160.1906
   549.20         160.4070
   549.34         160.5542
   549.48         160.6126
   549.62         160.5751
   549.76         160.4390
   549.90         160.2006
   550.04         159.8636
   550.18         159.4518
   550.32         159.0071
   550.46         158.5732
   550.60         158.1876
   550.74         157.8814
   550.88         157.6719
   551.02         157.5574
   551.16         157.5178
   551.30         157.5191
   551.44         157.5219
   551.58         157.4902
   551.72         157.4042
   551.86         157.2652
   552.00         157.0822
   552.14         156.8612
   552.28         156.6097
   552.42         156.3402
   552.56         156.0667
   552.70         155.8034
   552.84         155.5590
   552.98         155.3319
   553.12         155.1144
   553.26         154.9008
   553.40         154.6857
   553.54         154.4600
   553.68         154.2150
   553.82         153.9450
   553.96         153.6537
   554.10         153.3564
   554.24         153.0752
   554.38         152.8406
   554.52         152.6794
   554.66         152.5969
   554.80         152.5838
   554.94         152.6262
   555.08         152.7035
   555.22         152.7890
   555.36         152.8570
   555.50         152.8925
   555.64         152.8917
   555.78         152.8568
   555.92         152.7938
   556.06         152.7109
   556.20         152.6222
   556.34         152.5463
   556.48         152.4938
   556.62         152.4688
   556.76         152.4742
   556.90         152.5123
   557.04         152.5783
   557.18         152.6442
   557.32         152.6650
   557.46         152.6057
   557.60         152.4479
   557.74         152.1852
   557.88         151.8142
   558.02         151.3261
   558.16         150.7212
   558.30         150.0185
   558.44         149.2519
   558.58         148.4677
   558.72         147.7189
   558.86         147.0625
   559.00         146.5471
   559.14         146.2045
   559.28         146.0570
   559.42         146.1075
   559.56         146.3276
   559.70         146.6612
   559.84         147.0385
   559.98         147.3942
   560.12         147.6729
   560.26         147.8289
   560.40         147.8343
   560.54         147.6793
   560.68         147.3787
   560.82         146.9788
   560.96         146.5356
   561.10         146.0993
   561.24         145.7099
   561.38         145.3885
   561.52         145.1400
   561.66         144.9558
   561.80         144.8185
   561.94         144.7021
   562.08         144.5726
   562.22         144.4049
   562.36         144.1964
   562.50         143.9593
   562.64         143.7049
   562.78         143.4424
   562.92         143.1883
   563.06         142.9605
   563.20         142.7672
   563.34         142.6114
   563.48         142.4955
   563.62         142.4222
   563.76         142.4010
   563.90         142.4326
   564.04         142.5033
   564.18         142.5941
   564.32         142.6768
   564.46         142.7258
   564.60         142.7271
   564.74         142.6821
   564.88         142.6107
   565.02         142.5371
   565.16         142.4782
   565.30         142.4471
   565.44         142.4586
   565.58         142.5222
   565.72         142.6303
   565.86         142.7587
   566.00         142.8792
   566.14         142.9713
   566.28         143.0254
   566.42         143.0352
   566.56         142.9896
   566.70         142.8866
   566.84         142.7325
   566.98         142.5348
   567.12         142.3096
   567.26         142.0718
   567.40         141.8317
   567.54         141.5951
   567.68         141.3571
   567.82         141.1078
   567.96         140.8411
   568.10         140.5645
   568.24         140.3163
   568.38         140.1610
   568.52         140.1530
   568.66         140.3159
   568.80         140.6435
   568.94         141.0960
   569.08         141.6027
   569.22         142.0737
   569.36         142.4190
   569.50         142.5660
   569.64         142.4738
   569.78         142.1338
   569.92         141.5580
   570.06         140.7744
   570.20         139.8261
   570.34         138.7758
   570.48         137.7052
   570.62         136.7032
   570.76         135.8491
   570.90         135.1968
   571.04         134.7560
   571.18         134.4889
   571.32         134.3388
   571.46         134.2544
   571.60         134.1906
   571.74         134.1092
   571.88         133.9823
   572.02         133.8006
   572.16         133.5709
   572.30         133.3025
   572.44         133.0022
   572.58         132.6843
   572.72         132.3712
   572.86         132.0851
   573.00         131.8479
   573.14         131.6775
   573.28         131.5793
   573.42         131.5450
   573.56         131.5578
   573.70         131.5952
   573.84         131.6264
   573.98         131.6174
   574.12         131.5441
   574.26         131.3957
   574.40         131.1765
   574.54         130.9082
   574.68         130.6257
   574.82         130.3661
   574.96         130.1597
   575.10         130.0239
   575.24         129.9586
   575.38         129.9471
   575.52         129.9684
   575.66         130.0060
   575.80         130.0440
   575.94         130.0635
   576.08         130.0423
   576.22         129.9641
   576.36         129.8199
   576.50         129.5947
   576.64         129.2697
   576.78         128.8341
   576.92         128.2870
   577.06         127.6394
   577.20         126.9157
   577.34         126.1521
   577.48         125.3878
   577.62         124.6616
   577.76         124.0143
   577.90         123.4775
   578.04         123.0679
   578.18         122.7904
   578.32         122.6342
   578.46         122.5763
   578.60         122.5757
   578.74         122.5685
   578.88         122.4868
   579.02         122.2808
   579.16         121.9340
   579.30         121.4665
   579.44         120.9276
   579.58         120.3840
   579.72         119.8948
   579.86         119.4931
   580.00         119.1909
   580.14         118.9948
   580.28         118.9149
   580.42         118.9577
   580.56         119.1135
   580.70         119.3671
   580.84         119.7020
   580.98         120.0927
   581.12         120.5082
   581.26         120.9179
   581.40         121.3014
   581.54         121.6530
   581.68         121.9766
   581.82         122.2729
   581.96         122.5268
   582.10         122.7147
   582.24         122.8131
   582.38         122.8020
   582.52         122.6828
   582.66         122.4905
   582.80         122.2726
   582.94         122.0657
   583.08         121.8881
   583.22         121.7428
   583.36         121.6312
   583.50         121.5604
   583.64         121.5333
   583.78         121.5438
   583.92         121.5821
   584.06         121.6383
   584.20         121.7025
   584.34         121.7611
   584.48         121.7973
   584.62         121.7961
   584.76         121.7458
   584.90         121.6426
   585.04         121.4956
   585.18         121.3203
   585.32         121.1277
   585.46         120.9182
   585.60         120.6966
   585.74         120.4790
   585.88         120.2909
   586.02         120.1908
   586.16         120.2898
   586.30         120.7275
   586.44         121.6128
   586.58         122.9819
   586.72         124.7840
   586.86         126.8844
   587.00         129.0939
   587.14         131.2038
   587.28         133.0072
   587.42         134.3129
   587.56         134.9566
   587.70         134.8041
   587.84         133.7728
   587.98         131.8797
   588.12         129.2539
   588.26         126.0967
   588.40         122.6371
   588.54         119.1291
   588.68         115.8467
   588.82         113.0299
   588.96         110.8219
   589.10         109.2543
   589.24         108.2958
   589.38         107.8941
   589.52         107.9847
   589.66         108.4915
   589.80         109.3226
   589.94         110.3694
   590.08         111.5168
   590.22         112.6548
   590.36         113.6939
   590.50         114.5817
   590.64         115.2990
   590.78         115.8320
   590.92         116.1662
   591.06         116.3128
   591.20         116.3236
   591.34         116.2653
   591.48         116.1895
   591.62         116.1273
   591.76         116.0886
   591.90         116.0677
   592.04         116.0508
   592.18         116.0215
   592.32         115.9628
   592.46         115.8611
   592.60         115.7057
   592.74         115.4980
   592.88         115.2478
   593.02         114.9571
   593.16         114.6249
   593.30         114.2579
   593.44         113.8725
   593.58         113.4896
   593.72         113.1322
   593.86         112.8179
   594.00         112.5490
   594.14         112.3126
   594.28         112.0849
   594.42         111.8389
   594.56         111.5532
   594.70         111.2218
   594.84         110.8570
   594.98         110.4810
   595.12         110.1166
   595.26         109.7822
   595.40         109.4945
   595.54         109.2681
   595.68         109.1155
   595.82         109.0495
   595.96         109.0709
   596.10         109.1640
   596.24         109.3092
   596.38         109.4844
   596.52         109.6569
   596.66         109.7946
   596.80         109.8742
   596.94         109.8783
   597.08         109.7933
   597.22         109.6159
   597.36         109.3550
   597.50         109.0241
   597.64         108.6421
   597.78         108.2301
   597.92         107.8083
   598.06         107.4062
   598.20         107.0578
   598.34         106.7843
   598.48         106.5821
   598.62         106.4284
   598.76         106.2995
   598.90         106.1802
   599.04         106.0573
   599.18         105.9221
   599.32         105.7759
   599.46         105.6238
   599.60         105.4731
   599.74         105.3323
   599.88         105.2115
   600.02         105.1225
   600.16         105.0775
   600.30         105.0863
   600.44         105.1428
   600.58         105.2312
   600.72         105.3372
   600.86         105.4334
   601.00         105.4818
   601.14         105.4529
   601.28         105.3332
   601.42         105.1244
   601.56         104.8429
   601.70         104.5103
   601.84         104.1423
   601.98         103.7495
   602.12         103.3398
   602.26         102.9203
   602.40         102.5022
   602.54         102.1065
   602.68         101.7593
   602.82         101.4791
   602.96         101.2666
   603.10         101.1076
   603.24         100.9838
   603.38         100.8778
   603.52         100.7761
   603.66         100.6713
   603.80         100.5615
   603.94         100.4463
   604.08         100.3301
   604.22         100.2189
   604.36         100.1143
   604.50         100.0174
   604.64         99.9307
   604.78         99.8562
   604.92         99.7966
   605.06         99.7605
   605.20         99.7553
   605.34         99.7759
   605.48         99.8074
   605.62         99.8309
   605.76         99.8313
   605.90         99.8013
   606.04         99.7391
   606.18         99.6446
   606.32         99.5188
   606.46         99.3683
   606.60         99.2035
   606.74         99.0315
   606.88         98.8572
   607.02         98.6905
   607.16         98.5437
   607.30         98.4272
   607.44         98.3471
   607.58         98.3032
   607.72         98.2924
   607.86         98.3092
   608.00         98.3414
   608.14         98.3681
   608.28         98.3635
   608.42         98.3059
   608.56         98.1813
   608.70         97.9796
   608.84         97.6948
   608.98         97.3350
   609.12         96.9231
   609.26         96.4905
   609.40         96.0731
   609.54         95.7041
   609.68         95.4100
   609.82         95.2081
   609.96         95.1081
   610.10         95.1116
   610.24         95.2097
   610.38         95.3842
   610.52         95.6085
   610.66         95.8438
   610.80         96.0511
   610.94         96.2073
   611.08         96.3069
   611.22         96.3517
   611.36         96.3462
   611.50         96.3008
   611.64         96.2306
   611.78         96.1469
   611.92         96.0571
   612.06         95.9652
   612.20         95.8715
   612.34         95.7775
   612.48         95.6859
   612.62         95.5949
   612.76         95.4976
   612.90         95.3847
   613.04         95.2530
   613.18         95.1080
   613.32         94.9607
   613.46         94.8302
   613.60         94.7406
   613.74         94.7111
   613.88         94.7486
   614.02         94.8459
   614.16         94.9884
   614.30         95.1590
   614.44         95.3431
   614.58         95.5247
   614.72         95.6855
   614.86         95.8116
   615.00         95.8940
   615.14         95.9259
   615.28         95.9052
   615.42         95.8420
   615.56         95.7517
   615.70         95.6424
   615.84         95.5129
   615.98         95.3565
   616.12         95.1650
   616.26         94.9288
   616.40         94.6379
   616.54         94.2843
   616.68         93.8689
   616.82         93.4092
   616.96         92.9370
   617.10         92.4936
   617.24         92.1169
   617.38         91.8326
   617.52         91.6508
   617.66         91.5691
   617.80         91.5779
   617.94         91.6615
   618.08         91.7980
   618.22         91.9570
   618.36         92.1057
   618.50         92.2213
   618.64         92.2935
   618.78         92.3203
   618.92         92.3065
   619.06         92.2617
   619.20         92.1931
   619.34         92.1075
   619.48         92.0175
   619.62         91.9367
   619.76         91.8722
   619.90         91.8237
   620.04         91.7847
   620.18         91.7500
   620.32         91.7174
   620.46         91.6794
   620.60         91.6237
   620.74         91.5378
   620.88         91.4134
   621.02         91.2470
   621.16         91.0411
   621.30         90.8048
   621.44         90.5508
   621.58         90.2922
   621.72         90.0404
   621.86         89.8048
   622.00         89.5990
   622.14         89.4372
   622.28         89.3212
   622.42         89.2418
   622.56         89.1862
   622.70         89.1407
   622.84         89.0989
   622.98         89.0653
   623.12         89.0500
   623.26         89.0671
   623.40         89.1277
   623.54         89.2382
   623.68         89.4018
   623.82         89.6160
   623.96         89.8729
   624.10         90.1585
   624.24         90.4574
   624.38         90.7560
   624.52         91.0400
   624.66         91.2988
   624.80         91.5262
   624.94         91.7151
   625.08         91.8596
   625.22         91.9562
   625.36         92.0071
   625.50         92.0190
   625.64         91.9930
   625.78         91.9201
   625.92         91.7853
   626.06         91.5761
   626.20         91.2921
   626.34         90.9377
   626.48         90.5127
   626.62         90.0163
   626.76         89.4522
   626.90         88.8298
   627.04         88.1586
   627.18         87.4453
   627.32         86.7013
   627.46         85.9466
   627.60         85.2122
   627.74         84.5374
   627.88         83.9627
   628.02         83.5262
   628.16         83.2536
   628.30         83.1541
   628.44         83.2248
   628.58         83.4499
   628.72         83.8012
   628.86         84.2409
   629.00         84.7210
   629.14         85.1907
   629.28         85.6069
   629.42         85.9376
   629.56         86.1619
   629.70         86.2682
   629.84         86.2547
   629.98         86.1372
   630.12         85.9506
   630.26         85.7333
   630.40         85.5145
   630.54         85.3152
   630.68         85.1505
   630.82         85.0306
   630.96         84.9594
   631.10         84.9358
   631.24         84.9541
   631.38         85.0086
   631.52         85.0933
   631.66         85.1977
   631.80         85.3081
   631.94         85.4137
   632.08         85.5079
   632.22         85.5859
   632.36         85.6465
   632.50         85.6909
   632.64         85.7218
   632.78         85.7401
   632.92         85.7395
   633.06         85.7108
   633.20         85.6463
   633.34         85.5441
   633.48         85.4100
   633.62         85.2521
   633.76         85.0788
   633.90         84.9002
   634.04         84.7277
   634.18         84.5727
   634.32         84.4440
   634.46         84.3453
   634.60         84.2738
   634.74         84.2239
   634.88         84.1918
   635.02         84.1712
   635.16         84.1511
   635.30         84.1240
   635.44         84.0903
   635.58         84.0522
   635.72         84.0150
   635.86         83.9830
   636.00         83.9539
   636.14         83.9204
   636.28         83.8782
   636.42         83.8263
   636.56         83.7619
   636.70         83.6794
   636.84         83.5706
   636.98         83.4280
   637.12         83.2485
   637.26         83.0381
   637.40         82.8139
   637.54         82.5929
   637.68         82.3842
   637.82         82.1983
   637.96         82.0525
   638.10         81.9628
   638.24         81.9371
   638.38         81.9729
   638.52         82.0561
   638.66         82.1686
   638.80         82.2977
   638.94         82.4315
   639.08         82.5517
   639.22         82.6353
   639.36         82.6631
   639.50         82.6240
   639.64         82.5175
   639.78         82.3525
   639.92         82.1439
   640.06         81.9063
   640.20         81.6508
   640.34         81.3928
   640.48         81.1560
   640.62         80.9620
   640.76         80.8222
   640.90         80.7363
   641.04         80.6973
   641.18         80.7010
   641.32         80.7457
   641.46         80.8254
   641.60         80.9299
   641.74         81.0489
   641.88         81.1742
   642.02         81.2985
   642.16         81.4134
   642.30         81.5075
   642.44         81.5699
   642.58         81.5935
   642.72         81.5748
   642.86         81.5160
   643.00         81.4238
   643.14         81.3070
   643.28         81.1736
   643.42         81.0287
   643.56         80.8768
   643.70         80.7199
   643.84         80.5620
   643.98         80.4122
   644.12         80.2821
   644.26         80.1817
   644.40         80.1160
   644.54         80.0822
   644.68         80.0714
   644.82         80.0733
   644.96         80.0830
   645.10         80.1016
   645.24         80.1293
   645.38         80.1629
   645.52         80.1949
   645.66         80.2124
   645.80         80.2018
   645.94         80.1508
   646.08         80.0510
   646.22         79.9033
   646.36         79.7168
   646.50         79.5069
   646.64         79.2880
   646.78         79.0688
   646.92         78.8573
   647.06         78.6663
   647.20         78.5092
   647.34         78.3940
   647.48         78.3240
   647.62         78.3005
   647.76         78.3216
   647.90         78.3806
   648.04         78.4667
   648.18         78.5655
   648.32         78.6638
   648.46         78.7528
   648.60         78.8281
   648.74         78.8898
   648.88         78.9440
   649.02         79.0020
   649.16         79.0727
   649.30         79.1595
   649.44         79.2600
   649.58         79.3699
   649.72         79.4841
   649.86         79.5946
   650.00         79.6922
   650.14         79.7694
   650.28         79.8197
   650.42         79.8369
   650.56         79.8171
   650.70         79.7571
   650.84         79.6545
   650.98         79.5091
   651.12         79.3247
   651.26         79.1102
   651.40         78.8812
   651.54         78.6555
   651.68         78.4453
   651.82         78.2547
   651.96         78.0864
   652.10         77.9490
   652.24         77.8572
   652.38         77.8248
   652.52         77.8586
   652.66         77.9567
   652.80         78.1114
   652.94         78.3151
   653.08         78.5609
   653.22         78.8360
   653.36         79.1203
   653.50         79.3937
   653.64         79.6422
   653.78         79.8603
   653.92         80.0507
   654.06         80.2167
   654.20         80.3644
   654.34         80.5265
   654.48         80.7921
   654.62         81.3399
   654.76         82.4685
   654.90         84.5621
   655.04         87.9763
   655.18         92.8996
   655.32         99.2471
   655.46         106.6503
   655.60         114.5240
   655.74         122.1593
   655.88         128.8268
   656.02         133.8773
   656.16         136.8193
   656.30         137.3700
   656.44         135.4800
   656.58         131.3344
   656.72         125.3311
   656.86         118.0488
   657.00         110.1856
   657.14         102.4681
   657.28         95.5488
   657.42         89.9025
   657.56         85.7322
   657.70         82.9510
   657.84         81.2640
   657.98         80.3002
   658.12         79.7376
   658.26         79.3594
   658.40         79.0476
   658.54         78.7553
   658.68         78.4749
   658.82         78.2153
   658.96         77.9878
   659.10         77.7971
   659.24         77.6373
   659.38         77.4984
   659.52         77.3742
   659.66         77.2627
   659.80         77.1596
   659.94         77.0564
   660.08         76.9420
   660.22         76.8038
   660.36         76.6329
   660.50         76.4284
   660.64         76.1971
   660.78         75.9494
   660.92         75.6988
   661.06         75.4620
   661.20         75.2509
   661.34         75.0726
   661.48         74.9314
   661.62         74.8261
   661.76         74.7509
   661.90         74.6978
   662.04         74.6618
   662.18         74.6410
   662.32         74.6283
   662.46         74.6106
   662.60         74.5768
   662.74         74.5226
   662.88         74.4516
   663.02         74.3728
   663.16         74.2908
   663.30         74.2031
   663.44         74.1072
   663.58         74.0068
   663.72         73.9088
   663.86         73.8194
   664.00         73.7471
   664.14         73.7006
   664.28         73.6862
   664.42         73.7072
   664.56         73.7591
   664.70         73.8345
   664.84         73.9247
   664.98         74.0156
   665.12         74.0961
   665.26         74.1602
   665.40         74.2039
   665.54         74.2242
   665.68         74.2172
   665.82         74.1799
   665.96         74.1160
   666.10         74.0410
   666.24         73.9884
   666.38         74.0319
   666.52         74.2784
   666.66         74.8135
   666.80         75.6522
   666.94         76.7339
   667.08         77.9484
   667.22         79.1621
   667.36         80.2389
   667.50         81.0558
   667.64         81.5166
   667.78         81.5626
   667.92         81.1761
   668.06         80.3846
   668.20         79.2601
   668.34         77.9077
   668.48         76.4555
   668.62         75.0455
   668.76         73.8196
   668.90         72.8974
   669.04         72.3496
   669.18         72.1625
   669.32         72.2371
   669.46         72.4449
   669.60         72.6803
   669.74         72.8776
   669.88         73.0004
   670.02         73.0322
   670.16         72.9718
   670.30         72.8302
   670.44         72.6260
   670.58         72.3810
   670.72         72.1186
   670.86         71.8630
   671.00         71.6344
   671.14         71.4483
   671.28         71.3136
   671.42         71.2291
   671.56         71.1827
   671.70         71.1552
   671.84         71.1277
   671.98         71.0854
   672.12         71.0205
   672.26         70.9333
   672.40         70.8298
   672.54         70.7163
   672.68         70.5960
   672.82         70.4704
   672.96         70.3388
   673.10         70.1987
   673.24         70.0503
   673.38         69.9001
   673.52         69.7588
   673.66         69.6354
   673.80         69.5363
   673.94         69.4624
   674.08         69.4096
   674.22         69.3705
   674.36         69.3369
   674.50         69.3011
   674.64         69.2534
   674.78         69.1842
   674.92         69.0881
   675.06         68.9628
   675.20         68.8107
   675.34         68.6430
   675.48         68.4779
   675.62         68.3363
   675.76         68.2375
   675.90         68.1953
   676.04         68.2152
   676.18         68.2948
   676.32         68.4231
   676.46         68.5800
   676.60         68.7399
   676.74         68.8807
   676.88         68.9891
   677.02         69.0582
   677.16         69.0864
   677.30         69.0765
   677.44         69.0341
   677.58         68.9649
   677.72         68.8739
   677.86         68.7687
   678.00         68.6591
   678.14         68.5500
   678.28         68.4424
   678.42         68.3367
   678.56         68.2376
   678.70         68.1532
   678.84         68.0862
   678.98         68.0325
   679.12         67.9875
   679.26         67.9491
   679.40         67.9166
   679.54         67.8904
   679.68         67.8706
   679.82         67.8569
   679.96         67.8465
   680.10         67.8350
   680.24         67.8208
   680.38         67.8066
   680.52         67.7950
   680.66         67.7822
   680.80         67.7613
   680.94         67.7284
   681.08         67.6811
   681.22         67.6168
   681.36         67.5335
   681.50         67.4319
   681.64         67.3205
   681.78         67.2121
   681.92         67.1166
   682.06         67.0406
   682.20         66.9875
   682.34         66.9558
   682.48         66.9390
   682.62         66.9271
   682.76         66.9117
   682.90         66.8839
   683.04         66.8319
   683.18         66.7455
   683.32         66.6213
   683.46         66.4623
   683.60         66.2760
   683.74         66.0750
   683.88         65.8780
   684.02         65.7059
   684.16         65.5761
   684.30         65.5007
   684.44         65.4861
   684.58         65.5320
   684.72         65.6293
   684.86         65.7593
   685.00         65.8981
   685.14         66.0187
   685.28         66.0942
   685.42         66.0964
   685.56         65.9805
   685.70         65.6850
   685.84         65.1509
   685.98         64.3401
   686.12         63.2451
   686.26         61.8941
   686.40         60.3478
   686.54         58.6910
   686.68         57.0255
   686.82         55.4635
   686.96         54.1179
   687.10         53.0853
   687.24         52.4276
   687.38         52.1635
   687.52         52.2672
   687.66         52.6720
   687.80         53.2791
   687.94         53.9752
   688.08         54.6474
   688.22         55.1989
   688.36         55.5727
   688.50         55.7616
   688.64         55.7994
   688.78         55.7419
   688.92         55.6487
   689.06         55.5736
   689.20         55.5606
   689.34         55.6401
   689.48         55.8273
   689.62         56.1219
   689.76         56.5051
   689.90         56.9444
   690.04         57.4053
   690.18         57.8580
   690.32         58.2844
   690.46         58.6813
   690.60         59.0543
   690.74         59.4085
   690.88         59.7496
   691.02         60.0850
   691.16         60.4185
   691.30         60.7520
   691.44         61.0834
   691.58         61.4024
   691.72         61.6948
   691.86         61.9513
   692.00         62.1750
   692.14         62.3759
   692.28         62.5596
   692.42         62.7253
   692.56         62.8698
   692.70         62.9876
   692.84         63.0710
   692.98         63.1157
   693.12         63.1236
   693.26         63.0998
   693.40         63.0537
   693.54         63.0003
   693.68         62.9508
   693.82         62.9100
   693.96         62.8818
   694.10         62.8695
   694.24         62.8746
   694.38         62.8995
   694.52         62.9469
   694.66         63.0126
   694.80         63.0787
   694.94         63.1239
   695.08         63.1375
   695.22         63.1189
   695.36         63.0727
   695.50         63.0090
   695.64         62.9449
   695.78         62.8983
   695.92         62.8837
   696.06         62.9124
   696.20         62.9898
   696.34         63.1140
   696.48         63.2782
   696.62         63.4688
   696.76         63.6697
   696.90         63.8657
   697.04         64.0430
   697.18         64.1925
   697.32         64.3118
   697.46         64.4007
   697.60         64.4588
   697.74         64.4863
   697.88         64.4828
   698.02         64.4434
   698.16         64.3616
   698.30         64.2350
   698.44         64.0674
   698.58         63.8679
   698.72         63.6478
   698.86         63.4160
   699.00         63.1807
   699.14         62.9483
   699.28         62.7238
   699.42         62.5173
   699.56         62.3408
   699.70         62.2026
   699.84         62.1056
   699.98         62.0387
   700.12         61.9792
   700.26         61.9078
   700.40         61.8132
   700.54         61.6897
   700.68         61.5371
   700.82         61.3605
   700.96         61.1693
   701.10         60.9729
   701.24         60.7773
   701.38         60.5834
   701.52         60.3914
   701.66         60.2036
   701.80         60.0224
   701.94         59.8507
   702.08         59.6913
   702.22         59.5446
   702.36         59.4073
   702.50         59.2730
   702.64         59.1339
   702.78         58.9901
   702.92         58.8498
   703.06         58.7225
   703.20         58.6174
   703.34         58.5391
   703.48         58.4873
   703.62         58.4571
   703.76         58.4378
   703.90         58.4160
   704.04         58.3800
   704.18         58.3244
   704.32         58.2493
   704.46         58.1560
   704.60         58.0467
   704.74         57.9265
   704.88         57.8089
   705.02         57.7248
   705.16         57.7224
   705.30         57.8471
   705.44         58.1195
   705.58         58.5267
   705.72         59.0315
   705.86         59.5810
   706.00         60.1131
   706.14         60.5644
   706.28         60.8769
   706.42         61.0079
   706.56         60.9361
   706.70         60.6596
   706.84         60.1961
   706.98         59.5830
   707.12         58.8705
   707.26         58.1166
   707.40         57.3880
   707.54         56.7544
   707.68         56.2727
   707.82         55.9674
   707.96         55.8224
   708.10         55.7967
   708.24         55.8481
   708.38         55.9450
   708.52         56.0630
   708.66         56.1796
   708.80         56.2733
   708.94         56.3253
   709.08         56.3215
   709.22         56.2519
   709.36         56.1145
   709.50         55.9190
   709.64         55.6797
   709.78         55.4081
   709.92         55.1149
   710.06         54.8157
   710.20         54.5240
   710.34         54.2476
   710.48         53.9901
   710.62         53.7508
   710.76         53.5281
   710.90         53.3248
   711.04         53.1483
   711.18         53.0057
   711.32         52.9010
   711.46         52.8364
   711.60         52.8140
   711.74         52.8311
   711.88         52.8809
   712.02         52.9599
   712.16         53.0682
   712.30         53.2020
   712.44         53.3517
   712.58         53.5089
   712.72         53.6681
   712.86         53.8254
   713.00         53.9811
   713.14         54.1370
   713.28         54.2898
   713.42         54.4317
   713.56         54.5585
   713.70         54.6702
   713.84         54.7651
   713.98         54.8361
   714.12         54.8735
   714.26         54.8684
   714.40         54.8178
   714.54         54.7315
   714.68         54.6276
   714.82         54.5156
   714.96         54.3940
   715.10         54.2625
   715.24         54.1292
   715.38         54.0033
   715.52         53.8866
   715.66         53.7733
   715.80         53.6517
   715.94         53.5046
   716.08         53.3176
   716.22         53.0813
   716.36         52.7853
   716.50         52.4187
   716.64         51.9824
   716.78         51.4946
   716.92         50.9838
   717.06         50.4833
   717.20         50.0223
   717.34         49.6113
   717.48         49.2476
   717.62         48.9306
   717.76         48.6657
   717.90         48.4538
   718.04         48.2846
   718.18         48.1422
   718.32         48.0176
   718.46         47.9121
   718.60         47.8319
   718.74         47.7817
   718.88         47.7625
   719.02         47.7733
   719.16         47.8130
   719.30         47.8776
   719.44         47.9564
   719.58         48.0338
   719.72         48.0963
   719.86         48.1350
   720.00         48.1538
   720.14         48.1731
   720.28         48.2202
   720.42         48.3166
   720.56         48.4776
   720.70         48.7153
   720.84         49.0361
   720.98         49.4353
   721.12         49.8894
   721.26         50.3578
   721.40         50.7919
   721.54         51.1493
   721.68         51.4042
   721.82         51.5450
   721.96         51.5731
   722.10         51.4979
   722.24         51.3338
   722.38         51.1044
   722.52         50.8434
   722.66         50.5839
   722.80         50.3456
   722.94         50.1339
   723.08         49.9480
   723.22         49.7861
   723.36         49.6445
   723.50         49.5193
   723.64         49.4105
   723.78         49.3178
   723.92         49.2390
   724.06         49.1684
   724.20         49.0989
   724.34         49.0291
   724.48         48.9619
   724.62         48.8963
   724.76         48.8284
   724.90         48.7608
   725.04         48.7035
   725.18         48.6642
   725.32         48.6422
   725.46         48.6348
   725.60         48.6467
   725.74         48.6844
   725.88         48.7485
   726.02         48.8309
   726.16         48.9141
   726.30         48.9740
   726.44         48.9831
   726.58         48.9230
   726.72         48.7964
   726.86         48.6279
   727.00         48.4503
   727.14         48.2897
   727.28         48.1623
   727.42         48.0840
   727.56         48.0725
   727.70         48.1359
   727.84         48.2670
   727.98         48.4479
   728.12         48.6546
   728.26         48.8575
   728.40         49.0246
   728.54         49.1300
   728.68         49.1619
   728.82         49.1255
   728.96         49.0376
   729.10         48.9172
   729.24         48.7858
   729.38         48.6655
   729.52         48.5688
   729.66         48.4957
   729.80         48.4424
   729.94         48.4069
   730.08         48.3864
   730.22         48.3738
   730.36         48.3556
   730.50         48.3173
   730.64         48.2524
   730.78         48.1639
   730.92         48.0621
   731.06         47.9614
   731.20         47.8773
   731.34         47.8250
   731.48         47.8153
   731.62         47.8464
   731.76         47.9031
   731.90         47.9637
   732.04         48.0035
   732.18         47.9988
   732.32         47.9345
   732.46         47.8079
   732.60         47.6223
   732.74         47.3837
   732.88         47.1062
   733.02         46.8100
   733.16         46.5224
   733.30         46.2775
   733.44         46.1075
   733.58         46.0306
   733.72         46.0461
   733.86         46.1373
   734.00         46.2816
   734.14         46.4557
   734.28         46.6322
   734.42         46.7830
   734.56         46.8893
   734.70         46.9456
   734.84         46.9589
   734.98         46.9412
   735.12         46.9006
   735.26         46.8411
   735.40         46.7675
   735.54         46.6848
   735.68         46.5992
   735.82         46.5198
   735.96         46.4500
   736.10         46.3844
   736.24         46.3139
   736.38         46.2326
   736.52         46.1415
   736.66         46.0466
   736.80         45.9518
   736.94         45.8561
   737.08         45.7599
   737.22         45.6681
   737.36         45.5882
   737.50         45.5263
   737.64         45.4833
   737.78         45.4561
   737.92         45.4392
   738.06         45.4250
   738.20         45.4075
   738.34         45.3866
   738.48         45.3654
   738.62         45.3462
   738.76         45.3334
   738.90         45.3361
   739.04         45.3638
   739.18         45.4223
   739.32         45.5107
   739.46         45.6232
   739.60         45.7524
   739.74         45.8890
   739.88         46.0235
   740.02         46.1499
   740.16         46.2658
   740.30         46.3713
   740.44         46.4671
   740.58         46.5528
   740.72         46.6314
   740.86         46.7083
   741.00         46.7875
   741.14         46.8706
   741.28         46.9562
   741.42         47.0416
   741.56         47.1265
   741.70         47.2098
   741.84         47.2879
   741.98         47.3567
   742.12         47.4148
   742.26         47.4629
   742.40         47.5000
   742.54         47.5261
   742.68         47.5425
   742.82         47.5499
   742.96         47.5499
   743.10         47.5425
   743.24         47.5261
   743.38         47.5000
   743.52         47.4629
   743.66         47.4148
   743.80         47.3567
   743.94         47.2879
   744.08         47.2098
   744.22         47.1265
