# File HD107132
# Wavelength [nm]    Normalized Amplitude
   349.70         9.5473
   349.84         9.5183
   349.98         9.5012
   350.12         9.4932
   350.26         9.4912
   350.40         9.4947
   350.54         9.5048
   350.68         9.5206
   350.82         9.5383
   350.96         9.5519
   351.10         9.5570
   351.24         9.5519
   351.38         9.5383
   351.52         9.5206
   351.66         9.5048
   351.80         9.4947
   351.94         9.4912
   352.08         9.4932
   352.22         9.5012
   352.36         9.5183
   352.50         9.5473
   352.64         9.5876
   352.78         9.6360
   352.92         9.6887
   353.06         9.7410
   353.20         9.7884
   353.34         9.8271
   353.48         9.8548
   353.62         9.8713
   353.76         9.8796
   353.90         9.8862
   354.04         9.8981
   354.18         9.9207
   354.32         9.9553
   354.46         9.9971
   354.60         10.0391
   354.74         10.0749
   354.88         10.1003
   355.02         10.1118
   355.16         10.1055
   355.30         10.0772
   355.44         10.0252
   355.58         9.9521
   355.72         9.8623
   355.86         9.7596
   356.00         9.6475
   356.14         9.5301
   356.28         9.4115
   356.42         9.2948
   356.56         9.1828
   356.70         9.0780
   356.84         8.9812
   356.98         8.8895
   357.12         8.7993
   357.26         8.7095
   357.40         8.6219
   357.54         8.5397
   357.68         8.4649
   357.82         8.3968
   357.96         8.3354
   358.10         8.2839
   358.24         8.2468
   358.38         8.2279
   358.52         8.2324
   358.66         8.2672
   358.80         8.3380
   358.94         8.4467
   359.08         8.5913
   359.22         8.7638
   359.36         8.9484
   359.50         9.1238
   359.64         9.2705
   359.78         9.3744
   359.92         9.4269
   360.06         9.4257
   360.20         9.3743
   360.34         9.2817
   360.48         9.1606
   360.62         9.0272
   360.76         8.8968
   360.90         8.7808
   361.04         8.6877
   361.18         8.6241
   361.32         8.5932
   361.46         8.5939
   361.60         8.6233
   361.74         8.6746
   361.88         8.7374
   362.02         8.8015
   362.16         8.8589
   362.30         8.9041
   362.44         8.9346
   362.58         8.9509
   362.72         8.9560
   362.86         8.9544
   363.00         8.9511
   363.14         8.9504
   363.28         8.9557
   363.42         8.9695
   363.56         8.9931
   363.70         9.0269
   363.84         9.0706
   363.98         9.1220
   364.12         9.1764
   364.26         9.2306
   364.40         9.2818
   364.54         9.3290
   364.68         9.3737
   364.82         9.4191
   364.96         9.4715
   365.10         9.5379
   365.24         9.6230
   365.38         9.7271
   365.52         9.8452
   365.66         9.9671
   365.80         10.0820
   365.94         10.1809
   366.08         10.2582
   366.22         10.3114
   366.36         10.3432
   366.50         10.3600
   366.64         10.3685
   366.78         10.3741
   366.92         10.3799
   367.06         10.3870
   367.20         10.3952
   367.34         10.4023
   367.48         10.4047
   367.62         10.3969
   367.76         10.3729
   367.90         10.3305
   368.04         10.2734
   368.18         10.2108
   368.32         10.1529
   368.46         10.1099
   368.60         10.0909
   368.74         10.1038
   368.88         10.1531
   369.02         10.2372
   369.16         10.3476
   369.30         10.4696
   369.44         10.5857
   369.58         10.6811
   369.72         10.7463
   369.86         10.7759
   370.00         10.7683
   370.14         10.7266
   370.28         10.6599
   370.42         10.5836
   370.56         10.5140
   370.70         10.4631
   370.84         10.4335
   370.98         10.4196
   371.12         10.4145
   371.26         10.4138
   371.40         10.4159
   371.54         10.4192
   371.68         10.4206
   371.82         10.4168
   371.96         10.4054
   372.10         10.3854
   372.24         10.3554
   372.38         10.3117
   372.52         10.2511
   372.66         10.1741
   372.80         10.0855
   372.94         9.9920
   373.08         9.8993
   373.22         9.8093
   373.36         9.7207
   373.50         9.6315
   373.64         9.5409
   373.78         9.4494
   373.92         9.3585
   374.06         9.2690
   374.20         9.1820
   374.34         9.1031
   374.48         9.0413
   374.62         9.0018
   374.76         8.9862
   374.90         8.9975
   375.04         9.0419
   375.18         9.1270
   375.32         9.2550
   375.46         9.4198
   375.60         9.6081
   375.74         9.8016
   375.88         9.9791
   376.02         10.1235
   376.16         10.2260
   376.30         10.2880
   376.44         10.3201
   376.58         10.3395
   376.72         10.3675
   376.86         10.4255
   377.00         10.5304
   377.14         10.6882
   377.28         10.8948
   377.42         11.1405
   377.56         11.4101
   377.70         11.6846
   377.84         11.9417
   377.98         12.1596
   378.12         12.3195
   378.26         12.4060
   378.40         12.4089
   378.54         12.3254
   378.68         12.1635
   378.82         11.9428
   378.96         11.6927
   379.10         11.4462
   379.24         11.2350
   379.38         11.0856
   379.52         11.0172
   379.66         11.0388
   379.80         11.1486
   379.94         11.3340
   380.08         11.5751
   380.22         11.8494
   380.36         12.1334
   380.50         12.4013
   380.64         12.6269
   380.78         12.7861
   380.92         12.8622
   381.06         12.8508
   381.20         12.7551
   381.34         12.5857
   381.48         12.3590
   381.62         12.0922
   381.76         11.7998
   381.90         11.4931
   382.04         11.1807
   382.18         10.8694
   382.32         10.5641
   382.46         10.2682
   382.60         9.9844
   382.74         9.7181
   382.88         9.4800
   383.02         9.2840
   383.16         9.1465
   383.30         9.0839
   383.44         9.1085
   383.58         9.2275
   383.72         9.4383
   383.86         9.7285
   384.00         10.0805
   384.14         10.4756
   384.28         10.8927
   384.42         11.3082
   384.56         11.6960
   384.70         12.0311
   384.84         12.2954
   384.98         12.4830
   385.12         12.5996
   385.26         12.6598
   385.40         12.6835
   385.54         12.6922
   385.68         12.7037
   385.82         12.7287
   385.96         12.7678
   386.10         12.8159
   386.24         12.8671
   386.38         12.9169
   386.52         12.9603
   386.66         12.9908
   386.80         13.0008
   386.94         12.9835
   387.08         12.9318
   387.22         12.8413
   387.36         12.7113
   387.50         12.5442
   387.64         12.3430
   387.78         12.1119
   387.92         11.8575
   388.06         11.5900
   388.20         11.3228
   388.34         11.0715
   388.48         10.8519
   388.62         10.6783
   388.76         10.5649
   388.90         10.5229
   389.04         10.5540
   389.18         10.6500
   389.32         10.7974
   389.46         10.9820
   389.60         11.1881
   389.74         11.3999
   389.88         11.6050
   390.02         11.7952
   390.16         11.9668
   390.30         12.1202
   390.44         12.2604
   390.58         12.3928
   390.72         12.5177
   390.86         12.6303
   391.00         12.7230
   391.14         12.7866
   391.28         12.8112
   391.42         12.7866
   391.56         12.6999
   391.70         12.5357
   391.84         12.2812
   391.98         11.9293
   392.12         11.4795
   392.26         10.9392
   392.40         10.3268
   392.54         9.6713
   392.68         9.0111
   392.82         8.3905
   392.96         7.8536
   393.10         7.4391
   393.24         7.1764
   393.38         7.0825
   393.52         7.1610
   393.66         7.4030
   393.80         7.7860
   393.94         8.2748
   394.08         8.8255
   394.22         9.3925
   394.36         9.9338
   394.50         10.4164
   394.64         10.8193
   394.78         11.1325
   394.92         11.3539
   395.06         11.4847
   395.20         11.5256
   395.34         11.4753
   395.48         11.3303
   395.62         11.0865
   395.76         10.7451
   395.90         10.3193
   396.04         9.8329
   396.18         9.3196
   396.32         8.8192
   396.46         8.3743
   396.60         8.0251
   396.74         7.8051
   396.88         7.7380
   397.02         7.8358
   397.16         8.0975
   397.30         8.5078
   397.44         9.0372
   397.58         9.6457
   397.72         10.2904
   397.86         10.9330
   398.00         11.5433
   398.14         12.1012
   398.28         12.5962
   398.42         13.0260
   398.56         13.3924
   398.70         13.6986
   398.84         13.9493
   398.98         14.1511
   399.12         14.3100
   399.26         14.4302
   399.40         14.5152
   399.54         14.5698
   399.68         14.5999
   399.82         14.6128
   399.96         14.6173
   400.10         14.6232
   400.24         14.6400
   400.38         14.6748
   400.52         14.7300
   400.66         14.8033
   400.80         14.8903
   400.94         14.9859
   401.08         15.0839
   401.22         15.1768
   401.36         15.2588
   401.50         15.3271
   401.64         15.3809
   401.78         15.4164
   401.92         15.4288
   402.06         15.4157
   402.20         15.3781
   402.34         15.3198
   402.48         15.2467
   402.62         15.1662
   402.76         15.0875
   402.90         15.0194
   403.04         14.9682
   403.18         14.9365
   403.32         14.9224
   403.46         14.9209
   403.60         14.9258
   403.74         14.9317
   403.88         14.9360
   404.02         14.9393
   404.16         14.9414
   404.30         14.9397
   404.44         14.9294
   404.58         14.9080
   404.72         14.8774
   404.86         14.8409
   405.00         14.8005
   405.14         14.7555
   405.28         14.7058
   405.42         14.6519
   405.56         14.5944
   405.70         14.5341
   405.84         14.4739
   405.98         14.4193
   406.12         14.3781
   406.26         14.3576
   406.40         14.3583
   406.54         14.3728
   406.68         14.3898
   406.82         14.4007
   406.96         14.4024
   407.10         14.3955
   407.24         14.3807
   407.38         14.3603
   407.52         14.3398
   407.66         14.3270
   407.80         14.3310
   407.94         14.3605
   408.08         14.4193
   408.22         14.5031
   408.36         14.6003
   408.50         14.6935
   408.64         14.7611
   408.78         14.7792
   408.92         14.7255
   409.06         14.5863
   409.20         14.3636
   409.34         14.0755
   409.48         13.7506
   409.62         13.4198
   409.76         13.1126
   409.90         12.8569
   410.04         12.6795
   410.18         12.6010
   410.32         12.6314
   410.46         12.7674
   410.60         12.9940
   410.74         13.2867
   410.88         13.6162
   411.02         13.9526
   411.16         14.2689
   411.30         14.5440
   411.44         14.7646
   411.58         14.9271
   411.72         15.0358
   411.86         15.0991
   412.00         15.1245
   412.14         15.1174
   412.28         15.0841
   412.42         15.0342
   412.56         14.9788
   412.70         14.9292
   412.84         14.8951
   412.98         14.8812
   413.12         14.8863
   413.26         14.9061
   413.40         14.9366
   413.54         14.9761
   413.68         15.0221
   413.82         15.0708
   413.96         15.1159
   414.10         15.1506
   414.24         15.1691
   414.38         15.1685
   414.52         15.1499
   414.66         15.1183
   414.80         15.0836
   414.94         15.0580
   415.08         15.0523
   415.22         15.0737
   415.36         15.1245
   415.50         15.2009
   415.64         15.2937
   415.78         15.3926
   415.92         15.4889
   416.06         15.5740
   416.20         15.6373
   416.34         15.6685
   416.48         15.6611
   416.62         15.6139
   416.76         15.5304
   416.90         15.4186
   417.04         15.2904
   417.18         15.1584
   417.32         15.0341
   417.46         14.9276
   417.60         14.8450
   417.74         14.7893
   417.88         14.7612
   418.02         14.7578
   418.16         14.7743
   418.30         14.8048
   418.44         14.8421
   418.58         14.8778
   418.72         14.9034
   418.86         14.9140
   419.00         14.9093
   419.14         14.8913
   419.28         14.8632
   419.42         14.8300
   419.56         14.7986
   419.70         14.7772
   419.84         14.7749
   419.98         14.8008
   420.12         14.8596
   420.26         14.9483
   420.40         15.0582
   420.54         15.1763
   420.68         15.2872
   420.82         15.3763
   420.96         15.4318
   421.10         15.4471
   421.24         15.4201
   421.38         15.3503
   421.52         15.2398
   421.66         15.0952
   421.80         14.9291
   421.94         14.7577
   422.08         14.5961
   422.22         14.4559
   422.36         14.3461
   422.50         14.2713
   422.64         14.2299
   422.78         14.2152
   422.92         14.2209
   423.06         14.2440
   423.20         14.2834
   423.34         14.3366
   423.48         14.3997
   423.62         14.4668
   423.76         14.5307
   423.90         14.5849
   424.04         14.6263
   424.18         14.6575
   424.32         14.6842
   424.46         14.7104
   424.60         14.7353
   424.74         14.7541
   424.88         14.7609
   425.02         14.7530
   425.16         14.7327
   425.30         14.7065
   425.44         14.6826
   425.58         14.6677
   425.72         14.6645
   425.86         14.6695
   426.00         14.6750
   426.14         14.6731
   426.28         14.6592
   426.42         14.6333
   426.56         14.6006
   426.70         14.5671
   426.84         14.5373
   426.98         14.5139
   427.12         14.4991
   427.26         14.4941
   427.40         14.4985
   427.54         14.5108
   427.68         14.5284
   427.82         14.5474
   427.96         14.5603
   428.10         14.5578
   428.24         14.5326
   428.38         14.4802
   428.52         14.3976
   428.66         14.2841
   428.80         14.1418
   428.94         13.9751
   429.08         13.7903
   429.22         13.5927
   429.36         13.3872
   429.50         13.1780
   429.64         12.9705
   429.78         12.7710
   429.92         12.5877
   430.06         12.4314
   430.20         12.3141
   430.34         12.2483
   430.48         12.2466
   430.62         12.3186
   430.76         12.4664
   430.90         12.6822
   431.04         12.9485
   431.18         13.2413
   431.32         13.5350
   431.46         13.8064
   431.60         14.0398
   431.74         14.2260
   431.88         14.3609
   432.02         14.4447
   432.16         14.4822
   432.30         14.4808
   432.44         14.4476
   432.58         14.3860
   432.72         14.2937
   432.86         14.1647
   433.00         13.9958
   433.14         13.7896
   433.28         13.5544
   433.42         13.3032
   433.56         13.0527
   433.70         12.8220
   433.84         12.6301
   433.98         12.4939
   434.12         12.4284
   434.26         12.4443
   434.40         12.5441
   434.54         12.7208
   434.68         12.9600
   434.82         13.2411
   434.96         13.5397
   435.10         13.8320
   435.24         14.1003
   435.38         14.3362
   435.52         14.5397
   435.66         14.7153
   435.80         14.8671
   435.94         14.9971
   436.08         15.1044
   436.22         15.1851
   436.36         15.2343
   436.50         15.2503
   436.64         15.2363
   436.78         15.2007
   436.92         15.1531
   437.06         15.0995
   437.20         15.0411
   437.34         14.9771
   437.48         14.9083
   437.62         14.8384
   437.76         14.7721
   437.90         14.7142
   438.04         14.6680
   438.18         14.6353
   438.32         14.6177
   438.46         14.6170
   438.60         14.6341
   438.74         14.6670
   438.88         14.7103
   439.02         14.7587
   439.16         14.8074
   439.30         14.8513
   439.44         14.8840
   439.58         14.9000
   439.72         14.8962
   439.86         14.8753
   440.00         14.8462
   440.14         14.8190
   440.28         14.8016
   440.42         14.7980
   440.56         14.8094
   440.70         14.8363
   440.84         14.8785
   440.98         14.9344
   441.12         15.0016
   441.26         15.0769
   441.40         15.1556
   441.54         15.2340
   441.68         15.3096
   441.82         15.3800
   441.96         15.4424
   442.10         15.4938
   442.24         15.5309
   442.38         15.5504
   442.52         15.5506
   442.66         15.5325
   442.80         15.5000
   442.94         15.4597
   443.08         15.4193
   443.22         15.3860
   443.36         15.3662
   443.50         15.3639
   443.64         15.3802
   443.78         15.4142
   443.92         15.4632
   444.06         15.5221
   444.20         15.5828
   444.34         15.6352
   444.48         15.6694
   444.62         15.6766
   444.76         15.6517
   444.90         15.5940
   445.04         15.5081
   445.18         15.4029
   445.32         15.2896
   445.46         15.1797
   445.60         15.0824
   445.74         15.0047
   445.88         14.9522
   446.02         14.9290
   446.16         14.9377
   446.30         14.9796
   446.44         15.0533
   446.58         15.1538
   446.72         15.2720
   446.86         15.3962
   447.00         15.5154
   447.14         15.6209
   447.28         15.7062
   447.42         15.7682
   447.56         15.8055
   447.70         15.8171
   447.84         15.8037
   447.98         15.7689
   448.12         15.7182
   448.26         15.6579
   448.40         15.5958
   448.54         15.5407
   448.68         15.5022
   448.82         15.4878
   448.96         15.5004
   449.10         15.5393
   449.24         15.6027
   449.38         15.6873
   449.52         15.7886
   449.66         15.9027
   449.80         16.0258
   449.94         16.1524
   450.08         16.2754
   450.22         16.3865
   450.36         16.4786
   450.50         16.5467
   450.64         16.5892
   450.78         16.6058
   450.92         16.5972
   451.06         16.5656
   451.20         16.5147
   451.34         16.4483
   451.48         16.3678
   451.62         16.2744
   451.76         16.1701
   451.90         16.0563
   452.04         15.9328
   452.18         15.7996
   452.32         15.6594
   452.46         15.5177
   452.60         15.3838
   452.74         15.2681
   452.88         15.1801
   453.02         15.1262
   453.16         15.1082
   453.30         15.1233
   453.44         15.1644
   453.58         15.2212
   453.72         15.2821
   453.86         15.3363
   454.00         15.3754
   454.14         15.3946
   454.28         15.3938
   454.42         15.3769
   454.56         15.3523
   454.70         15.3315
   454.84         15.3262
   454.98         15.3450
   455.12         15.3910
   455.26         15.4615
   455.40         15.5494
   455.54         15.6465
   455.68         15.7451
   455.82         15.8376
   455.96         15.9177
   456.10         15.9814
   456.24         16.0274
   456.38         16.0580
   456.52         16.0784
   456.66         16.0945
   456.80         16.1092
   456.94         16.1230
   457.08         16.1336
   457.22         16.1368
   457.36         16.1266
   457.50         16.0965
   457.64         16.0416
   457.78         15.9614
   457.92         15.8601
   458.06         15.7459
   458.20         15.6290
   458.34         15.5188
   458.48         15.4222
   458.62         15.3459
   458.76         15.2957
   458.90         15.2742
   459.04         15.2800
   459.18         15.3078
   459.32         15.3481
   459.46         15.3903
   459.60         15.4264
   459.74         15.4523
   459.88         15.4675
   460.02         15.4751
   460.16         15.4808
   460.30         15.4907
   460.44         15.5104
   460.58         15.5438
   460.72         15.5934
   460.86         15.6600
   461.00         15.7405
   461.14         15.8281
   461.28         15.9136
   461.42         15.9883
   461.56         16.0453
   461.70         16.0814
   461.84         16.0965
   461.98         16.0926
   462.12         16.0741
   462.26         16.0459
   462.40         16.0122
   462.54         15.9769
   462.68         15.9430
   462.82         15.9121
   462.96         15.8839
   463.10         15.8571
   463.24         15.8303
   463.38         15.8020
   463.52         15.7700
   463.66         15.7322
   463.80         15.6892
   463.94         15.6445
   464.08         15.6019
   464.22         15.5630
   464.36         15.5284
   464.50         15.4976
   464.64         15.4703
   464.78         15.4471
   464.92         15.4304
   465.06         15.4226
   465.20         15.4244
   465.34         15.4332
   465.48         15.4438
   465.62         15.4496
   465.76         15.4443
   465.90         15.4246
   466.04         15.3909
   466.18         15.3472
   466.32         15.3002
   466.46         15.2564
   466.60         15.2202
   466.74         15.1941
   466.88         15.1799
   467.02         15.1798
   467.16         15.1953
   467.30         15.2264
   467.44         15.2702
   467.58         15.3214
   467.72         15.3721
   467.86         15.4141
   468.00         15.4423
   468.14         15.4566
   468.28         15.4616
   468.42         15.4661
   468.56         15.4776
   468.70         15.4992
   468.84         15.5297
   468.98         15.5641
   469.12         15.5958
   469.26         15.6190
   469.40         15.6294
   469.54         15.6240
   469.68         15.6007
   469.82         15.5587
   469.96         15.4999
   470.10         15.4296
   470.24         15.3553
   470.38         15.2853
   470.52         15.2278
   470.66         15.1902
   470.80         15.1775
   470.94         15.1908
   471.08         15.2269
   471.22         15.2798
   471.36         15.3430
   471.50         15.4107
   471.64         15.4773
   471.78         15.5381
   471.92         15.5895
   472.06         15.6296
   472.20         15.6581
   472.34         15.6751
   472.48         15.6815
   472.62         15.6803
   472.76         15.6748
   472.90         15.6670
   473.04         15.6585
   473.18         15.6508
   473.32         15.6453
   473.46         15.6424
   473.60         15.6416
   473.74         15.6412
   473.88         15.6403
   474.02         15.6381
   474.16         15.6333
   474.30         15.6247
   474.44         15.6113
   474.58         15.5945
   474.72         15.5774
   474.86         15.5605
   475.00         15.5413
   475.14         15.5182
   475.28         15.4918
   475.42         15.4628
   475.56         15.4306
   475.70         15.3953
   475.84         15.3564
   475.98         15.3128
   476.12         15.2648
   476.26         15.2159
   476.40         15.1736
   476.54         15.1458
   476.68         15.1364
   476.82         15.1449
   476.96         15.1684
   477.10         15.2046
   477.24         15.2513
   477.38         15.3047
   477.52         15.3581
   477.66         15.4055
   477.80         15.4433
   477.94         15.4695
   478.08         15.4840
   478.22         15.4892
   478.36         15.4879
   478.50         15.4817
   478.64         15.4724
   478.78         15.4627
   478.92         15.4550
   479.06         15.4500
   479.20         15.4458
   479.34         15.4405
   479.48         15.4345
   479.62         15.4296
   479.76         15.4267
   479.90         15.4258
   480.04         15.4261
   480.18         15.4262
   480.32         15.4251
   480.46         15.4238
   480.60         15.4252
   480.74         15.4328
   480.88         15.4484
   481.02         15.4716
   481.16         15.4998
   481.30         15.5295
   481.44         15.5583
   481.58         15.5854
   481.72         15.6101
   481.86         15.6307
   482.00         15.6440
   482.14         15.6465
   482.28         15.6370
   482.42         15.6179
   482.56         15.5937
   482.70         15.5680
   482.84         15.5420
   482.98         15.5152
   483.12         15.4863
   483.26         15.4536
   483.40         15.4149
   483.54         15.3688
   483.68         15.3150
   483.82         15.2538
   483.96         15.1876
   484.10         15.1184
   484.24         15.0445
   484.38         14.9607
   484.52         14.8596
   484.66         14.7335
   484.80         14.5742
   484.94         14.3733
   485.08         14.1240
   485.22         13.8249
   485.36         13.4839
   485.50         13.1200
   485.64         12.7588
   485.78         12.4287
   485.92         12.1550
   486.06         11.9558
   486.20         11.8413
   486.34         11.8142
   486.48         11.8705
   486.62         12.0012
   486.76         12.1937
   486.90         12.4332
   487.04         12.7023
   487.18         12.9825
   487.32         13.2558
   487.46         13.5071
   487.60         13.7267
   487.74         13.9113
   487.88         14.0621
   488.02         14.1821
   488.16         14.2751
   488.30         14.3447
   488.44         14.3950
   488.58         14.4306
   488.72         14.4569
   488.86         14.4803
   489.00         14.5071
   489.14         14.5423
   489.28         14.5882
   489.42         14.6449
   489.56         14.7105
   489.70         14.7819
   489.84         14.8539
   489.98         14.9207
   490.12         14.9786
   490.26         15.0256
   490.40         15.0608
   490.54         15.0837
   490.68         15.0925
   490.82         15.0843
   490.96         15.0565
   491.10         15.0073
   491.24         14.9362
   491.38         14.8460
   491.52         14.7441
   491.66         14.6425
   491.80         14.5540
   491.94         14.4893
   492.08         14.4544
   492.22         14.4507
   492.36         14.4748
   492.50         14.5195
   492.64         14.5762
   492.78         14.6369
   492.92         14.6930
   493.06         14.7373
   493.20         14.7658
   493.34         14.7776
   493.48         14.7764
   493.62         14.7702
   493.76         14.7666
   493.90         14.7709
   494.04         14.7865
   494.18         14.8138
   494.32         14.8485
   494.46         14.8820
   494.60         14.9048
   494.74         14.9108
   494.88         14.8998
   495.02         14.8751
   495.16         14.8428
   495.30         14.8104
   495.44         14.7849
   495.58         14.7718
   495.72         14.7741
   495.86         14.7919
   496.00         14.8222
   496.14         14.8610
   496.28         14.9035
   496.42         14.9427
   496.56         14.9721
   496.70         14.9857
   496.84         14.9782
   496.98         14.9463
   497.12         14.8907
   497.26         14.8163
   497.40         14.7312
   497.54         14.6446
   497.68         14.5639
   497.82         14.4950
   497.96         14.4414
   498.10         14.4039
   498.24         14.3829
   498.38         14.3789
   498.52         14.3909
   498.66         14.4167
   498.80         14.4519
   498.94         14.4908
   499.08         14.5270
   499.22         14.5548
   499.36         14.5696
   499.50         14.5693
   499.64         14.5566
   499.78         14.5379
   499.92         14.5185
   500.06         14.5005
   500.20         14.4835
   500.34         14.4652
   500.48         14.4421
   500.62         14.4100
   500.76         14.3659
   500.90         14.3101
   501.04         14.2452
   501.18         14.1758
   501.32         14.1080
   501.46         14.0480
   501.60         14.0010
   501.74         13.9710
   501.88         13.9615
   502.02         13.9744
   502.16         14.0094
   502.30         14.0633
   502.44         14.1283
   502.58         14.1941
   502.72         14.2509
   502.86         14.2917
   503.00         14.3127
   503.14         14.3154
   503.28         14.3061
   503.42         14.2927
   503.56         14.2817
   503.70         14.2771
   503.84         14.2809
   503.98         14.2930
   504.12         14.3114
   504.26         14.3351
   504.40         14.3640
   504.54         14.3972
   504.68         14.4330
   504.82         14.4701
   504.96         14.5075
   505.10         14.5432
   505.24         14.5740
   505.38         14.5963
   505.52         14.6080
   505.66         14.6108
   505.80         14.6064
   505.94         14.5934
   506.08         14.5680
   506.22         14.5283
   506.36         14.4753
   506.50         14.4125
   506.64         14.3442
   506.78         14.2736
   506.92         14.2046
   507.06         14.1417
   507.20         14.0884
   507.34         14.0476
   507.48         14.0209
   507.62         14.0082
   507.76         14.0082
   507.90         14.0209
   508.04         14.0478
   508.18         14.0910
   508.32         14.1501
   508.46         14.2195
   508.60         14.2894
   508.74         14.3510
   508.88         14.3993
   509.02         14.4323
   509.16         14.4503
   509.30         14.4543
   509.44         14.4467
   509.58         14.4312
   509.72         14.4109
   509.86         14.3879
   510.00         14.3662
   510.14         14.3514
   510.28         14.3475
   510.42         14.3562
   510.56         14.3777
   510.70         14.4102
   510.84         14.4501
   510.98         14.4920
   511.12         14.5299
   511.26         14.5596
   511.40         14.5804
   511.54         14.5932
   511.68         14.5968
   511.82         14.5884
   511.96         14.5657
   512.10         14.5290
   512.24         14.4814
   512.38         14.4280
   512.52         14.3738
   512.66         14.3208
   512.80         14.2679
   512.94         14.2133
   513.08         14.1569
   513.22         14.1001
   513.36         14.0446
   513.50         13.9924
   513.64         13.9452
   513.78         13.9039
   513.92         13.8706
   514.06         13.8473
   514.20         13.8343
   514.34         13.8306
   514.48         13.8364
   514.62         13.8527
   514.76         13.8796
   514.90         13.9157
   515.04         13.9568
   515.18         13.9961
   515.32         14.0254
   515.46         14.0365
   515.60         14.0230
   515.74         13.9794
   515.88         13.9011
   516.02         13.7856
   516.16         13.6356
   516.30         13.4604
   516.44         13.2749
   516.58         13.0981
   516.72         12.9471
   516.86         12.8345
   517.00         12.7667
   517.14         12.7426
   517.28         12.7557
   517.42         12.7967
   517.56         12.8549
   517.70         12.9194
   517.84         12.9791
   517.98         13.0247
   518.12         13.0503
   518.26         13.0557
   518.40         13.0460
   518.54         13.0296
   518.68         13.0171
   518.82         13.0195
   518.96         13.0443
   519.10         13.0931
   519.24         13.1610
   519.38         13.2390
   519.52         13.3174
   519.66         13.3889
   519.80         13.4517
   519.94         13.5085
   520.08         13.5623
   520.22         13.6130
   520.36         13.6577
   520.50         13.6918
   520.64         13.7129
   520.78         13.7224
   520.92         13.7249
   521.06         13.7240
   521.20         13.7211
   521.34         13.7137
   521.48         13.6970
   521.62         13.6685
   521.76         13.6283
   521.90         13.5798
   522.04         13.5282
   522.18         13.4779
   522.32         13.4321
   522.46         13.3945
   522.60         13.3682
   522.74         13.3547
   522.88         13.3530
   523.02         13.3625
   523.16         13.3837
   523.30         13.4172
   523.44         13.4630
   523.58         13.5188
   523.72         13.5798
   523.86         13.6397
   524.00         13.6933
   524.14         13.7398
   524.28         13.7814
   524.42         13.8206
   524.56         13.8591
   524.70         13.8959
   524.84         13.9279
   524.98         13.9513
   525.12         13.9623
   525.26         13.9561
   525.40         13.9274
   525.54         13.8730
   525.68         13.7936
   525.82         13.6926
   525.96         13.5755
   526.10         13.4490
   526.24         13.3205
   526.38         13.1976
   526.52         13.0889
   526.66         13.0030
   526.80         12.9469
   526.94         12.9233
   527.08         12.9308
   527.22         12.9646
   527.36         13.0184
   527.50         13.0855
   527.64         13.1608
   527.78         13.2406
   527.92         13.3228
   528.06         13.4059
   528.20         13.4890
   528.34         13.5700
   528.48         13.6438
   528.62         13.7037
   528.76         13.7447
   528.90         13.7650
   529.04         13.7654
   529.18         13.7501
   529.32         13.7250
   529.46         13.6964
   529.60         13.6705
   529.74         13.6537
   529.88         13.6519
   530.02         13.6701
   530.16         13.7096
   530.30         13.7675
   530.44         13.8373
   530.58         13.9098
   530.72         13.9755
   530.86         14.0246
   531.00         14.0490
   531.14         14.0444
   531.28         14.0112
   531.42         13.9537
   531.56         13.8773
   531.70         13.7870
   531.84         13.6885
   531.98         13.5885
   532.12         13.4934
   532.26         13.4099
   532.40         13.3444
   532.54         13.3009
   532.68         13.2793
   532.82         13.2761
   532.96         13.2870
   533.10         13.3075
   533.24         13.3342
   533.38         13.3632
   533.52         13.3904
   533.66         13.4134
   533.80         13.4311
   533.94         13.4432
   534.08         13.4505
   534.22         13.4562
   534.36         13.4654
   534.50         13.4836
   534.64         13.5148
   534.78         13.5599
   534.92         13.6167
   535.06         13.6787
   535.20         13.7370
   535.34         13.7831
   535.48         13.8113
   535.62         13.8182
   535.76         13.8017
   535.90         13.7615
   536.04         13.7001
   536.18         13.6247
   536.32         13.5465
   536.46         13.4759
   536.60         13.4207
   536.74         13.3864
   536.88         13.3760
   537.02         13.3881
   537.16         13.4183
   537.30         13.4606
   537.44         13.5089
   537.58         13.5564
   537.72         13.5965
   537.86         13.6251
   538.00         13.6402
   538.14         13.6423
   538.28         13.6327
   538.42         13.6131
   538.56         13.5864
   538.70         13.5567
   538.84         13.5280
   538.98         13.5016
   539.12         13.4755
   539.26         13.4475
   539.40         13.4161
   539.54         13.3816
   539.68         13.3453
   539.82         13.3087
   539.96         13.2735
   540.10         13.2413
   540.24         13.2137
   540.38         13.1931
   540.52         13.1823
   540.66         13.1842
   540.80         13.1994
   540.94         13.2259
   541.08         13.2604
   541.22         13.2992
   541.36         13.3379
   541.50         13.3727
   541.64         13.4006
   541.78         13.4197
   541.92         13.4293
   542.06         13.4295
   542.20         13.4212
   542.34         13.4063
   542.48         13.3866
   542.62         13.3665
   542.76         13.3518
   542.90         13.3478
   543.04         13.3570
   543.18         13.3773
   543.32         13.4040
   543.46         13.4315
   543.60         13.4546
   543.74         13.4705
   543.88         13.4779
   544.02         13.4763
   544.16         13.4662
   544.30         13.4474
   544.44         13.4204
   544.58         13.3867
   544.72         13.3496
   544.86         13.3137
   545.00         13.2822
   545.14         13.2575
   545.28         13.2405
   545.42         13.2310
   545.56         13.2278
   545.70         13.2287
   545.84         13.2328
   545.98         13.2411
   546.12         13.2552
   546.26         13.2754
   546.40         13.3007
   546.54         13.3277
   546.68         13.3522
   546.82         13.3710
   546.96         13.3812
   547.10         13.3820
   547.24         13.3737
   547.38         13.3573
   547.52         13.3347
   547.66         13.3090
   547.80         13.2837
   547.94         13.2624
   548.08         13.2484
   548.22         13.2441
   548.36         13.2507
   548.50         13.2675
   548.64         13.2926
   548.78         13.3228
   548.92         13.3545
   549.06         13.3842
   549.20         13.4088
   549.34         13.4266
   549.48         13.4357
   549.62         13.4338
   549.76         13.4201
   549.90         13.3963
   550.04         13.3654
   550.18         13.3312
   550.32         13.2982
   550.46         13.2707
   550.60         13.2531
   550.74         13.2492
   550.88         13.2622
   551.02         13.2929
   551.16         13.3398
   551.30         13.3989
   551.44         13.4630
   551.58         13.5237
   551.72         13.5738
   551.86         13.6079
   552.00         13.6218
   552.14         13.6139
   552.28         13.5862
   552.42         13.5431
   552.56         13.4906
   552.70         13.4343
   552.84         13.3798
   552.98         13.3316
   553.12         13.2922
   553.26         13.2631
   553.40         13.2455
   553.54         13.2401
   553.68         13.2460
   553.82         13.2615
   553.96         13.2833
   554.10         13.3074
   554.24         13.3311
   554.38         13.3528
   554.52         13.3708
   554.66         13.3847
   554.80         13.3957
   554.94         13.4047
   555.08         13.4110
   555.22         13.4136
   555.36         13.4118
   555.50         13.4044
   555.64         13.3894
   555.78         13.3658
   555.92         13.3334
   556.06         13.2933
   556.20         13.2470
   556.34         13.1968
   556.48         13.1461
   556.62         13.0975
   556.76         13.0542
   556.90         13.0200
   557.04         12.9975
   557.18         12.9876
   557.32         12.9888
   557.46         12.9972
   557.60         13.0073
   557.74         13.0139
   557.88         13.0140
   558.02         13.0062
   558.16         12.9890
   558.30         12.9622
   558.44         12.9277
   558.58         12.8888
   558.72         12.8495
   558.86         12.8131
   559.00         12.7815
   559.14         12.7550
   559.28         12.7338
   559.42         12.7192
   559.56         12.7125
   559.70         12.7143
   559.84         12.7257
   559.98         12.7469
   560.12         12.7762
   560.26         12.8102
   560.40         12.8449
   560.54         12.8767
   560.68         12.9025
   560.82         12.9204
   560.96         12.9304
   561.10         12.9328
   561.24         12.9275
   561.38         12.9149
   561.52         12.8966
   561.66         12.8762
   561.80         12.8585
   561.94         12.8486
   562.08         12.8502
   562.22         12.8653
   562.36         12.8932
   562.50         12.9303
   562.64         12.9705
   562.78         13.0083
   562.92         13.0408
   563.06         13.0665
   563.20         13.0848
   563.34         13.0954
   563.48         13.0983
   563.62         13.0932
   563.76         13.0797
   563.90         13.0596
   564.04         13.0367
   564.18         13.0143
   564.32         12.9942
   564.46         12.9758
   564.60         12.9570
   564.74         12.9351
   564.88         12.9085
   565.02         12.8759
   565.16         12.8371
   565.30         12.7943
   565.44         12.7518
   565.58         12.7136
   565.72         12.6828
   565.86         12.6630
   566.00         12.6571
   566.14         12.6664
   566.28         12.6899
   566.42         12.7256
   566.56         12.7711
   566.70         12.8214
   566.84         12.8691
   566.98         12.9072
   567.12         12.9302
   567.26         12.9348
   567.40         12.9201
   567.54         12.8879
   567.68         12.8419
   567.82         12.7870
   567.96         12.7293
   568.10         12.6757
   568.24         12.6322
   568.38         12.6033
   568.52         12.5907
   568.66         12.5940
   568.80         12.6109
   568.94         12.6374
   569.08         12.6689
   569.22         12.6996
   569.36         12.7222
   569.50         12.7304
   569.64         12.7196
   569.78         12.6876
   569.92         12.6352
   570.06         12.5665
   570.20         12.4889
   570.34         12.4110
   570.48         12.3413
   570.62         12.2881
   570.76         12.2573
   570.90         12.2525
   571.04         12.2735
   571.18         12.3169
   571.32         12.3780
   571.46         12.4511
   571.60         12.5302
   571.74         12.6090
   571.88         12.6812
   572.02         12.7416
   572.16         12.7870
   572.30         12.8164
   572.44         12.8318
   572.58         12.8364
   572.72         12.8347
   572.86         12.8322
   573.00         12.8337
   573.14         12.8419
   573.28         12.8572
   573.42         12.8784
   573.56         12.9036
   573.70         12.9295
   573.84         12.9530
   573.98         12.9712
   574.12         12.9805
   574.26         12.9774
   574.40         12.9598
   574.54         12.9281
   574.68         12.8858
   574.82         12.8371
   574.96         12.7864
   575.10         12.7370
   575.24         12.6924
   575.38         12.6575
   575.52         12.6365
   575.66         12.6316
   575.80         12.6426
   575.94         12.6669
   576.08         12.7004
   576.22         12.7385
   576.36         12.7766
   576.50         12.8107
   576.64         12.8379
   576.78         12.8566
   576.92         12.8651
   577.06         12.8625
   577.20         12.8484
   577.34         12.8225
   577.48         12.7861
   577.62         12.7427
   577.76         12.6975
   577.90         12.6568
   578.04         12.6242
   578.18         12.5988
   578.32         12.5785
   578.46         12.5610
   578.60         12.5450
   578.74         12.5305
   578.88         12.5189
   579.02         12.5109
   579.16         12.5057
   579.30         12.5018
   579.44         12.4977
   579.58         12.4933
   579.72         12.4906
   579.86         12.4920
   580.00         12.4994
   580.14         12.5143
   580.28         12.5359
   580.42         12.5610
   580.56         12.5856
   580.70         12.6058
   580.84         12.6205
   580.98         12.6316
   581.12         12.6418
   581.26         12.6540
   581.40         12.6697
   581.54         12.6893
   581.68         12.7123
   581.82         12.7384
   581.96         12.7678
   582.10         12.7992
   582.24         12.8304
   582.38         12.8582
   582.52         12.8790
   582.66         12.8911
   582.80         12.8942
   582.94         12.8885
   583.08         12.8750
   583.22         12.8563
   583.36         12.8363
   583.50         12.8188
   583.64         12.8058
   583.78         12.7982
   583.92         12.7947
   584.06         12.7924
   584.20         12.7877
   584.34         12.7775
   584.48         12.7589
   584.62         12.7292
   584.76         12.6879
   584.90         12.6377
   585.04         12.5834
   585.18         12.5301
   585.32         12.4835
   585.46         12.4490
   585.60         12.4302
   585.74         12.4291
   585.88         12.4472
   586.02         12.4829
   586.16         12.5310
   586.30         12.5849
   586.44         12.6382
   586.58         12.6858
   586.72         12.7238
   586.86         12.7491
   587.00         12.7598
   587.14         12.7564
   587.28         12.7416
   587.42         12.7187
   587.56         12.6893
   587.70         12.6524
   587.84         12.6055
   587.98         12.5472
   588.12         12.4777
   588.26         12.3967
   588.40         12.3041
   588.54         12.2014
   588.68         12.0922
   588.82         11.9827
   588.96         11.8812
   589.10         11.7965
   589.24         11.7364
   589.38         11.7064
   589.52         11.7087
   589.66         11.7423
   589.80         11.8036
   589.94         11.8862
   590.08         11.9810
   590.22         12.0777
   590.36         12.1679
   590.50         12.2460
   590.64         12.3101
   590.78         12.3594
   590.92         12.3938
   591.06         12.4153
   591.20         12.4275
   591.34         12.4346
   591.48         12.4399
   591.62         12.4447
   591.76         12.4494
   591.90         12.4540
   592.04         12.4577
   592.18         12.4593
   592.32         12.4568
   592.46         12.4505
   592.60         12.4419
   592.74         12.4324
   592.88         12.4224
   593.02         12.4120
   593.16         12.4016
   593.30         12.3915
   593.44         12.3815
   593.58         12.3710
   593.72         12.3600
   593.86         12.3492
   594.00         12.3382
   594.14         12.3262
   594.28         12.3127
   594.42         12.2991
   594.56         12.2871
   594.70         12.2782
   594.84         12.2726
   594.98         12.2705
   595.12         12.2716
   595.26         12.2745
   595.40         12.2774
   595.54         12.2792
   595.68         12.2808
   595.82         12.2843
   595.96         12.2912
   596.10         12.3012
   596.24         12.3136
   596.38         12.3273
   596.52         12.3403
   596.66         12.3506
   596.80         12.3578
   596.94         12.3625
   597.08         12.3642
   597.22         12.3620
   597.36         12.3547
   597.50         12.3417
   597.64         12.3229
   597.78         12.3000
   597.92         12.2758
   598.06         12.2528
   598.20         12.2317
   598.34         12.2129
   598.48         12.1966
   598.62         12.1818
   598.76         12.1679
   598.90         12.1542
   599.04         12.1400
   599.18         12.1240
   599.32         12.1060
   599.46         12.0865
   599.60         12.0652
   599.74         12.0420
   599.88         12.0181
   600.02         11.9956
   600.16         11.9771
   600.30         11.9644
   600.44         11.9571
   600.58         11.9529
   600.72         11.9479
   600.86         11.9397
   601.00         11.9270
   601.14         11.9091
   601.28         11.8860
   601.42         11.8589
   601.56         11.8298
   601.70         11.8015
   601.84         11.7776
   601.98         11.7616
   602.12         11.7558
   602.26         11.7616
   602.40         11.7798
   602.54         11.8092
   602.68         11.8460
   602.82         11.8846
   602.96         11.9191
   603.10         11.9451
   603.24         11.9610
   603.38         11.9675
   603.52         11.9676
   603.66         11.9652
   603.80         11.9627
   603.94         11.9600
   604.08         11.9569
   604.22         11.9532
   604.36         11.9487
   604.50         11.9435
   604.64         11.9388
   604.78         11.9364
   604.92         11.9378
   605.06         11.9434
   605.20         11.9516
   605.34         11.9600
   605.48         11.9669
   605.62         11.9719
   605.76         11.9757
   605.90         11.9788
   606.04         11.9805
   606.18         11.9799
   606.32         11.9756
   606.46         11.9657
   606.60         11.9496
   606.74         11.9294
   606.88         11.9077
   607.02         11.8864
   607.16         11.8672
   607.30         11.8509
   607.44         11.8375
   607.58         11.8265
   607.72         11.8183
   607.86         11.8133
   608.00         11.8121
   608.14         11.8148
   608.28         11.8201
   608.42         11.8259
   608.56         11.8294
   608.70         11.8289
   608.84         11.8233
   608.98         11.8103
   609.12         11.7872
   609.26         11.7522
   609.40         11.7067
   609.54         11.6548
   609.68         11.6013
   609.82         11.5516
   609.96         11.5108
   610.10         11.4830
   610.24         11.4708
   610.38         11.4754
   610.52         11.4951
   610.66         11.5259
   610.80         11.5623
   610.94         11.5987
   611.08         11.6303
   611.22         11.6530
   611.36         11.6633
   611.50         11.6593
   611.64         11.6414
   611.78         11.6126
   611.92         11.5779
   612.06         11.5431
   612.20         11.5131
   612.34         11.4902
   612.48         11.4744
   612.62         11.4640
   612.76         11.4573
   612.90         11.4528
   613.04         11.4480
   613.18         11.4400
   613.32         11.4270
   613.46         11.4088
   613.60         11.3866
   613.74         11.3629
   613.88         11.3406
   614.02         11.3211
   614.16         11.3050
   614.30         11.2917
   614.44         11.2796
   614.58         11.2678
   614.72         11.2549
   614.86         11.2383
   615.00         11.2154
   615.14         11.1845
   615.28         11.1461
   615.42         11.1026
   615.56         11.0574
   615.70         11.0136
   615.84         10.9762
   615.98         10.9501
   616.12         10.9389
   616.26         10.9439
   616.40         10.9650
   616.54         11.0001
   616.68         11.0464
   616.82         11.1002
   616.96         11.1570
   617.10         11.2122
   617.24         11.2608
   617.38         11.2991
   617.52         11.3253
   617.66         11.3396
   617.80         11.3430
   617.94         11.3368
   618.08         11.3232
   618.22         11.3053
   618.36         11.2867
   618.50         11.2715
   618.64         11.2625
   618.78         11.2603
   618.92         11.2643
   619.06         11.2731
   619.20         11.2851
   619.34         11.2984
   619.48         11.3113
   619.62         11.3237
   619.76         11.3363
   619.90         11.3498
   620.04         11.3640
   620.18         11.3787
   620.32         11.3933
   620.46         11.4077
   620.60         11.4219
   620.74         11.4353
   620.88         11.4466
   621.02         11.4537
   621.16         11.4540
   621.30         11.4456
   621.44         11.4272
   621.58         11.3995
   621.72         11.3637
   621.86         11.3220
   622.00         11.2775
   622.14         11.2345
   622.28         11.1973
   622.42         11.1678
   622.56         11.1460
   622.70         11.1308
   622.84         11.1216
   622.98         11.1178
   623.12         11.1177
   623.26         11.1185
   623.40         11.1174
   623.54         11.1132
   623.68         11.1069
   623.82         11.1010
   623.96         11.0972
   624.10         11.0953
   624.24         11.0939
   624.38         11.0918
   624.52         11.0879
   624.66         11.0814
   624.80         11.0722
   624.94         11.0600
   625.08         11.0450
   625.22         11.0273
   625.36         11.0081
   625.50         10.9898
   625.64         10.9736
   625.78         10.9602
   625.92         10.9507
   626.06         10.9468
   626.20         10.9503
   626.34         10.9616
   626.48         10.9781
   626.62         10.9942
   626.76         11.0047
   626.90         11.0071
   627.04         11.0007
   627.18         10.9866
   627.32         10.9667
   627.46         10.9433
   627.60         10.9195
   627.74         10.8981
   627.88         10.8808
   628.02         10.8682
   628.16         10.8599
   628.30         10.8537
   628.44         10.8469
   628.58         10.8377
   628.72         10.8250
   628.86         10.8077
   629.00         10.7845
   629.14         10.7547
   629.28         10.7195
   629.42         10.6827
   629.56         10.6493
   629.70         10.6230
   629.84         10.6057
   629.98         10.5970
   630.12         10.5959
   630.26         10.6004
   630.40         10.6068
   630.54         10.6109
   630.68         10.6099
   630.82         10.6028
   630.96         10.5903
   631.10         10.5747
   631.24         10.5597
   631.38         10.5486
   631.52         10.5437
   631.66         10.5470
   631.80         10.5601
   631.94         10.5840
   632.08         10.6182
   632.22         10.6591
   632.36         10.7013
   632.50         10.7392
   632.64         10.7680
   632.78         10.7854
   632.92         10.7913
   633.06         10.7876
   633.20         10.7766
   633.34         10.7603
   633.48         10.7407
   633.62         10.7204
   633.76         10.7028
   633.90         10.6908
   634.04         10.6865
   634.18         10.6907
   634.32         10.7028
   634.46         10.7203
   634.60         10.7390
   634.74         10.7545
   634.88         10.7628
   635.02         10.7615
   635.16         10.7504
   635.30         10.7307
   635.44         10.7045
   635.58         10.6758
   635.72         10.6480
   635.86         10.6238
   636.00         10.6053
   636.14         10.5942
   636.28         10.5914
   636.42         10.5965
   636.56         10.6076
   636.70         10.6220
   636.84         10.6365
   636.98         10.6483
   637.12         10.6551
   637.26         10.6564
   637.40         10.6530
   637.54         10.6472
   637.68         10.6416
   637.82         10.6382
   637.96         10.6381
   638.10         10.6415
   638.24         10.6475
   638.38         10.6541
   638.52         10.6585
   638.66         10.6586
   638.80         10.6525
   638.94         10.6399
   639.08         10.6223
   639.22         10.6033
   639.36         10.5856
   639.50         10.5711
   639.64         10.5607
   639.78         10.5548
   639.92         10.5541
   640.06         10.5587
   640.20         10.5683
   640.34         10.5808
   640.48         10.5920
   640.62         10.5989
   640.76         10.5994
   640.90         10.5923
   641.04         10.5769
   641.18         10.5540
   641.32         10.5260
   641.46         10.4967
   641.60         10.4710
   641.74         10.4531
   641.88         10.4434
   642.02         10.4398
   642.16         10.4401
   642.30         10.4428
   642.44         10.4462
   642.58         10.4485
   642.72         10.4484
   642.86         10.4443
   643.00         10.4356
   643.14         10.4235
   643.28         10.4109
   643.42         10.4004
   643.56         10.3930
   643.70         10.3889
   643.84         10.3882
   643.98         10.3903
   644.12         10.3941
   644.26         10.3985
   644.40         10.4012
   644.54         10.4003
   644.68         10.3963
   644.82         10.3916
   644.96         10.3875
   645.10         10.3837
   645.24         10.3801
   645.38         10.3776
   645.52         10.3771
   645.66         10.3787
   645.80         10.3815
   645.94         10.3844
   646.08         10.3863
   646.22         10.3866
   646.36         10.3851
   646.50         10.3824
   646.64         10.3800
   646.78         10.3788
   646.92         10.3789
   647.06         10.3799
   647.20         10.3820
   647.34         10.3859
   647.48         10.3910
   647.62         10.3949
   647.76         10.3956
   647.90         10.3927
   648.04         10.3863
   648.18         10.3741
   648.32         10.3529
   648.46         10.3205
   648.60         10.2769
   648.74         10.2244
   648.88         10.1671
   649.02         10.1102
   649.16         10.0599
   649.30         10.0218
   649.44         10.0007
   649.58         9.9996
   649.72         10.0202
   649.86         10.0622
   650.00         10.1235
   650.14         10.1993
   650.28         10.2829
   650.42         10.3668
   650.56         10.4441
   650.70         10.5087
   650.84         10.5575
   650.98         10.5900
   651.12         10.6076
   651.26         10.6128
   651.40         10.6085
   651.54         10.5972
   651.68         10.5821
   651.82         10.5665
   651.96         10.5532
   652.10         10.5440
   652.24         10.5399
   652.38         10.5417
   652.52         10.5497
   652.66         10.5631
   652.80         10.5807
   652.94         10.6013
   653.08         10.6232
   653.22         10.6444
   653.36         10.6620
   653.50         10.6718
   653.64         10.6692
   653.78         10.6517
   653.92         10.6192
   654.06         10.5724
   654.20         10.5118
   654.34         10.4373
   654.48         10.3484
   654.62         10.2441
   654.76         10.1231
   654.90         9.9839
   655.04         9.8240
   655.18         9.6415
   655.32         9.4383
   655.46         9.2219
   655.60         9.0037
   655.74         8.7974
   655.88         8.6162
   656.02         8.4727
   656.16         8.3776
   656.30         8.3390
   656.44         8.3596
   656.58         8.4357
   656.72         8.5591
   656.86         8.7177
   657.00         8.8985
   657.14         9.0880
   657.28         9.2721
   657.42         9.4388
   657.56         9.5799
   657.70         9.6923
   657.84         9.7782
   657.98         9.8429
   658.12         9.8912
   658.26         9.9258
   658.40         9.9475
   658.54         9.9584
   658.68         9.9614
   658.82         9.9601
   658.96         9.9573
   659.10         9.9547
   659.24         9.9544
   659.38         9.9583
   659.52         9.9678
   659.66         9.9827
   659.80         10.0013
   659.94         10.0219
   660.08         10.0436
   660.22         10.0659
   660.36         10.0888
   660.50         10.1126
   660.64         10.1364
   660.78         10.1590
   660.92         10.1792
   661.06         10.1957
   661.20         10.2078
   661.34         10.2146
   661.48         10.2155
   661.62         10.2105
   661.76         10.2012
   661.90         10.1895
   662.04         10.1763
   662.18         10.1618
   662.32         10.1462
   662.46         10.1305
   662.60         10.1164
   662.74         10.1052
   662.88         10.0972
   663.02         10.0923
   663.16         10.0885
   663.30         10.0834
   663.44         10.0752
   663.58         10.0636
   663.72         10.0496
   663.86         10.0347
   664.00         10.0203
   664.14         10.0079
   664.28         9.9972
   664.42         9.9869
   664.56         9.9754
   664.70         9.9614
   664.84         9.9440
   664.98         9.9226
   665.12         9.8968
   665.26         9.8659
   665.40         9.8293
   665.54         9.7876
   665.68         9.7434
   665.82         9.6997
   665.96         9.6598
   666.10         9.6278
   666.24         9.6081
   666.38         9.6034
   666.52         9.6133
   666.66         9.6349
   666.80         9.6648
   666.94         9.6990
   667.08         9.7349
   667.22         9.7708
   667.36         9.8040
   667.50         9.8320
   667.64         9.8527
   667.78         9.8647
   667.92         9.8678
   668.06         9.8639
   668.20         9.8558
   668.34         9.8467
   668.48         9.8386
   668.62         9.8326
   668.76         9.8290
   668.90         9.8270
   669.04         9.8250
   669.18         9.8225
   669.32         9.8197
   669.46         9.8170
   669.60         9.8138
   669.74         9.8093
   669.88         9.8015
   670.02         9.7887
   670.16         9.7710
   670.30         9.7494
   670.44         9.7254
   670.58         9.7006
   670.72         9.6770
   670.86         9.6558
   671.00         9.6372
   671.14         9.6214
   671.28         9.6087
   671.42         9.5991
   671.56         9.5925
   671.70         9.5881
   671.84         9.5846
   671.98         9.5802
   672.12         9.5737
   672.26         9.5647
   672.40         9.5534
   672.54         9.5401
   672.68         9.5259
   672.82         9.5114
   672.96         9.4967
   673.10         9.4818
   673.24         9.4676
   673.38         9.4557
   673.52         9.4477
   673.66         9.4449
   673.80         9.4477
   673.94         9.4555
   674.08         9.4667
   674.22         9.4802
   674.36         9.4954
   674.50         9.5115
   674.64         9.5282
   674.78         9.5440
   674.92         9.5572
   675.06         9.5663
   675.20         9.5706
   675.34         9.5695
   675.48         9.5630
   675.62         9.5523
   675.76         9.5401
   675.90         9.5288
   676.04         9.5202
   676.18         9.5144
   676.32         9.5102
   676.46         9.5064
   676.60         9.5021
   676.74         9.4979
   676.88         9.4944
   677.02         9.4914
   677.16         9.4887
   677.30         9.4857
   677.44         9.4823
   677.58         9.4796
   677.72         9.4788
   677.86         9.4803
   678.00         9.4834
   678.14         9.4869
   678.28         9.4897
   678.42         9.4907
   678.56         9.4889
   678.70         9.4829
   678.84         9.4726
   678.98         9.4594
   679.12         9.4456
   679.26         9.4328
   679.40         9.4218
   679.54         9.4126
   679.68         9.4049
   679.82         9.3983
   679.96         9.3926
   680.10         9.3869
   680.24         9.3805
   680.38         9.3724
   680.52         9.3622
   680.66         9.3504
   680.80         9.3383
   680.94         9.3277
   681.08         9.3207
   681.22         9.3183
   681.36         9.3201
   681.50         9.3248
   681.64         9.3305
   681.78         9.3344
   681.92         9.3347
   682.06         9.3304
   682.20         9.3218
   682.34         9.3092
   682.48         9.2932
   682.62         9.2740
   682.76         9.2529
   682.90         9.2320
   683.04         9.2139
   683.18         9.1999
   683.32         9.1905
   683.46         9.1853
   683.60         9.1843
   683.74         9.1874
   683.88         9.1940
   684.02         9.2030
   684.16         9.2136
   684.30         9.2253
   684.44         9.2373
   684.58         9.2485
   684.72         9.2579
   684.86         9.2649
   685.00         9.2694
   685.14         9.2711
   685.28         9.2692
   685.42         9.2615
   685.56         9.2435
   685.70         9.2069
   685.84         9.1426
   685.98         9.0438
   686.12         8.9082
   686.26         8.7391
   686.40         8.5436
   686.54         8.3324
   686.68         8.1188
   686.82         7.9179
   686.96         7.7447
   687.10         7.6124
   687.24         7.5308
   687.38         7.5051
   687.52         7.5338
   687.66         7.6087
   687.80         7.7168
   687.94         7.8420
   688.08         7.9673
   688.22         8.0773
   688.36         8.1611
   688.50         8.2146
   688.64         8.2393
   688.78         8.2411
   688.92         8.2280
   689.06         8.2093
   689.20         8.1935
   689.34         8.1872
   689.48         8.1950
   689.62         8.2191
   689.76         8.2588
   689.90         8.3113
   690.04         8.3719
   690.18         8.4349
   690.32         8.4950
   690.46         8.5492
   690.60         8.5960
   690.74         8.6347
   690.88         8.6662
   691.02         8.6919
   691.16         8.7136
   691.30         8.7328
   691.44         8.7513
   691.58         8.7708
   691.72         8.7915
   691.86         8.8121
   692.00         8.8312
   692.14         8.8487
   692.28         8.8650
   692.42         8.8803
   692.56         8.8944
   692.70         8.9064
   692.84         8.9157
   692.98         8.9218
   693.12         8.9248
   693.26         8.9239
   693.40         8.9177
   693.54         8.9047
   693.68         8.8842
   693.82         8.8568
   693.96         8.8253
   694.10         8.7927
   694.24         8.7620
   694.38         8.7353
   694.52         8.7145
   694.66         8.7014
   694.80         8.6978
   694.94         8.7040
   695.08         8.7189
   695.22         8.7405
   695.36         8.7678
   695.50         8.8004
   695.64         8.8376
   695.78         8.8782
   695.92         8.9219
   696.06         8.9695
   696.20         9.0221
   696.34         9.0794
   696.48         9.1395
   696.62         9.1978
   696.76         9.2482
   696.90         9.2857
   697.04         9.3070
   697.18         9.3118
   697.32         9.3019
   697.46         9.2800
   697.60         9.2482
   697.74         9.2077
   697.88         9.1611
   698.02         9.1124
   698.16         9.0658
   698.30         9.0251
   698.44         8.9935
   698.58         8.9730
   698.72         8.9629
   698.86         8.9596
   699.00         8.9588
   699.14         8.9574
   699.28         8.9534
   699.42         8.9461
   699.56         8.9355
   699.70         8.9222
   699.84         8.9067
   699.98         8.8890
   700.12         8.8690
   700.26         8.8471
   700.40         8.8245
   700.54         8.8034
   700.68         8.7864
   700.82         8.7746
   700.96         8.7680
   701.10         8.7649
   701.24         8.7636
   701.38         8.7622
   701.52         8.7599
   701.66         8.7564
   701.80         8.7522
   701.94         8.7477
   702.08         8.7436
   702.22         8.7412
   702.36         8.7419
   702.50         8.7472
   702.64         8.7578
   702.78         8.7747
   702.92         8.7971
   703.06         8.8235
   703.20         8.8522
   703.34         8.8813
   703.48         8.9074
   703.62         8.9271
   703.76         8.9378
   703.90         8.9385
   704.04         8.9294
   704.18         8.9122
   704.32         8.8892
   704.46         8.8639
   704.60         8.8401
   704.74         8.8213
   704.88         8.8103
   705.02         8.8087
   705.16         8.8163
   705.30         8.8305
   705.44         8.8473
   705.58         8.8623
   705.72         8.8731
   705.86         8.8790
   706.00         8.8797
   706.14         8.8748
   706.28         8.8653
   706.42         8.8535
   706.56         8.8418
   706.70         8.8332
   706.84         8.8298
   706.98         8.8336
   707.12         8.8459
   707.26         8.8668
   707.40         8.8946
   707.54         8.9262
   707.68         8.9581
   707.82         8.9865
   707.96         9.0087
   708.10         9.0239
   708.24         9.0322
   708.38         9.0342
   708.52         9.0300
   708.66         9.0190
   708.80         9.0002
   708.94         8.9728
   709.08         8.9376
   709.22         8.8971
   709.36         8.8538
   709.50         8.8101
   709.64         8.7687
   709.78         8.7319
   709.92         8.7017
   710.06         8.6790
   710.20         8.6649
   710.34         8.6599
   710.48         8.6643
   710.62         8.6777
   710.76         8.6988
   710.90         8.7251
   711.04         8.7545
   711.18         8.7843
   711.32         8.8120
   711.46         8.8356
   711.60         8.8551
   711.74         8.8712
   711.88         8.8839
   712.02         8.8921
   712.16         8.8953
   712.30         8.8941
   712.44         8.8903
   712.58         8.8852
   712.72         8.8805
   712.86         8.8781
   713.00         8.8785
   713.14         8.8808
   713.28         8.8839
   713.42         8.8866
   713.56         8.8875
   713.70         8.8858
   713.84         8.8815
   713.98         8.8750
   714.12         8.8667
   714.26         8.8569
   714.40         8.8456
   714.54         8.8334
   714.68         8.8222
   714.82         8.8137
   714.96         8.8092
   715.10         8.8079
   715.24         8.8070
   715.38         8.8024
   715.52         8.7900
   715.66         8.7664
   715.80         8.7303
   715.94         8.6829
   716.08         8.6260
   716.22         8.5619
   716.36         8.4937
   716.50         8.4243
   716.64         8.3572
   716.78         8.2970
   716.92         8.2479
   717.06         8.2131
   717.20         8.1932
   717.34         8.1854
   717.48         8.1837
   717.62         8.1828
   717.76         8.1802
   717.90         8.1738
   718.04         8.1626
   718.18         8.1460
   718.32         8.1238
   718.46         8.0956
   718.60         8.0620
   718.74         8.0251
   718.88         7.9868
   719.02         7.9503
   719.16         7.9202
   719.30         7.9000
   719.44         7.8904
   719.58         7.8897
   719.72         7.8957
   719.86         7.9066
   720.00         7.9226
   720.14         7.9476
   720.28         7.9869
   720.42         8.0434
   720.56         8.1151
   720.70         8.1977
   720.84         8.2868
   720.98         8.3793
   721.12         8.4718
   721.26         8.5613
   721.40         8.6434
   721.54         8.7134
   721.68         8.7684
   721.82         8.8073
   721.96         8.8285
   722.10         8.8309
   722.24         8.8147
   722.38         8.7811
   722.52         8.7343
   722.66         8.6800
   722.80         8.6230
   722.94         8.5663
   723.08         8.5130
   723.22         8.4667
   723.36         8.4307
   723.50         8.4082
   723.64         8.4013
   723.78         8.4097
   723.92         8.4313
   724.06         8.4606
   724.20         8.4903
   724.34         8.5144
   724.48         8.5282
   724.62         8.5280
   724.76         8.5123
   724.90         8.4834
   725.04         8.4448
   725.18         8.3995
   725.32         8.3499
   725.46         8.2989
   725.60         8.2518
   725.74         8.2145
   725.88         8.1907
   726.02         8.1812
   726.16         8.1843
   726.30         8.1966
   726.44         8.2132
   726.58         8.2286
   726.72         8.2384
   726.86         8.2405
   727.00         8.2349
   727.14         8.2212
   727.28         8.1984
   727.42         8.1661
   727.56         8.1234
   727.70         8.0695
   727.84         8.0044
   727.98         7.9310
   728.12         7.8543
   728.26         7.7810
   728.40         7.7169
   728.54         7.6668
   728.68         7.6337
   728.82         7.6198
   728.96         7.6256
   729.10         7.6494
   729.24         7.6875
   729.38         7.7367
   729.52         7.7939
   729.66         7.8557
   729.80         7.9181
   729.94         7.9761
   730.08         8.0253
   730.22         8.0621
   730.36         8.0859
   730.50         8.0991
   730.64         8.1052
   730.78         8.1081
   730.92         8.1103
   731.06         8.1126
   731.20         8.1150
   731.34         8.1168
   731.48         8.1170
   731.62         8.1148
   731.76         8.1108
   731.90         8.1064
   732.04         8.1027
   732.18         8.0995
   732.32         8.0957
   732.46         8.0910
   732.60         8.0858
   732.74         8.0810
   732.88         8.0777
   733.02         8.0763
   733.16         8.0765
   733.30         8.0768
   733.44         8.0774
   733.58         8.0788
   733.72         8.0813
   733.86         8.0834
   734.00         8.0824
   734.14         8.0772
   734.28         8.0685
   734.42         8.0568
   734.56         8.0425
   734.70         8.0267
   734.84         8.0107
   734.98         7.9952
   735.12         7.9803
   735.26         7.9651
   735.40         7.9486
   735.54         7.9305
   735.68         7.9109
   735.82         7.8898
   735.96         7.8693
   736.10         7.8530
   736.24         7.8452
   736.38         7.8488
   736.52         7.8652
   736.66         7.8947
   736.80         7.9361
   736.94         7.9858
   737.08         8.0380
   737.22         8.0867
   737.36         8.1270
   737.50         8.1557
   737.64         8.1715
   737.78         8.1744
   737.92         8.1648
   738.06         8.1437
   738.20         8.1135
   738.34         8.0788
   738.48         8.0447
   738.62         8.0146
   738.76         7.9898
   738.90         7.9693
   739.04         7.9499
   739.18         7.9286
   739.32         7.9035
   739.46         7.8739
   739.60         7.8400
   739.74         7.8016
   739.88         7.7598
   740.02         7.7170
   740.16         7.6764
   740.30         7.6419
   740.44         7.6169
   740.58         7.6042
   740.72         7.6054
   740.86         7.6211
   741.00         7.6495
   741.14         7.6873
   741.28         7.7303
   741.42         7.7743
   741.56         7.8146
   741.70         7.8464
   741.84         7.8665
   741.98         7.8736
   742.12         7.8686
   742.26         7.8534
   742.40         7.8314
   742.54         7.8076
   742.68         7.7873
   742.82         7.7757
   742.96         7.7757
   743.10         7.7873
   743.24         7.8076
   743.38         7.8314
   743.52         7.8534
   743.66         7.8686
   743.80         7.8736
   743.94         7.8665
   744.08         7.8464
   744.22         7.8146
