# File HD107399
# Wavelength [nm]    Normalized Amplitude
   349.70         5.5370
   349.84         5.5455
   349.98         5.5692
   350.12         5.6044
   350.26         5.6468
   350.40         5.6917
   350.54         5.7348
   350.68         5.7717
   350.82         5.7996
   350.96         5.8169
   351.10         5.8229
   351.24         5.8169
   351.38         5.7996
   351.52         5.7717
   351.66         5.7348
   351.80         5.6917
   351.94         5.6468
   352.08         5.6044
   352.22         5.5692
   352.36         5.5455
   352.50         5.5370
   352.64         5.5465
   352.78         5.5766
   352.92         5.6292
   353.06         5.7049
   353.20         5.8018
   353.34         5.9150
   353.48         6.0365
   353.62         6.1567
   353.76         6.2669
   353.90         6.3608
   354.04         6.4354
   354.18         6.4906
   354.32         6.5272
   354.46         6.5463
   354.60         6.5490
   354.74         6.5373
   354.88         6.5149
   355.02         6.4866
   355.16         6.4575
   355.30         6.4322
   355.44         6.4128
   355.58         6.3972
   355.72         6.3792
   355.86         6.3499
   356.00         6.3009
   356.14         6.2271
   356.28         6.1285
   356.42         6.0094
   356.56         5.8760
   356.70         5.7344
   356.84         5.5897
   356.98         5.4456
   357.12         5.3066
   357.26         5.1776
   357.40         5.0629
   357.54         4.9638
   357.68         4.8780
   357.82         4.8025
   357.96         4.7362
   358.10         4.6810
   358.24         4.6413
   358.38         4.6223
   358.52         4.6291
   358.66         4.6643
   358.80         4.7287
   358.94         4.8209
   359.08         4.9361
   359.22         5.0655
   359.36         5.1977
   359.50         5.3207
   359.64         5.4249
   359.78         5.5032
   359.92         5.5508
   360.06         5.5662
   360.20         5.5522
   360.34         5.5168
   360.48         5.4720
   360.62         5.4297
   360.76         5.3980
   360.90         5.3794
   361.04         5.3725
   361.18         5.3746
   361.32         5.3840
   361.46         5.4006
   361.60         5.4255
   361.74         5.4589
   361.88         5.5000
   362.02         5.5463
   362.16         5.5940
   362.30         5.6391
   362.44         5.6791
   362.58         5.7132
   362.72         5.7414
   362.86         5.7645
   363.00         5.7835
   363.14         5.7983
   363.28         5.8090
   363.42         5.8162
   363.56         5.8209
   363.70         5.8255
   363.84         5.8331
   363.98         5.8462
   364.12         5.8672
   364.26         5.8969
   364.40         5.9346
   364.54         5.9774
   364.68         6.0225
   364.82         6.0699
   364.96         6.1232
   365.10         6.1867
   365.24         6.2621
   365.38         6.3482
   365.52         6.4417
   365.66         6.5375
   365.80         6.6296
   365.94         6.7115
   366.08         6.7769
   366.22         6.8215
   366.36         6.8442
   366.50         6.8474
   366.64         6.8347
   366.78         6.8097
   366.92         6.7768
   367.06         6.7402
   367.20         6.7039
   367.34         6.6712
   367.48         6.6440
   367.62         6.6213
   367.76         6.6005
   367.90         6.5804
   368.04         6.5628
   368.18         6.5524
   368.32         6.5530
   368.46         6.5665
   368.60         6.5928
   368.74         6.6316
   368.88         6.6834
   369.02         6.7476
   369.16         6.8207
   369.30         6.8945
   369.44         6.9591
   369.58         7.0053
   369.72         7.0259
   369.86         7.0161
   370.00         6.9757
   370.14         6.9094
   370.28         6.8266
   370.42         6.7402
   370.56         6.6634
   370.70         6.6057
   370.84         6.5695
   370.98         6.5497
   371.12         6.5378
   371.26         6.5280
   371.40         6.5177
   371.54         6.5053
   371.68         6.4880
   371.82         6.4629
   371.96         6.4283
   372.10         6.3851
   372.24         6.3338
   372.38         6.2745
   372.52         6.2082
   372.66         6.1373
   372.80         6.0655
   372.94         5.9970
   373.08         5.9359
   373.22         5.8844
   373.36         5.8417
   373.50         5.8035
   373.64         5.7649
   373.78         5.7244
   373.92         5.6831
   374.06         5.6424
   374.20         5.6015
   374.34         5.5609
   374.48         5.5250
   374.62         5.4988
   374.76         5.4851
   374.90         5.4875
   375.04         5.5120
   375.18         5.5646
   375.32         5.6481
   375.46         5.7611
   375.60         5.8965
   375.74         6.0420
   375.88         6.1825
   376.02         6.3043
   376.16         6.3992
   376.30         6.4675
   376.44         6.5161
   376.58         6.5558
   376.72         6.5994
   376.86         6.6598
   377.00         6.7483
   377.14         6.8707
   377.28         7.0241
   377.42         7.1985
   377.56         7.3801
   377.70         7.5527
   377.84         7.6999
   377.98         7.8079
   378.12         7.8668
   378.26         7.8708
   378.40         7.8184
   378.54         7.7136
   378.68         7.5670
   378.82         7.3953
   378.96         7.2198
   379.10         7.0622
   379.24         6.9417
   379.38         6.8723
   379.52         6.8606
   379.66         6.9065
   379.80         7.0039
   379.94         7.1408
   380.08         7.3014
   380.22         7.4679
   380.36         7.6235
   380.50         7.7528
   380.64         7.8433
   380.78         7.8860
   380.92         7.8761
   381.06         7.8152
   381.20         7.7104
   381.34         7.5722
   381.48         7.4122
   381.62         7.2404
   381.76         7.0638
   381.90         6.8865
   382.04         6.7109
   382.18         6.5383
   382.32         6.3690
   382.46         6.2019
   382.60         6.0351
   382.74         5.8687
   382.88         5.7077
   383.02         5.5627
   383.16         5.4482
   383.30         5.3792
   383.44         5.3680
   383.58         5.4224
   383.72         5.5441
   383.86         5.7277
   384.00         5.9630
   384.14         6.2377
   384.28         6.5359
   384.42         6.8382
   384.56         7.1233
   384.70         7.3705
   384.84         7.5638
   384.98         7.6961
   385.12         7.7706
   385.26         7.7987
   385.40         7.7963
   385.54         7.7798
   385.68         7.7619
   385.82         7.7499
   385.96         7.7461
   386.10         7.7501
   386.24         7.7603
   386.38         7.7738
   386.52         7.7858
   386.66         7.7900
   386.80         7.7798
   386.94         7.7491
   387.08         7.6939
   387.22         7.6140
   387.36         7.5125
   387.50         7.3937
   387.64         7.2627
   387.78         7.1252
   387.92         6.9868
   388.06         6.8530
   388.20         6.7296
   388.34         6.6233
   388.48         6.5413
   388.62         6.4902
   388.76         6.4755
   388.90         6.4991
   389.04         6.5581
   389.18         6.6450
   389.32         6.7505
   389.46         6.8658
   389.60         6.9826
   389.74         7.0949
   389.88         7.1994
   390.02         7.2952
   390.16         7.3833
   390.30         7.4669
   390.44         7.5493
   390.58         7.6312
   390.72         7.7090
   390.86         7.7756
   391.00         7.8224
   391.14         7.8404
   391.28         7.8210
   391.42         7.7571
   391.56         7.6423
   391.70         7.4722
   391.84         7.2444
   391.98         6.9610
   392.12         6.6283
   392.26         6.2568
   392.40         5.8604
   392.54         5.4568
   392.68         5.0662
   392.82         4.7111
   392.96         4.4126
   393.10         4.1887
   393.24         4.0530
   393.38         4.0136
   393.52         4.0730
   393.66         4.2270
   393.80         4.4647
   393.94         4.7685
   394.08         5.1165
   394.22         5.4854
   394.36         5.8530
   394.50         6.1987
   394.64         6.5055
   394.78         6.7610
   394.92         6.9568
   395.06         7.0879
   395.20         7.1511
   395.34         7.1431
   395.48         7.0606
   395.62         6.9021
   395.76         6.6712
   395.90         6.3796
   396.04         6.0466
   396.18         5.6969
   396.32         5.3587
   396.46         5.0608
   396.60         4.8310
   396.74         4.6928
   396.88         4.6636
   397.02         4.7508
   397.16         4.9506
   397.30         5.2498
   397.44         5.6273
   397.58         6.0563
   397.72         6.5065
   397.86         6.9491
   398.00         7.3603
   398.14         7.7238
   398.28         8.0315
   398.42         8.2825
   398.56         8.4810
   398.70         8.6337
   398.84         8.7495
   398.98         8.8382
   399.12         8.9078
   399.26         8.9637
   399.40         9.0092
   399.54         9.0458
   399.68         9.0750
   399.82         9.0985
   399.96         9.1189
   400.10         9.1397
   400.24         9.1637
   400.38         9.1934
   400.52         9.2305
   400.66         9.2751
   400.80         9.3255
   400.94         9.3792
   401.08         9.4340
   401.22         9.4876
   401.36         9.5378
   401.50         9.5823
   401.64         9.6183
   401.78         9.6423
   401.92         9.6504
   402.06         9.6406
   402.20         9.6123
   402.34         9.5674
   402.48         9.5102
   402.62         9.4470
   402.76         9.3853
   402.90         9.3324
   403.04         9.2933
   403.18         9.2699
   403.32         9.2598
   403.46         9.2590
   403.60         9.2631
   403.74         9.2686
   403.88         9.2728
   404.02         9.2741
   404.16         9.2706
   404.30         9.2609
   404.44         9.2434
   404.58         9.2170
   404.72         9.1832
   404.86         9.1463
   405.00         9.1112
   405.14         9.0806
   405.28         9.0546
   405.42         9.0326
   405.56         9.0125
   405.70         8.9914
   405.84         8.9676
   405.98         8.9419
   406.12         8.9186
   406.26         8.9034
   406.40         8.8991
   406.54         8.9044
   406.68         8.9148
   406.82         8.9269
   406.96         8.9396
   407.10         8.9538
   407.24         8.9713
   407.38         8.9950
   407.52         9.0283
   407.66         9.0749
   407.80         9.1369
   407.94         9.2157
   408.08         9.3092
   408.22         9.4107
   408.36         9.5102
   408.50         9.5962
   408.64         9.6576
   408.78         9.6828
   408.92         9.6608
   409.06         9.5843
   409.20         9.4549
   409.34         9.2837
   409.48         9.0878
   409.62         8.8857
   409.76         8.6951
   409.90         8.5327
   410.04         8.4140
   410.18         8.3509
   410.32         8.3499
   410.46         8.4113
   410.60         8.5279
   410.74         8.6878
   410.88         8.8767
   411.02         9.0796
   411.16         9.2819
   411.30         9.4695
   411.44         9.6307
   411.58         9.7587
   411.72         9.8523
   411.86         9.9142
   412.00         9.9468
   412.14         9.9515
   412.28         9.9317
   412.42         9.8941
   412.56         9.8485
   412.70         9.8054
   412.84         9.7735
   412.98         9.7576
   413.12         9.7573
   413.26         9.7691
   413.40         9.7902
   413.54         9.8187
   413.68         9.8516
   413.82         9.8848
   413.96         9.9137
   414.10         9.9346
   414.24         9.9446
   414.38         9.9419
   414.52         9.9262
   414.66         9.8985
   414.80         9.8624
   414.94         9.8239
   415.08         9.7894
   415.22         9.7647
   415.36         9.7527
   415.50         9.7530
   415.64         9.7634
   415.78         9.7814
   415.92         9.8051
   416.06         9.8320
   416.20         9.8568
   416.34         9.8727
   416.48         9.8743
   416.62         9.8589
   416.76         9.8264
   416.90         9.7794
   417.04         9.7221
   417.18         9.6599
   417.32         9.5986
   417.46         9.5440
   417.60         9.5007
   417.74         9.4719
   417.88         9.4591
   418.02         9.4620
   418.16         9.4785
   418.30         9.5052
   418.44         9.5365
   418.58         9.5649
   418.72         9.5835
   418.86         9.5882
   419.00         9.5781
   419.14         9.5544
   419.28         9.5192
   419.42         9.4757
   419.56         9.4286
   419.70         9.3838
   419.84         9.3476
   419.98         9.3276
   420.12         9.3297
   420.26         9.3558
   420.40         9.4036
   420.54         9.4676
   420.68         9.5400
   420.82         9.6122
   420.96         9.6759
   421.10         9.7242
   421.24         9.7519
   421.38         9.7547
   421.52         9.7296
   421.66         9.6770
   421.80         9.6024
   421.94         9.5155
   422.08         9.4275
   422.22         9.3477
   422.36         9.2827
   422.50         9.2359
   422.64         9.2083
   422.78         9.1981
   422.92         9.2025
   423.06         9.2193
   423.20         9.2461
   423.34         9.2802
   423.48         9.3175
   423.62         9.3521
   423.76         9.3777
   423.90         9.3902
   424.04         9.3898
   424.18         9.3806
   424.32         9.3685
   424.46         9.3587
   424.60         9.3529
   424.74         9.3488
   424.88         9.3431
   425.02         9.3345
   425.16         9.3249
   425.30         9.3180
   425.44         9.3174
   425.58         9.3241
   425.72         9.3362
   425.86         9.3493
   426.00         9.3577
   426.14         9.3559
   426.28         9.3406
   426.42         9.3126
   426.56         9.2760
   426.70         9.2359
   426.84         9.1959
   426.98         9.1595
   427.12         9.1302
   427.26         9.1105
   427.40         9.1009
   427.54         9.0999
   427.68         9.1038
   427.82         9.1077
   427.96         9.1064
   428.10         9.0965
   428.24         9.0760
   428.38         9.0438
   428.52         8.9992
   428.66         8.9417
   428.80         8.8721
   428.94         8.7917
   429.08         8.7013
   429.22         8.6011
   429.36         8.4907
   429.50         8.3695
   429.64         8.2375
   429.78         8.0970
   429.92         7.9530
   430.06         7.8139
   430.20         7.6906
   430.34         7.5963
   430.48         7.5456
   430.62         7.5508
   430.76         7.6171
   430.90         7.7411
   431.04         7.9113
   431.18         8.1107
   431.32         8.3205
   431.46         8.5233
   431.60         8.7061
   431.74         8.8614
   431.88         8.9864
   432.02         9.0806
   432.16         9.1459
   432.30         9.1871
   432.44         9.2102
   432.58         9.2189
   432.72         9.2123
   432.86         9.1856
   433.00         9.1350
   433.14         9.0599
   433.28         8.9629
   433.42         8.8502
   433.56         8.7304
   433.70         8.6143
   433.84         8.5138
   433.98         8.4412
   434.12         8.4072
   434.26         8.4203
   434.40         8.4830
   434.54         8.5910
   434.68         8.7340
   434.82         8.8987
   434.96         9.0714
   435.10         9.2387
   435.24         9.3904
   435.38         9.5214
   435.52         9.6330
   435.66         9.7307
   435.80         9.8195
   435.94         9.9014
   436.08         9.9752
   436.22         10.0368
   436.36         10.0818
   436.50         10.1069
   436.64         10.1113
   436.78         10.0984
   436.92         10.0729
   437.06         10.0363
   437.20         9.9872
   437.34         9.9244
   437.48         9.8503
   437.62         9.7697
   437.76         9.6882
   437.90         9.6110
   438.04         9.5425
   438.18         9.4857
   438.32         9.4427
   438.46         9.4153
   438.60         9.4045
   438.74         9.4104
   438.88         9.4316
   439.02         9.4665
   439.16         9.5116
   439.30         9.5610
   439.44         9.6074
   439.58         9.6446
   439.72         9.6689
   439.86         9.6814
   440.00         9.6884
   440.14         9.6960
   440.28         9.7075
   440.42         9.7228
   440.56         9.7416
   440.70         9.7638
   440.84         9.7891
   440.98         9.8168
   441.12         9.8453
   441.26         9.8730
   441.40         9.8985
   441.54         9.9217
   441.68         9.9431
   441.82         9.9632
   441.96         9.9825
   442.10         10.0021
   442.24         10.0225
   442.38         10.0426
   442.52         10.0614
   442.66         10.0783
   442.80         10.0930
   442.94         10.1053
   443.08         10.1156
   443.22         10.1251
   443.36         10.1341
   443.50         10.1425
   443.64         10.1502
   443.78         10.1585
   443.92         10.1680
   444.06         10.1783
   444.20         10.1873
   444.34         10.1913
   444.48         10.1861
   444.62         10.1680
   444.76         10.1357
   444.90         10.0905
   445.04         10.0364
   445.18         9.9779
   445.32         9.9193
   445.46         9.8644
   445.60         9.8164
   445.74         9.7784
   445.88         9.7533
   446.02         9.7442
   446.16         9.7546
   446.30         9.7873
   446.44         9.8423
   446.58         9.9167
   446.72         10.0042
   446.86         10.0957
   447.00         10.1820
   447.14         10.2560
   447.28         10.3144
   447.42         10.3571
   447.56         10.3855
   447.70         10.4004
   447.84         10.4024
   447.98         10.3941
   448.12         10.3795
   448.26         10.3623
   448.40         10.3463
   448.54         10.3357
   448.68         10.3350
   448.82         10.3471
   448.96         10.3714
   449.10         10.4059
   449.24         10.4485
   449.38         10.4970
   449.52         10.5503
   449.66         10.6090
   449.80         10.6739
   449.94         10.7447
   450.08         10.8179
   450.22         10.8874
   450.36         10.9465
   450.50         10.9910
   450.64         11.0199
   450.78         11.0330
   450.92         11.0313
   451.06         11.0170
   451.20         10.9924
   451.34         10.9581
   451.48         10.9132
   451.62         10.8565
   451.76         10.7877
   451.90         10.7065
   452.04         10.6126
   452.18         10.5069
   452.32         10.3925
   452.46         10.2759
   452.60         10.1658
   452.74         10.0717
   452.88         10.0022
   453.02         9.9639
   453.16         9.9600
   453.30         9.9890
   453.44         10.0447
   453.58         10.1173
   453.72         10.1945
   453.86         10.2636
   454.00         10.3145
   454.14         10.3410
   454.28         10.3417
   454.42         10.3196
   454.56         10.2813
   454.70         10.2364
   454.84         10.1957
   454.98         10.1687
   455.12         10.1616
   455.26         10.1769
   455.40         10.2141
   455.54         10.2704
   455.68         10.3404
   455.82         10.4168
   455.96         10.4920
   456.10         10.5603
   456.24         10.6175
   456.38         10.6614
   456.52         10.6923
   456.66         10.7112
   456.80         10.7191
   456.94         10.7167
   457.08         10.7047
   457.22         10.6844
   457.36         10.6567
   457.50         10.6216
   457.64         10.5798
   457.78         10.5339
   457.92         10.4875
   458.06         10.4437
   458.20         10.4046
   458.34         10.3712
   458.48         10.3436
   458.62         10.3216
   458.76         10.3058
   458.90         10.2972
   459.04         10.2957
   459.18         10.3004
   459.32         10.3091
   459.46         10.3203
   459.60         10.3349
   459.74         10.3555
   459.88         10.3846
   460.02         10.4223
   460.16         10.4669
   460.30         10.5156
   460.44         10.5652
   460.58         10.6121
   460.72         10.6537
   460.86         10.6877
   461.00         10.7117
   461.14         10.7235
   461.28         10.7220
   461.42         10.7086
   461.56         10.6851
   461.70         10.6537
   461.84         10.6175
   461.98         10.5803
   462.12         10.5463
   462.26         10.5181
   462.40         10.4960
   462.54         10.4784
   462.68         10.4636
   462.82         10.4510
   462.96         10.4408
   463.10         10.4340
   463.24         10.4300
   463.38         10.4260
   463.52         10.4191
   463.66         10.4075
   463.80         10.3907
   463.94         10.3688
   464.08         10.3424
   464.22         10.3131
   464.36         10.2827
   464.50         10.2541
   464.64         10.2300
   464.78         10.2134
   464.92         10.2057
   465.06         10.2071
   465.20         10.2162
   465.34         10.2303
   465.48         10.2447
   465.62         10.2536
   465.76         10.2527
   465.90         10.2406
   466.04         10.2185
   466.18         10.1894
   466.32         10.1577
   466.46         10.1267
   466.60         10.0997
   466.74         10.0792
   466.88         10.0672
   467.02         10.0656
   467.16         10.0760
   467.30         10.0987
   467.44         10.1319
   467.58         10.1715
   467.72         10.2129
   467.86         10.2522
   468.00         10.2868
   468.14         10.3153
   468.28         10.3393
   468.42         10.3629
   468.56         10.3898
   468.70         10.4206
   468.84         10.4529
   468.98         10.4826
   469.12         10.5050
   469.26         10.5156
   469.40         10.5107
   469.54         10.4881
   469.68         10.4481
   469.82         10.3926
   469.96         10.3246
   470.10         10.2480
   470.24         10.1676
   470.38         10.0894
   470.52         10.0205
   470.66         9.9677
   470.80         9.9361
   470.94         9.9291
   471.08         9.9474
   471.22         9.9888
   471.36         10.0482
   471.50         10.1185
   471.64         10.1922
   471.78         10.2614
   471.92         10.3187
   472.06         10.3589
   472.20         10.3801
   472.34         10.3828
   472.48         10.3695
   472.62         10.3443
   472.76         10.3127
   472.90         10.2807
   473.04         10.2546
   473.18         10.2393
   473.32         10.2379
   473.46         10.2515
   473.60         10.2786
   473.74         10.3146
   473.88         10.3529
   474.02         10.3865
   474.16         10.4096
   474.30         10.4182
   474.44         10.4108
   474.58         10.3897
   474.72         10.3600
   474.86         10.3273
   475.00         10.2951
   475.14         10.2660
   475.28         10.2415
   475.42         10.2216
   475.56         10.2058
   475.70         10.1938
   475.84         10.1846
   475.98         10.1765
   476.12         10.1672
   476.26         10.1550
   476.40         10.1421
   476.54         10.1334
   476.68         10.1339
   476.82         10.1469
   476.96         10.1734
   477.10         10.2122
   477.24         10.2599
   477.38         10.3121
   477.52         10.3637
   477.66         10.4100
   477.80         10.4475
   477.94         10.4739
   478.08         10.4899
   478.22         10.4981
   478.36         10.5004
   478.50         10.4972
   478.64         10.4897
   478.78         10.4807
   478.92         10.4730
   479.06         10.4680
   479.20         10.4656
   479.34         10.4640
   479.48         10.4614
   479.62         10.4554
   479.76         10.4445
   479.90         10.4289
   480.04         10.4108
   480.18         10.3932
   480.32         10.3783
   480.46         10.3685
   480.60         10.3666
   480.74         10.3746
   480.88         10.3921
   481.02         10.4152
   481.16         10.4388
   481.30         10.4582
   481.44         10.4693
   481.58         10.4691
   481.72         10.4561
   481.86         10.4302
   482.00         10.3922
   482.14         10.3441
   482.28         10.2888
   482.42         10.2306
   482.56         10.1740
   482.70         10.1235
   482.84         10.0826
   482.98         10.0537
   483.12         10.0374
   483.26         10.0332
   483.40         10.0395
   483.54         10.0535
   483.68         10.0712
   483.82         10.0888
   483.96         10.1028
   484.10         10.1105
   484.24         10.1091
   484.38         10.0957
   484.52         10.0661
   484.66         10.0152
   484.80         9.9368
   484.94         9.8239
   485.08         9.6716
   485.22         9.4801
   485.36         9.2563
   485.50         9.0127
   485.64         8.7655
   485.78         8.5336
   485.92         8.3349
   486.06         8.1824
   486.20         8.0840
   486.34         8.0437
   486.48         8.0620
   486.62         8.1358
   486.76         8.2582
   486.90         8.4176
   487.04         8.5991
   487.18         8.7881
   487.32         8.9718
   487.46         9.1393
   487.60         9.2836
   487.74         9.4020
   487.88         9.4950
   488.02         9.5646
   488.16         9.6131
   488.30         9.6447
   488.44         9.6645
   488.58         9.6771
   488.72         9.6867
   488.86         9.6986
   489.00         9.7184
   489.14         9.7508
   489.28         9.7982
   489.42         9.8606
   489.56         9.9353
   489.70         10.0175
   489.84         10.1003
   489.98         10.1749
   490.12         10.2337
   490.26         10.2729
   490.40         10.2924
   490.54         10.2942
   490.68         10.2797
   490.82         10.2498
   490.96         10.2057
   491.10         10.1491
   491.24         10.0812
   491.38         10.0045
   491.52         9.9237
   491.66         9.8457
   491.80         9.7776
   491.94         9.7250
   492.08         9.6909
   492.22         9.6754
   492.36         9.6764
   492.50         9.6905
   492.64         9.7131
   492.78         9.7396
   492.92         9.7656
   493.06         9.7870
   493.20         9.8008
   493.34         9.8051
   493.48         9.8018
   493.62         9.7969
   493.76         9.7971
   493.90         9.8083
   494.04         9.8341
   494.18         9.8762
   494.32         9.9323
   494.46         9.9966
   494.60         10.0600
   494.74         10.1133
   494.88         10.1505
   495.02         10.1704
   495.16         10.1740
   495.30         10.1649
   495.44         10.1488
   495.58         10.1322
   495.72         10.1200
   495.86         10.1148
   496.00         10.1172
   496.14         10.1273
   496.28         10.1451
   496.42         10.1685
   496.56         10.1936
   496.70         10.2153
   496.84         10.2279
   496.98         10.2258
   497.12         10.2042
   497.26         10.1613
   497.40         10.1001
   497.54         10.0272
   497.68         9.9499
   497.82         9.8748
   497.96         9.8069
   498.10         9.7499
   498.24         9.7062
   498.38         9.6773
   498.52         9.6645
   498.66         9.6680
   498.80         9.6858
   498.94         9.7134
   499.08         9.7449
   499.22         9.7741
   499.36         9.7952
   499.50         9.8040
   499.64         9.7997
   499.78         9.7861
   499.92         9.7678
   500.06         9.7483
   500.20         9.7291
   500.34         9.7096
   500.48         9.6881
   500.62         9.6624
   500.76         9.6320
   500.90         9.5980
   501.04         9.5617
   501.18         9.5242
   501.32         9.4872
   501.46         9.4531
   501.60         9.4249
   501.74         9.4060
   501.88         9.3990
   502.02         9.4054
   502.16         9.4256
   502.30         9.4590
   502.44         9.5014
   502.58         9.5460
   502.72         9.5860
   502.86         9.6158
   503.00         9.6316
   503.14         9.6333
   503.28         9.6247
   503.42         9.6114
   503.56         9.5990
   503.70         9.5923
   503.84         9.5956
   503.98         9.6119
   504.12         9.6418
   504.26         9.6842
   504.40         9.7363
   504.54         9.7946
   504.68         9.8543
   504.82         9.9113
   504.96         9.9616
   505.10         10.0018
   505.24         10.0292
   505.38         10.0423
   505.52         10.0418
   505.66         10.0307
   505.80         10.0119
   505.94         9.9870
   506.08         9.9558
   506.22         9.9188
   506.36         9.8777
   506.50         9.8348
   506.64         9.7919
   506.78         9.7491
   506.92         9.7064
   507.06         9.6651
   507.20         9.6275
   507.34         9.5964
   507.48         9.5745
   507.62         9.5642
   507.76         9.5663
   507.90         9.5807
   508.04         9.6071
   508.18         9.6442
   508.32         9.6894
   508.46         9.7378
   508.60         9.7829
   508.74         9.8188
   508.88         9.8415
   509.02         9.8485
   509.16         9.8385
   509.30         9.8121
   509.44         9.7720
   509.58         9.7232
   509.72         9.6715
   509.86         9.6220
   510.00         9.5800
   510.14         9.5507
   510.28         9.5378
   510.42         9.5421
   510.56         9.5628
   510.70         9.5979
   510.84         9.6434
   510.98         9.6938
   511.12         9.7432
   511.26         9.7868
   511.40         9.8227
   511.54         9.8496
   511.68         9.8662
   511.82         9.8707
   511.96         9.8618
   512.10         9.8399
   512.24         9.8077
   512.38         9.7695
   512.52         9.7292
   512.66         9.6899
   512.80         9.6528
   512.94         9.6178
   513.08         9.5850
   513.22         9.5546
   513.36         9.5270
   513.50         9.5024
   513.64         9.4805
   513.78         9.4614
   513.92         9.4458
   514.06         9.4348
   514.20         9.4287
   514.34         9.4270
   514.48         9.4298
   514.62         9.4377
   514.76         9.4512
   514.90         9.4692
   515.04         9.4885
   515.18         9.5051
   515.32         9.5143
   515.46         9.5112
   515.60         9.4905
   515.74         9.4483
   515.88         9.3820
   516.02         9.2909
   516.16         9.1766
   516.30         9.0451
   516.44         8.9063
   516.58         8.7732
   516.72         8.6584
   516.86         8.5712
   517.00         8.5159
   517.14         8.4903
   517.28         8.4880
   517.42         8.5019
   517.56         8.5260
   517.70         8.5553
   517.84         8.5852
   517.98         8.6113
   518.12         8.6302
   518.26         8.6413
   518.40         8.6477
   518.54         8.6544
   518.68         8.6672
   518.82         8.6918
   518.96         8.7322
   519.10         8.7889
   519.24         8.8580
   519.38         8.9326
   519.52         9.0043
   519.66         9.0656
   519.80         9.1128
   519.94         9.1475
   520.08         9.1740
   520.22         9.1947
   520.36         9.2086
   520.50         9.2147
   520.64         9.2138
   520.78         9.2093
   520.92         9.2060
   521.06         9.2085
   521.20         9.2180
   521.34         9.2317
   521.48         9.2442
   521.62         9.2512
   521.76         9.2498
   521.90         9.2399
   522.04         9.2233
   522.18         9.2026
   522.32         9.1810
   522.46         9.1632
   522.60         9.1540
   522.74         9.1566
   522.88         9.1717
   523.02         9.1988
   523.16         9.2374
   523.30         9.2851
   523.44         9.3376
   523.58         9.3888
   523.72         9.4321
   523.86         9.4619
   524.00         9.4751
   524.14         9.4733
   524.28         9.4609
   524.42         9.4426
   524.56         9.4231
   524.70         9.4059
   524.84         9.3928
   524.98         9.3841
   525.12         9.3780
   525.26         9.3707
   525.40         9.3566
   525.54         9.3306
   525.68         9.2894
   525.82         9.2319
   525.96         9.1592
   526.10         9.0747
   526.24         8.9841
   526.38         8.8940
   526.52         8.8118
   526.66         8.7458
   526.80         8.7028
   526.94         8.6858
   527.08         8.6943
   527.22         8.7253
   527.36         8.7744
   527.50         8.8358
   527.64         8.9036
   527.78         8.9734
   527.92         9.0421
   528.06         9.1083
   528.20         9.1721
   528.34         9.2334
   528.48         9.2905
   528.62         9.3399
   528.76         9.3787
   528.90         9.4050
   529.04         9.4181
   529.18         9.4181
   529.32         9.4066
   529.46         9.3850
   529.60         9.3563
   529.74         9.3256
   529.88         9.2999
   530.02         9.2857
   530.16         9.2875
   530.30         9.3065
   530.44         9.3414
   530.58         9.3887
   530.72         9.4432
   530.86         9.4983
   531.00         9.5467
   531.14         9.5813
   531.28         9.5972
   531.42         9.5925
   531.56         9.5666
   531.70         9.5195
   531.84         9.4532
   531.98         9.3727
   532.12         9.2854
   532.26         9.2000
   532.40         9.1246
   532.54         9.0655
   532.68         9.0254
   532.82         9.0041
   532.96         9.0000
   533.10         9.0106
   533.24         9.0334
   533.38         9.0643
   533.52         9.0979
   533.66         9.1295
   533.80         9.1563
   533.94         9.1769
   534.08         9.1921
   534.22         9.2046
   534.36         9.2187
   534.50         9.2390
   534.64         9.2683
   534.78         9.3067
   534.92         9.3508
   535.06         9.3947
   535.20         9.4318
   535.34         9.4567
   535.48         9.4665
   535.62         9.4606
   535.76         9.4391
   535.90         9.4025
   536.04         9.3532
   536.18         9.2957
   536.32         9.2374
   536.46         9.1850
   536.60         9.1439
   536.74         9.1181
   536.88         9.1094
   537.02         9.1167
   537.16         9.1358
   537.30         9.1618
   537.44         9.1900
   537.58         9.2168
   537.72         9.2393
   537.86         9.2560
   538.00         9.2659
   538.14         9.2686
   538.28         9.2635
   538.42         9.2503
   538.56         9.2293
   538.70         9.2020
   538.84         9.1704
   538.98         9.1357
   539.12         9.0970
   539.26         9.0539
   539.40         9.0066
   539.54         8.9568
   539.68         8.9080
   539.82         8.8633
   539.96         8.8259
   540.10         8.7989
   540.24         8.7841
   540.38         8.7827
   540.52         8.7949
   540.66         8.8202
   540.80         8.8567
   540.94         8.9012
   541.08         8.9496
   541.22         8.9980
   541.36         9.0426
   541.50         9.0813
   541.64         9.1122
   541.78         9.1344
   541.92         9.1477
   542.06         9.1529
   542.20         9.1515
   542.34         9.1449
   542.48         9.1347
   542.62         9.1236
   542.76         9.1158
   542.90         9.1152
   543.04         9.1238
   543.18         9.1411
   543.32         9.1648
   543.46         9.1913
   543.60         9.2166
   543.74         9.2387
   543.88         9.2571
   544.02         9.2721
   544.16         9.2836
   544.30         9.2901
   544.44         9.2893
   544.58         9.2801
   544.72         9.2637
   544.86         9.2429
   545.00         9.2197
   545.14         9.1951
   545.28         9.1695
   545.42         9.1431
   545.56         9.1162
   545.70         9.0891
   545.84         9.0629
   545.98         9.0405
   546.12         9.0253
   546.26         9.0204
   546.40         9.0270
   546.54         9.0420
   546.68         9.0598
   546.82         9.0749
   546.96         9.0837
   547.10         9.0848
   547.24         9.0795
   547.38         9.0700
   547.52         9.0581
   547.66         9.0458
   547.80         9.0358
   547.94         9.0308
   548.08         9.0328
   548.22         9.0428
   548.36         9.0607
   548.50         9.0848
   548.64         9.1132
   548.78         9.1430
   548.92         9.1707
   549.06         9.1932
   549.20         9.2088
   549.34         9.2183
   549.48         9.2239
   549.62         9.2271
   549.76         9.2288
   549.90         9.2303
   550.04         9.2319
   550.18         9.2336
   550.32         9.2352
   550.46         9.2359
   550.60         9.2355
   550.74         9.2348
   550.88         9.2354
   551.02         9.2379
   551.16         9.2429
   551.30         9.2509
   551.44         9.2604
   551.58         9.2689
   551.72         9.2735
   551.86         9.2716
   552.00         9.2617
   552.14         9.2426
   552.28         9.2139
   552.42         9.1771
   552.56         9.1351
   552.70         9.0909
   552.84         9.0483
   552.98         9.0114
   553.12         8.9833
   553.26         8.9665
   553.40         8.9624
   553.54         8.9718
   553.68         8.9944
   553.82         9.0284
   553.96         9.0701
   554.10         9.1142
   554.24         9.1557
   554.38         9.1909
   554.52         9.2172
   554.66         9.2327
   554.80         9.2368
   554.94         9.2300
   555.08         9.2141
   555.22         9.1912
   555.36         9.1639
   555.50         9.1340
   555.64         9.1031
   555.78         9.0727
   555.92         9.0448
   556.06         9.0212
   556.20         9.0028
   556.34         8.9896
   556.48         8.9813
   556.62         8.9766
   556.76         8.9754
   556.90         8.9783
   557.04         8.9853
   557.18         8.9959
   557.32         9.0085
   557.46         9.0200
   557.60         9.0273
   557.74         9.0274
   557.88         9.0184
   558.02         9.0006
   558.16         8.9754
   558.30         8.9447
   558.44         8.9107
   558.58         8.8758
   558.72         8.8432
   558.86         8.8157
   559.00         8.7951
   559.14         8.7817
   559.28         8.7753
   559.42         8.7767
   559.56         8.7860
   559.70         8.8027
   559.84         8.8259
   559.98         8.8533
   560.12         8.8822
   560.26         8.9102
   560.40         8.9349
   560.54         8.9552
   560.68         8.9704
   560.82         8.9800
   560.96         8.9843
   561.10         8.9842
   561.24         8.9807
   561.38         8.9744
   561.52         8.9658
   561.66         8.9562
   561.80         8.9485
   561.94         8.9462
   562.08         8.9515
   562.22         8.9643
   562.36         8.9819
   562.50         9.0002
   562.64         9.0154
   562.78         9.0251
   562.92         9.0282
   563.06         9.0248
   563.20         9.0162
   563.34         9.0047
   563.48         8.9927
   563.62         8.9822
   563.76         8.9737
   563.90         8.9665
   564.04         8.9600
   564.18         8.9538
   564.32         8.9476
   564.46         8.9403
   564.60         8.9292
   564.74         8.9111
   564.88         8.8843
   565.02         8.8487
   565.16         8.8059
   565.30         8.7592
   565.44         8.7129
   565.58         8.6706
   565.72         8.6360
   565.86         8.6125
   566.00         8.6031
   566.14         8.6091
   566.28         8.6288
   566.42         8.6596
   566.56         8.6990
   566.70         8.7434
   566.84         8.7885
   566.98         8.8298
   567.12         8.8627
   567.26         8.8836
   567.40         8.8905
   567.54         8.8840
   567.68         8.8664
   567.82         8.8407
   567.96         8.8109
   568.10         8.7810
   568.24         8.7554
   568.38         8.7380
   568.52         8.7309
   568.66         8.7348
   568.80         8.7486
   568.94         8.7696
   569.08         8.7946
   569.22         8.8187
   569.36         8.8360
   569.50         8.8414
   569.64         8.8316
   569.78         8.8049
   569.92         8.7622
   570.06         8.7075
   570.20         8.6469
   570.34         8.5871
   570.48         8.5337
   570.62         8.4913
   570.76         8.4638
   570.90         8.4548
   571.04         8.4652
   571.18         8.4936
   571.32         8.5373
   571.46         8.5926
   571.60         8.6547
   571.74         8.7180
   571.88         8.7777
   572.02         8.8303
   572.16         8.8734
   572.30         8.9058
   572.44         8.9283
   572.58         8.9426
   572.72         8.9502
   572.86         8.9521
   573.00         8.9488
   573.14         8.9412
   573.28         8.9304
   573.42         8.9177
   573.56         8.9041
   573.70         8.8896
   573.84         8.8738
   573.98         8.8573
   574.12         8.8406
   574.26         8.8239
   574.40         8.8072
   574.54         8.7913
   574.68         8.7768
   574.82         8.7642
   574.96         8.7542
   575.10         8.7477
   575.24         8.7455
   575.38         8.7486
   575.52         8.7584
   575.66         8.7762
   575.80         8.8023
   575.94         8.8352
   576.08         8.8723
   576.22         8.9103
   576.36         8.9452
   576.50         8.9739
   576.64         8.9942
   576.78         9.0048
   576.92         9.0041
   577.06         8.9913
   577.20         8.9672
   577.34         8.9334
   577.48         8.8928
   577.62         8.8485
   577.76         8.8044
   577.90         8.7640
   578.04         8.7294
   578.18         8.7015
   578.32         8.6808
   578.46         8.6676
   578.60         8.6616
   578.74         8.6620
   578.88         8.6685
   579.02         8.6801
   579.16         8.6957
   579.30         8.7139
   579.44         8.7327
   579.58         8.7501
   579.72         8.7654
   579.86         8.7778
   580.00         8.7871
   580.14         8.7934
   580.28         8.7966
   580.42         8.7968
   580.56         8.7940
   580.70         8.7884
   580.84         8.7812
   580.98         8.7744
   581.12         8.7695
   581.26         8.7675
   581.40         8.7691
   581.54         8.7746
   581.68         8.7830
   581.82         8.7937
   581.96         8.8069
   582.10         8.8227
   582.24         8.8406
   582.38         8.8594
   582.52         8.8773
   582.66         8.8931
   582.80         8.9064
   582.94         8.9162
   583.08         8.9211
   583.22         8.9203
   583.36         8.9146
   583.50         8.9054
   583.64         8.8947
   583.78         8.8842
   583.92         8.8756
   584.06         8.8692
   584.20         8.8648
   584.34         8.8619
   584.48         8.8588
   584.62         8.8527
   584.76         8.8413
   584.90         8.8225
   585.04         8.7960
   585.18         8.7626
   585.32         8.7253
   585.46         8.6882
   585.60         8.6542
   585.74         8.6259
   585.88         8.6065
   586.02         8.5980
   586.16         8.5997
   586.30         8.6096
   586.44         8.6249
   586.58         8.6428
   586.72         8.6603
   586.86         8.6745
   587.00         8.6825
   587.14         8.6831
   587.28         8.6774
   587.42         8.6678
   587.56         8.6568
   587.70         8.6449
   587.84         8.6304
   587.98         8.6112
   588.12         8.5854
   588.26         8.5507
   588.40         8.5058
   588.54         8.4514
   588.68         8.3902
   588.82         8.3275
   588.96         8.2704
   589.10         8.2271
   589.24         8.2041
   589.38         8.2049
   589.52         8.2301
   589.66         8.2778
   589.80         8.3447
   589.94         8.4251
   590.08         8.5113
   590.22         8.5953
   590.36         8.6699
   590.50         8.7308
   590.64         8.7764
   590.78         8.8069
   590.92         8.8239
   591.06         8.8306
   591.20         8.8307
   591.34         8.8274
   591.48         8.8228
   591.62         8.8180
   591.76         8.8124
   591.90         8.8044
   592.04         8.7926
   592.18         8.7761
   592.32         8.7542
   592.46         8.7271
   592.60         8.6967
   592.74         8.6658
   592.88         8.6366
   593.02         8.6107
   593.16         8.5893
   593.30         8.5729
   593.44         8.5617
   593.58         8.5553
   593.72         8.5525
   593.86         8.5524
   594.00         8.5542
   594.14         8.5572
   594.28         8.5599
   594.42         8.5610
   594.56         8.5604
   594.70         8.5586
   594.84         8.5567
   594.98         8.5556
   595.12         8.5571
   595.26         8.5629
   595.40         8.5742
   595.54         8.5908
   595.68         8.6125
   595.82         8.6390
   595.96         8.6687
   596.10         8.6985
   596.24         8.7255
   596.38         8.7475
   596.52         8.7633
   596.66         8.7717
   596.80         8.7725
   596.94         8.7661
   597.08         8.7533
   597.22         8.7349
   597.36         8.7120
   597.50         8.6856
   597.64         8.6562
   597.78         8.6250
   597.92         8.5939
   598.06         8.5637
   598.20         8.5347
   598.34         8.5070
   598.48         8.4805
   598.62         8.4547
   598.76         8.4299
   598.90         8.4072
   599.04         8.3874
   599.18         8.3701
   599.32         8.3552
   599.46         8.3424
   599.60         8.3308
   599.74         8.3208
   599.88         8.3134
   600.02         8.3102
   600.16         8.3112
   600.30         8.3153
   600.44         8.3214
   600.58         8.3276
   600.72         8.3322
   600.86         8.3335
   601.00         8.3307
   601.14         8.3234
   601.28         8.3111
   601.42         8.2945
   601.56         8.2743
   601.70         8.2515
   601.84         8.2277
   601.98         8.2045
   602.12         8.1835
   602.26         8.1664
   602.40         8.1553
   602.54         8.1515
   602.68         8.1549
   602.82         8.1641
   602.96         8.1776
   603.10         8.1947
   603.24         8.2152
   603.38         8.2383
   603.52         8.2634
   603.66         8.2900
   603.80         8.3166
   603.94         8.3410
   604.08         8.3617
   604.22         8.3783
   604.36         8.3908
   604.50         8.3996
   604.64         8.4058
   604.78         8.4108
   604.92         8.4160
   605.06         8.4214
   605.20         8.4258
   605.34         8.4277
   605.48         8.4267
   605.62         8.4240
   605.76         8.4222
   605.90         8.4235
   606.04         8.4290
   606.18         8.4397
   606.32         8.4557
   606.46         8.4759
   606.60         8.4989
   606.74         8.5236
   606.88         8.5484
   607.02         8.5710
   607.16         8.5882
   607.30         8.5961
   607.44         8.5912
   607.58         8.5725
   607.72         8.5414
   607.86         8.5018
   608.00         8.4584
   608.14         8.4165
   608.28         8.3803
   608.42         8.3531
   608.56         8.3358
   608.70         8.3283
   608.84         8.3291
   608.98         8.3341
   609.12         8.3378
   609.26         8.3351
   609.40         8.3236
   609.54         8.3024
   609.68         8.2729
   609.82         8.2383
   609.96         8.2034
   610.10         8.1731
   610.24         8.1517
   610.38         8.1411
   610.52         8.1415
   610.66         8.1520
   610.80         8.1697
   610.94         8.1903
   611.08         8.2090
   611.22         8.2222
   611.36         8.2270
   611.50         8.2221
   611.64         8.2078
   611.78         8.1863
   611.92         8.1613
   612.06         8.1367
   612.20         8.1156
   612.34         8.1000
   612.48         8.0900
   612.62         8.0834
   612.76         8.0777
   612.90         8.0717
   613.04         8.0647
   613.18         8.0566
   613.32         8.0479
   613.46         8.0382
   613.60         8.0270
   613.74         8.0149
   613.88         8.0036
   614.02         7.9948
   614.16         7.9900
   614.30         7.9890
   614.44         7.9906
   614.58         7.9926
   614.72         7.9923
   614.86         7.9860
   615.00         7.9705
   615.14         7.9439
   615.28         7.9068
   615.42         7.8623
   615.56         7.8148
   615.70         7.7676
   615.84         7.7238
   615.98         7.6861
   616.12         7.6576
   616.26         7.6415
   616.40         7.6405
   616.54         7.6560
   616.68         7.6864
   616.82         7.7274
   616.96         7.7729
   617.10         7.8179
   617.24         7.8588
   617.38         7.8940
   617.52         7.9231
   617.66         7.9458
   617.80         7.9628
   617.94         7.9750
   618.08         7.9840
   618.22         7.9912
   618.36         7.9982
   618.50         8.0067
   618.64         8.0174
   618.78         8.0297
   618.92         8.0417
   619.06         8.0513
   619.20         8.0570
   619.34         8.0577
   619.48         8.0536
   619.62         8.0460
   619.76         8.0372
   619.90         8.0285
   620.04         8.0203
   620.18         8.0128
   620.32         8.0074
   620.46         8.0060
   620.60         8.0100
   620.74         8.0194
   620.88         8.0325
   621.02         8.0470
   621.16         8.0602
   621.30         8.0702
   621.44         8.0763
   621.58         8.0785
   621.72         8.0765
   621.86         8.0693
   622.00         8.0569
   622.14         8.0404
   622.28         8.0219
   622.42         8.0030
   622.56         7.9850
   622.70         7.9688
   622.84         7.9554
   622.98         7.9453
   623.12         7.9373
   623.26         7.9293
   623.40         7.9193
   623.54         7.9065
   623.68         7.8914
   623.82         7.8759
   623.96         7.8608
   624.10         7.8451
   624.24         7.8284
   624.38         7.8107
   624.52         7.7927
   624.66         7.7759
   624.80         7.7615
   624.94         7.7508
   625.08         7.7443
   625.22         7.7421
   625.36         7.7439
   625.50         7.7499
   625.64         7.7605
   625.78         7.7756
   625.92         7.7953
   626.06         7.8191
   626.20         7.8462
   626.34         7.8750
   626.48         7.9025
   626.62         7.9236
   626.76         7.9342
   626.90         7.9327
   627.04         7.9193
   627.18         7.8956
   627.32         7.8652
   627.46         7.8325
   627.60         7.8022
   627.74         7.7784
   627.88         7.7634
   628.02         7.7588
   628.16         7.7651
   628.30         7.7809
   628.44         7.8034
   628.58         7.8285
   628.72         7.8526
   628.86         7.8721
   629.00         7.8831
   629.14         7.8816
   629.28         7.8656
   629.42         7.8361
   629.56         7.7979
   629.70         7.7566
   629.84         7.7177
   629.98         7.6846
   630.12         7.6586
   630.26         7.6396
   630.40         7.6263
   630.54         7.6163
   630.68         7.6083
   630.82         7.6011
   630.96         7.5940
   631.10         7.5866
   631.24         7.5799
   631.38         7.5755
   631.52         7.5743
   631.66         7.5772
   631.80         7.5861
   631.94         7.6033
   632.08         7.6301
   632.22         7.6653
   632.36         7.7053
   632.50         7.7447
   632.64         7.7791
   632.78         7.8063
   632.92         7.8262
   633.06         7.8392
   633.20         7.8460
   633.34         7.8470
   633.48         7.8427
   633.62         7.8340
   633.76         7.8226
   633.90         7.8107
   634.04         7.7994
   634.18         7.7895
   634.32         7.7808
   634.46         7.7721
   634.60         7.7617
   634.74         7.7477
   634.88         7.7286
   635.02         7.7045
   635.16         7.6765
   635.30         7.6475
   635.44         7.6206
   635.58         7.5985
   635.72         7.5827
   635.86         7.5746
   636.00         7.5750
   636.14         7.5854
   636.28         7.6062
   636.42         7.6363
   636.56         7.6731
   636.70         7.7129
   636.84         7.7513
   636.98         7.7835
   637.12         7.8059
   637.26         7.8167
   637.40         7.8156
   637.54         7.8034
   637.68         7.7822
   637.82         7.7545
   637.96         7.7233
   638.10         7.6910
   638.24         7.6587
   638.38         7.6273
   638.52         7.5977
   638.66         7.5703
   638.80         7.5448
   638.94         7.5205
   639.08         7.4980
   639.22         7.4794
   639.36         7.4662
   639.50         7.4590
   639.64         7.4581
   639.78         7.4635
   639.92         7.4740
   640.06         7.4879
   640.20         7.5040
   640.34         7.5214
   640.48         7.5384
   640.62         7.5525
   640.76         7.5622
   640.90         7.5665
   641.04         7.5660
   641.18         7.5614
   641.32         7.5546
   641.46         7.5484
   641.60         7.5461
   641.74         7.5503
   641.88         7.5606
   642.02         7.5740
   642.16         7.5876
   642.30         7.5996
   642.44         7.6088
   642.58         7.6147
   642.72         7.6179
   642.86         7.6190
   643.00         7.6176
   643.14         7.6144
   643.28         7.6110
   643.42         7.6091
   643.56         7.6089
   643.70         7.6094
   643.84         7.6091
   643.98         7.6056
   644.12         7.5964
   644.26         7.5800
   644.40         7.5551
   644.54         7.5210
   644.68         7.4790
   644.82         7.4324
   644.96         7.3851
   645.10         7.3398
   645.24         7.2995
   645.38         7.2675
   645.52         7.2467
   645.66         7.2398
   645.80         7.2475
   645.94         7.2681
   646.08         7.2978
   646.22         7.3319
   646.36         7.3669
   646.50         7.4001
   646.64         7.4301
   646.78         7.4556
   646.92         7.4756
   647.06         7.4893
   647.20         7.4973
   647.34         7.5005
   647.48         7.5000
   647.62         7.4961
   647.76         7.4902
   647.90         7.4844
   648.04         7.4795
   648.18         7.4747
   648.32         7.4674
   648.46         7.4552
   648.60         7.4369
   648.74         7.4134
   648.88         7.3869
   649.02         7.3607
   649.16         7.3379
   649.30         7.3213
   649.44         7.3132
   649.58         7.3161
   649.72         7.3318
   649.86         7.3603
   650.00         7.4004
   650.14         7.4489
   650.28         7.5009
   650.42         7.5511
   650.56         7.5935
   650.70         7.6240
   650.84         7.6406
   650.98         7.6443
   651.12         7.6376
   651.26         7.6243
   651.40         7.6084
   651.54         7.5932
   651.68         7.5810
   651.82         7.5741
   651.96         7.5743
   652.10         7.5823
   652.24         7.5976
   652.38         7.6184
   652.52         7.6424
   652.66         7.6660
   652.80         7.6858
   652.94         7.6991
   653.08         7.7056
   653.22         7.7064
   653.36         7.7027
   653.50         7.6941
   653.64         7.6799
   653.78         7.6595
   653.92         7.6333
   654.06         7.6016
   654.20         7.5650
   654.34         7.5244
   654.48         7.4809
   654.62         7.4342
   654.76         7.3827
   654.90         7.3231
   655.04         7.2508
   655.18         7.1609
   655.32         7.0517
   655.46         6.9269
   655.60         6.7940
   655.74         6.6619
   655.88         6.5396
   656.02         6.4350
   656.16         6.3561
   656.30         6.3105
   656.44         6.3038
   656.58         6.3379
   656.72         6.4106
   656.86         6.5161
   657.00         6.6458
   657.14         6.7892
   657.28         6.9345
   657.42         7.0701
   657.56         7.1871
   657.70         7.2807
   657.84         7.3507
   657.98         7.4001
   658.12         7.4321
   658.26         7.4487
   658.40         7.4517
   658.54         7.4440
   658.68         7.4302
   658.82         7.4158
   658.96         7.4055
   659.10         7.4018
   659.24         7.4055
   659.38         7.4164
   659.52         7.4344
   659.66         7.4588
   659.80         7.4873
   659.94         7.5173
   660.08         7.5468
   660.22         7.5735
   660.36         7.5962
   660.50         7.6138
   660.64         7.6260
   660.78         7.6328
   660.92         7.6354
   661.06         7.6354
   661.20         7.6351
   661.34         7.6359
   661.48         7.6376
   661.62         7.6387
   661.76         7.6377
   661.90         7.6330
   662.04         7.6229
   662.18         7.6056
   662.32         7.5806
   662.46         7.5486
   662.60         7.5120
   662.74         7.4737
   662.88         7.4361
   663.02         7.4017
   663.16         7.3715
   663.30         7.3451
   663.44         7.3222
   663.58         7.3031
   663.72         7.2880
   663.86         7.2764
   664.00         7.2671
   664.14         7.2585
   664.28         7.2491
   664.42         7.2381
   664.56         7.2256
   664.70         7.2122
   664.84         7.1995
   664.98         7.1886
   665.12         7.1801
   665.26         7.1733
   665.40         7.1669
   665.54         7.1596
   665.68         7.1506
   665.82         7.1398
   665.96         7.1280
   666.10         7.1167
   666.24         7.1065
   666.38         7.0975
   666.52         7.0886
   666.66         7.0783
   666.80         7.0663
   666.94         7.0533
   667.08         7.0417
   667.22         7.0335
   667.36         7.0290
   667.50         7.0272
   667.64         7.0271
   667.78         7.0276
   667.92         7.0285
   668.06         7.0305
   668.20         7.0339
   668.34         7.0388
   668.48         7.0456
   668.62         7.0541
   668.76         7.0641
   668.90         7.0760
   669.04         7.0907
   669.18         7.1086
   669.32         7.1298
   669.46         7.1537
   669.60         7.1781
   669.74         7.1995
   669.88         7.2138
   670.02         7.2185
   670.16         7.2132
   670.30         7.1990
   670.44         7.1774
   670.58         7.1497
   670.72         7.1170
   670.86         7.0809
   671.00         7.0437
   671.14         7.0086
   671.28         6.9781
   671.42         6.9542
   671.56         6.9384
   671.70         6.9317
   671.84         6.9338
   671.98         6.9439
   672.12         6.9604
   672.26         6.9819
   672.40         7.0064
   672.54         7.0318
   672.68         7.0550
   672.82         7.0727
   672.96         7.0820
   673.10         7.0809
   673.24         7.0693
   673.38         7.0487
   673.52         7.0214
   673.66         6.9901
   673.80         6.9572
   673.94         6.9244
   674.08         6.8939
   674.22         6.8685
   674.36         6.8509
   674.50         6.8425
   674.64         6.8433
   674.78         6.8525
   674.92         6.8686
   675.06         6.8901
   675.20         6.9159
   675.34         6.9455
   675.48         6.9787
   675.62         7.0148
   675.76         7.0523
   675.90         7.0891
   676.04         7.1228
   676.18         7.1513
   676.32         7.1729
   676.46         7.1871
   676.60         7.1944
   676.74         7.1963
   676.88         7.1940
   677.02         7.1883
   677.16         7.1801
   677.30         7.1696
   677.44         7.1574
   677.58         7.1439
   677.72         7.1298
   677.86         7.1156
   678.00         7.1012
   678.14         7.0867
   678.28         7.0721
   678.42         7.0579
   678.56         7.0452
   678.70         7.0354
   678.84         7.0298
   678.98         7.0292
   679.12         7.0340
   679.26         7.0429
   679.40         7.0537
   679.54         7.0641
   679.68         7.0728
   679.82         7.0785
   679.96         7.0803
   680.10         7.0776
   680.24         7.0706
   680.38         7.0604
   680.52         7.0487
   680.66         7.0377
   680.80         7.0281
   680.94         7.0193
   681.08         7.0101
   681.22         6.9992
   681.36         6.9863
   681.50         6.9718
   681.64         6.9564
   681.78         6.9401
   681.92         6.9231
   682.06         6.9052
   682.20         6.8862
   682.34         6.8663
   682.48         6.8454
   682.62         6.8236
   682.76         6.8020
   682.90         6.7822
   683.04         6.7651
   683.18         6.7514
   683.32         6.7408
   683.46         6.7327
   683.60         6.7279
   683.74         6.7280
   683.88         6.7348
   684.02         6.7489
   684.16         6.7700
   684.30         6.7962
   684.44         6.8252
   684.58         6.8542
   684.72         6.8807
   684.86         6.9033
   685.00         6.9223
   685.14         6.9385
   685.28         6.9522
   685.42         6.9613
   685.56         6.9606
   685.70         6.9420
   685.84         6.8976
   685.98         6.8220
   686.12         6.7130
   686.26         6.5728
   686.40         6.4066
   686.54         6.2233
   686.68         6.0340
   686.82         5.8510
   686.96         5.6873
   687.10         5.5539
   687.24         5.4595
   687.38         5.4087
   687.52         5.4016
   687.66         5.4336
   687.80         5.4960
   687.94         5.5765
   688.08         5.6620
   688.22         5.7407
   688.36         5.8053
   688.50         5.8543
   688.64         5.8911
   688.78         5.9208
   688.92         5.9482
   689.06         5.9778
   689.20         6.0123
   689.34         6.0521
   689.48         6.0961
   689.62         6.1418
   689.76         6.1859
   689.90         6.2255
   690.04         6.2583
   690.18         6.2833
   690.32         6.2999
   690.46         6.3088
   690.60         6.3114
   690.74         6.3104
   690.88         6.3094
   691.02         6.3122
   691.16         6.3217
   691.30         6.3385
   691.44         6.3608
   691.58         6.3854
   691.72         6.4097
   691.86         6.4311
   692.00         6.4483
   692.14         6.4609
   692.28         6.4693
   692.42         6.4742
   692.56         6.4767
   692.70         6.4772
   692.84         6.4756
   692.98         6.4716
   693.12         6.4663
   693.26         6.4610
   693.40         6.4565
   693.54         6.4529
   693.68         6.4491
   693.82         6.4438
   693.96         6.4365
   694.10         6.4281
   694.24         6.4208
   694.38         6.4181
   694.52         6.4228
   694.66         6.4361
   694.80         6.4584
   694.94         6.4893
   695.08         6.5269
   695.22         6.5681
   695.36         6.6092
   695.50         6.6467
   695.64         6.6781
   695.78         6.7022
   695.92         6.7187
   696.06         6.7281
   696.20         6.7315
   696.34         6.7304
   696.48         6.7268
   696.62         6.7229
   696.76         6.7207
   696.90         6.7214
   697.04         6.7252
   697.18         6.7311
   697.32         6.7387
   697.46         6.7472
   697.60         6.7553
   697.74         6.7609
   697.88         6.7628
   698.02         6.7612
   698.16         6.7575
   698.30         6.7536
   698.44         6.7514
   698.58         6.7515
   698.72         6.7531
   698.86         6.7548
   699.00         6.7547
   699.14         6.7519
   699.28         6.7453
   699.42         6.7343
   699.56         6.7181
   699.70         6.6971
   699.84         6.6727
   699.98         6.6479
   700.12         6.6260
   700.26         6.6097
   700.40         6.6002
   700.54         6.5981
   700.68         6.6037
   700.82         6.6164
   700.96         6.6343
   701.10         6.6527
   701.24         6.6669
   701.38         6.6729
   701.52         6.6686
   701.66         6.6539
   701.80         6.6303
   701.94         6.6006
   702.08         6.5685
   702.22         6.5385
   702.36         6.5151
   702.50         6.5014
   702.64         6.4981
   702.78         6.5036
   702.92         6.5142
   703.06         6.5269
   703.20         6.5409
   703.34         6.5558
   703.48         6.5705
   703.62         6.5836
   703.76         6.5938
   703.90         6.6015
   704.04         6.6077
   704.18         6.6137
   704.32         6.6210
   704.46         6.6304
   704.60         6.6420
   704.74         6.6556
   704.88         6.6705
   705.02         6.6855
   705.16         6.6985
   705.30         6.7076
   705.44         6.7114
   705.58         6.7099
   705.72         6.7045
   705.86         6.6966
   706.00         6.6876
   706.14         6.6787
   706.28         6.6722
   706.42         6.6702
   706.56         6.6739
   706.70         6.6829
   706.84         6.6952
   706.98         6.7081
   707.12         6.7185
   707.26         6.7243
   707.40         6.7254
   707.54         6.7222
   707.68         6.7153
   707.82         6.7051
   707.96         6.6930
   708.10         6.6810
   708.24         6.6707
   708.38         6.6634
   708.52         6.6589
   708.66         6.6559
   708.80         6.6524
   708.94         6.6459
   709.08         6.6341
   709.22         6.6159
   709.36         6.5916
   709.50         6.5626
   709.64         6.5313
   709.78         6.5007
   709.92         6.4730
   710.06         6.4501
   710.20         6.4322
   710.34         6.4187
   710.48         6.4091
   710.62         6.4034
   710.76         6.4010
   710.90         6.4015
   711.04         6.4044
   711.18         6.4099
   711.32         6.4181
   711.46         6.4296
   711.60         6.4450
   711.74         6.4653
   711.88         6.4910
   712.02         6.5217
   712.16         6.5566
   712.30         6.5946
   712.44         6.6340
   712.58         6.6734
   712.72         6.7112
   712.86         6.7458
   713.00         6.7745
   713.14         6.7945
   713.28         6.8044
   713.42         6.8042
   713.56         6.7945
   713.70         6.7761
   713.84         6.7497
   713.98         6.7169
   714.12         6.6799
   714.26         6.6421
   714.40         6.6075
   714.54         6.5795
   714.68         6.5605
   714.82         6.5514
   714.96         6.5511
   715.10         6.5568
   715.24         6.5654
   715.38         6.5736
   715.52         6.5783
   715.66         6.5768
   715.80         6.5687
   715.94         6.5549
   716.08         6.5357
   716.22         6.5108
   716.36         6.4803
   716.50         6.4457
   716.64         6.4087
   716.78         6.3718
   716.92         6.3376
   717.06         6.3090
   717.20         6.2876
   717.34         6.2722
   717.48         6.2583
   717.62         6.2420
   717.76         6.2220
   717.90         6.1976
   718.04         6.1684
   718.18         6.1342
   718.32         6.0958
   718.46         6.0543
   718.60         6.0114
   718.74         5.9690
   718.88         5.9294
   719.02         5.8954
   719.16         5.8698
   719.30         5.8544
   719.44         5.8500
   719.58         5.8568
   719.72         5.8743
   719.86         5.9002
   720.00         5.9310
   720.14         5.9654
   720.28         6.0048
   720.42         6.0503
   720.56         6.1018
   720.70         6.1592
   720.84         6.2229
   720.98         6.2921
   721.12         6.3640
   721.26         6.4350
   721.40         6.5014
   721.54         6.5591
   721.68         6.6057
   721.82         6.6405
   721.96         6.6630
   722.10         6.6727
   722.24         6.6689
   722.38         6.6512
   722.52         6.6209
   722.66         6.5817
   722.80         6.5393
   722.94         6.4982
   723.08         6.4625
   723.22         6.4348
   723.36         6.4165
   723.50         6.4073
   723.64         6.4060
   723.78         6.4110
   723.92         6.4200
   724.06         6.4289
   724.20         6.4323
   724.34         6.4262
   724.48         6.4073
   724.62         6.3736
   724.76         6.3260
   724.90         6.2695
   725.04         6.2114
   725.18         6.1586
   725.32         6.1151
   725.46         6.0821
   725.60         6.0606
   725.74         6.0519
   725.88         6.0573
   726.02         6.0765
   726.16         6.1073
   726.30         6.1455
   726.44         6.1849
   726.58         6.2189
   726.72         6.2425
   726.86         6.2546
   727.00         6.2573
   727.14         6.2537
   727.28         6.2464
   727.42         6.2363
   727.56         6.2224
   727.70         6.2015
   727.84         6.1706
   727.98         6.1284
   728.12         6.0770
   728.26         6.0210
   728.40         5.9666
   728.54         5.9196
   728.68         5.8842
   728.82         5.8632
   728.96         5.8577
   729.10         5.8672
   729.24         5.8903
   729.38         5.9258
   729.52         5.9729
   729.66         6.0280
   729.80         6.0847
   729.94         6.1352
   730.08         6.1734
   730.22         6.1966
   730.36         6.2053
   730.50         6.2027
   730.64         6.1933
   730.78         6.1821
   730.92         6.1737
   731.06         6.1710
   731.20         6.1757
   731.34         6.1871
   731.48         6.2031
   731.62         6.2213
   731.76         6.2395
   731.90         6.2567
   732.04         6.2718
   732.18         6.2830
   732.32         6.2880
   732.46         6.2854
   732.60         6.2757
   732.74         6.2607
   732.88         6.2425
   733.02         6.2231
   733.16         6.2041
   733.30         6.1875
   733.44         6.1754
   733.58         6.1686
   733.72         6.1662
   733.86         6.1654
   734.00         6.1632
   734.14         6.1571
   734.28         6.1457
   734.42         6.1285
   734.56         6.1053
   734.70         6.0777
   734.84         6.0490
   734.98         6.0225
   735.12         6.0003
   735.26         5.9837
   735.40         5.9733
   735.54         5.9689
   735.68         5.9693
   735.82         5.9732
   735.96         5.9795
   736.10         5.9870
   736.24         5.9947
   736.38         6.0019
   736.52         6.0087
   736.66         6.0153
   736.80         6.0215
   736.94         6.0265
   737.08         6.0289
   737.22         6.0272
   737.36         6.0205
   737.50         6.0077
   737.64         5.9879
   737.78         5.9613
   737.92         5.9299
   738.06         5.8962
   738.20         5.8630
   738.34         5.8335
   738.48         5.8098
   738.62         5.7925
   738.76         5.7803
   738.90         5.7712
   739.04         5.7622
   739.18         5.7501
   739.32         5.7324
   739.46         5.7075
   739.60         5.6753
   739.74         5.6364
   739.88         5.5936
   740.02         5.5515
   740.16         5.5158
   740.30         5.4915
   740.44         5.4832
   740.58         5.4934
   740.72         5.5223
   740.86         5.5684
   741.00         5.6284
   741.14         5.6977
   741.28         5.7711
   741.42         5.8431
   741.56         5.9074
   741.70         5.9586
   741.84         5.9932
   741.98         6.0105
   742.12         6.0126
   742.26         6.0031
   742.40         5.9869
   742.54         5.9692
   742.68         5.9546
   742.82         5.9464
   742.96         5.9464
   743.10         5.9546
   743.24         5.9692
   743.38         5.9869
   743.52         6.0031
   743.66         6.0126
   743.80         6.0105
   743.94         5.9932
   744.08         5.9586
   744.22         5.9074
