# File HD1069
# Wavelength [nm]    Normalized Amplitude
   349.70         8.0149
   349.84         8.0188
   349.98         8.0523
   350.12         8.1066
   350.26         8.1710
   350.40         8.2351
   350.54         8.2932
   350.68         8.3429
   350.82         8.3819
   350.96         8.4067
   351.10         8.4151
   351.24         8.4067
   351.38         8.3819
   351.52         8.3429
   351.66         8.2932
   351.80         8.2351
   351.94         8.1710
   352.08         8.1066
   352.22         8.0523
   352.36         8.0188
   352.50         8.0149
   352.64         8.0472
   352.78         8.1192
   352.92         8.2312
   353.06         8.3796
   353.20         8.5560
   353.34         8.7469
   353.48         8.9357
   353.62         9.1058
   353.76         9.2430
   353.90         9.3372
   354.04         9.3820
   354.18         9.3735
   354.32         9.3110
   354.46         9.1977
   354.60         9.0405
   354.74         8.8496
   354.88         8.6368
   355.02         8.4126
   355.16         8.1846
   355.30         7.9566
   355.44         7.7295
   355.58         7.5042
   355.72         7.2816
   355.86         7.0628
   356.00         6.8517
   356.14         6.6544
   356.28         6.4766
   356.42         6.3219
   356.56         6.1903
   356.70         6.0772
   356.84         5.9756
   356.98         5.8776
   357.12         5.7761
   357.26         5.6673
   357.40         5.5507
   357.54         5.4261
   357.68         5.2959
   357.82         5.1712
   357.96         5.0700
   358.10         5.0119
   358.24         5.0155
   358.38         5.0958
   358.52         5.2655
   358.66         5.5335
   358.80         5.8988
   358.94         6.3449
   359.08         6.8425
   359.22         7.3538
   359.36         7.8386
   359.50         8.2599
   359.64         8.5877
   359.78         8.8045
   359.92         8.9075
   360.06         8.9077
   360.20         8.8291
   360.34         8.7042
   360.48         8.5638
   360.62         8.4279
   360.76         8.3096
   360.90         8.2210
   361.04         8.1774
   361.18         8.1973
   361.32         8.2982
   361.46         8.4884
   361.60         8.7618
   361.74         9.0971
   361.88         9.4630
   362.02         9.8277
   362.16         10.1653
   362.30         10.4580
   362.44         10.6997
   362.58         10.8943
   362.72         11.0489
   362.86         11.1694
   363.00         11.2584
   363.14         11.3147
   363.28         11.3396
   363.42         11.3413
   363.56         11.3336
   363.70         11.3300
   363.84         11.3381
   363.98         11.3569
   364.12         11.3786
   364.26         11.3978
   364.40         11.4199
   364.54         11.4638
   364.68         11.5594
   364.82         11.7372
   364.96         12.0160
   365.10         12.3954
   365.24         12.8556
   365.38         13.3593
   365.52         13.8595
   365.66         14.3089
   365.80         14.6682
   365.94         14.9145
   366.08         15.0416
   366.22         15.0561
   366.36         14.9741
   366.50         14.8170
   366.64         14.6082
   366.78         14.3705
   366.92         14.1256
   367.06         13.8919
   367.20         13.6812
   367.34         13.4944
   367.48         13.3207
   367.62         13.1462
   367.76         12.9660
   367.90         12.7883
   368.04         12.6264
   368.18         12.4952
   368.32         12.4103
   368.46         12.3846
   368.60         12.4289
   368.74         12.5489
   368.88         12.7431
   369.02         12.9983
   369.16         13.2852
   369.30         13.5624
   369.44         13.7867
   369.58         13.9209
   369.72         13.9395
   369.86         13.8342
   370.00         13.6194
   370.14         13.3323
   370.28         13.0223
   370.42         12.7331
   370.56         12.4898
   370.70         12.2960
   370.84         12.1405
   370.98         12.0059
   371.12         11.8766
   371.26         11.7436
   371.40         11.6002
   371.54         11.4376
   371.68         11.2446
   371.82         11.0131
   371.96         10.7439
   372.10         10.4477
   372.24         10.1382
   372.38         9.8279
   372.52         9.5293
   372.66         9.2529
   372.80         9.0022
   372.94         8.7730
   373.08         8.5567
   373.22         8.3457
   373.36         8.1370
   373.50         7.9335
   373.64         7.7429
   373.78         7.5761
   373.92         7.4447
   374.06         7.3596
   374.20         7.3300
   374.34         7.3622
   374.48         7.4560
   374.62         7.6022
   374.76         7.7886
   374.90         8.0045
   375.04         8.2420
   375.18         8.4930
   375.32         8.7419
   375.46         8.9657
   375.60         9.1440
   375.74         9.2678
   375.88         9.3438
   376.02         9.3914
   376.16         9.4370
   376.30         9.5091
   376.44         9.6349
   376.58         9.8388
   376.72         10.1343
   376.86         10.5171
   377.00         10.9664
   377.14         11.4486
   377.28         11.9235
   377.42         12.3509
   377.56         12.6926
   377.70         12.9150
   377.84         12.9988
   377.98         12.9417
   378.12         12.7558
   378.26         12.4635
   378.40         12.0907
   378.54         11.6607
   378.68         11.1959
   378.82         10.7229
   378.96         10.2733
   379.10         9.8823
   379.24         9.5820
   379.38         9.3905
   379.52         9.3086
   379.66         9.3242
   379.80         9.4155
   379.94         9.5539
   380.08         9.7094
   380.22         9.8517
   380.36         9.9529
   380.50         9.9914
   380.64         9.9497
   380.78         9.8147
   380.92         9.5846
   381.06         9.2705
   381.20         8.8917
   381.34         8.4717
   381.48         8.0361
   381.62         7.6101
   381.76         7.2166
   381.90         6.8720
   382.04         6.5855
   382.18         6.3626
   382.32         6.2059
   382.46         6.1110
   382.60         6.0652
   382.74         6.0528
   382.88         6.0613
   383.02         6.0871
   383.16         6.1342
   383.30         6.2069
   383.44         6.3057
   383.58         6.4296
   383.72         6.5759
   383.86         6.7370
   384.00         6.9027
   384.14         7.0642
   384.28         7.2134
   384.42         7.3395
   384.56         7.4299
   384.70         7.4739
   384.84         7.4666
   384.98         7.4095
   385.12         7.3080
   385.26         7.1720
   385.40         7.0181
   385.54         6.8658
   385.68         6.7299
   385.82         6.6176
   385.96         6.5306
   386.10         6.4710
   386.24         6.4444
   386.38         6.4558
   386.52         6.5052
   386.66         6.5888
   386.80         6.7006
   386.94         6.8341
   387.08         6.9852
   387.22         7.1532
   387.36         7.3373
   387.50         7.5363
   387.64         7.7511
   387.78         7.9873
   387.92         8.2549
   388.06         8.5657
   388.20         8.9261
   388.34         9.3356
   388.48         9.7896
   388.62         10.2810
   388.76         10.7979
   388.90         11.3204
   389.04         11.8213
   389.18         12.2739
   389.32         12.6572
   389.46         12.9595
   389.60         13.1803
   389.74         13.3315
   389.88         13.4319
   390.02         13.5032
   390.16         13.5682
   390.30         13.6454
   390.44         13.7432
   390.58         13.8562
   390.72         13.9642
   390.86         14.0380
   391.00         14.0498
   391.14         13.9787
   391.28         13.8127
   391.42         13.5452
   391.56         13.1730
   391.70         12.6984
   391.84         12.1304
   391.98         11.4831
   392.12         10.7749
   392.26         10.0296
   392.40         9.2746
   392.54         8.5387
   392.68         7.8510
   392.82         7.2399
   392.96         6.7317
   393.10         6.3504
   393.24         6.1162
   393.38         6.0448
   393.52         6.1469
   393.66         6.4261
   393.80         6.8766
   393.94         7.4793
   394.08         8.2020
   394.22         9.0056
   394.36         9.8488
   394.50         10.6901
   394.64         11.4890
   394.78         12.2098
   394.92         12.8214
   395.06         13.2942
   395.20         13.6001
   395.34         13.7148
   395.48         13.6213
   395.62         13.3149
   395.76         12.8098
   395.90         12.1407
   396.04         11.3604
   396.18         10.5341
   396.32         9.7377
   396.46         9.0510
   396.60         8.5479
   396.74         8.2870
   396.88         8.3048
   397.02         8.6108
   397.16         9.1883
   397.30         10.0006
   397.44         10.9977
   397.58         12.1187
   397.72         13.2978
   397.86         14.4742
   398.00         15.5993
   398.14         16.6393
   398.28         17.5739
   398.42         18.3948
   398.56         19.1055
   398.70         19.7203
   398.84         20.2616
   398.98         20.7535
   399.12         21.2147
   399.26         21.6514
   399.40         22.0571
   399.54         22.4236
   399.68         22.7494
   399.82         23.0398
   399.96         23.3019
   400.10         23.5427
   400.24         23.7695
   400.38         23.9900
   400.52         24.2118
   400.66         24.4409
   400.80         24.6780
   400.94         24.9191
   401.08         25.1601
   401.22         25.3973
   401.36         25.6284
   401.50         25.8507
   401.64         26.0576
   401.78         26.2337
   401.92         26.3542
   402.06         26.3939
   402.20         26.3393
   402.34         26.1900
   402.48         25.9575
   402.62         25.6670
   402.76         25.3545
   402.90         25.0546
   403.04         24.7906
   403.18         24.5686
   403.32         24.3760
   403.46         24.1943
   403.60         24.0163
   403.74         23.8486
   403.88         23.7044
   404.02         23.5944
   404.16         23.5190
   404.30         23.4650
   404.44         23.4125
   404.58         23.3481
   404.72         23.2747
   404.86         23.2075
   405.00         23.1570
   405.14         23.1197
   405.28         23.0814
   405.42         23.0231
   405.56         22.9298
   405.70         22.7992
   405.84         22.6393
   405.98         22.4676
   406.12         22.3163
   406.26         22.2202
   406.40         22.1951
   406.54         22.2314
   406.68         22.3061
   406.82         22.4009
   406.96         22.5107
   407.10         22.6410
   407.24         22.8007
   407.38         22.9979
   407.52         23.2382
   407.66         23.5273
   407.80         23.8731
   407.94         24.2839
   408.08         24.7606
   408.22         25.2896
   408.36         25.8405
   408.50         26.3683
   408.64         26.8264
   408.78         27.1750
   408.92         27.3813
   409.06         27.4265
   409.20         27.3165
   409.34         27.0853
   409.48         26.7828
   409.62         26.4557
   409.76         26.1378
   409.90         25.8513
   410.04         25.6140
   410.18         25.4424
   410.32         25.3456
   410.46         25.3184
   410.60         25.3426
   410.74         25.3929
   410.88         25.4428
   411.02         25.4688
   411.16         25.4540
   411.30         25.3909
   411.44         25.2805
   411.58         25.1313
   411.72         24.9570
   411.86         24.7683
   412.00         24.5661
   412.14         24.3427
   412.28         24.0914
   412.42         23.8130
   412.56         23.5197
   412.70         23.2335
   412.84         22.9753
   412.98         22.7517
   413.12         22.5533
   413.26         22.3633
   413.40         22.1714
   413.54         21.9784
   413.68         21.7875
   413.82         21.5986
   413.96         21.4072
   414.10         21.2076
   414.24         20.9971
   414.38         20.7785
   414.52         20.5639
   414.66         20.3762
   414.80         20.2461
   414.94         20.2041
   415.08         20.2707
   415.22         20.4496
   415.36         20.7243
   415.50         21.0601
   415.64         21.4169
   415.78         21.7627
   415.92         22.0752
   416.06         22.3366
   416.20         22.5280
   416.34         22.6291
   416.48         22.6263
   416.62         22.5181
   416.76         22.3185
   416.90         22.0553
   417.04         21.7655
   417.18         21.4912
   417.32         21.2740
   417.46         21.1447
   417.60         21.1186
   417.74         21.1966
   417.88         21.3688
   418.02         21.6196
   418.16         21.9304
   418.30         22.2767
   418.44         22.6235
   418.58         22.9291
   418.72         23.1564
   418.86         23.2815
   419.00         23.2956
   419.14         23.2062
   419.28         23.0378
   419.42         22.8307
   419.56         22.6358
   419.70         22.5028
   419.84         22.4690
   419.98         22.5518
   420.12         22.7451
   420.26         23.0247
   420.40         23.3626
   420.54         23.7402
   420.68         24.1517
   420.82         24.5966
   420.96         25.0700
   421.10         25.5555
   421.24         26.0235
   421.38         26.4308
   421.52         26.7332
   421.66         26.9070
   421.80         26.9598
   421.94         26.9220
   422.08         26.8304
   422.22         26.7163
   422.36         26.6006
   422.50         26.4979
   422.64         26.4268
   422.78         26.4122
   422.92         26.4840
   423.06         26.6760
   423.20         27.0138
   423.34         27.4968
   423.48         28.0900
   423.62         28.7290
   423.76         29.3367
   423.90         29.8452
   424.04         30.2146
   424.18         30.4393
   424.32         30.5373
   424.46         30.5316
   424.60         30.4366
   424.74         30.2566
   424.88         29.9985
   425.02         29.6843
   425.16         29.3592
   425.30         29.0847
   425.44         28.9207
   425.58         28.9057
   425.72         29.0431
   425.86         29.2963
   426.00         29.5972
   426.14         29.8659
   426.28         30.0346
   426.42         30.0667
   426.56         29.9644
   426.70         29.7586
   426.84         29.4907
   426.98         29.2011
   427.12         28.9269
   427.26         28.6990
   427.40         28.5401
   427.54         28.4690
   427.68         28.4953
   427.82         28.6074
   427.96         28.7696
   428.10         28.9315
   428.24         29.0402
   428.38         29.0515
   428.52         28.9411
   428.66         28.7074
   428.80         28.3642
   428.94         27.9329
   429.08         27.4372
   429.22         26.8948
   429.36         26.3133
   429.50         25.6919
   429.64         25.0306
   429.78         24.3405
   429.92         23.6470
   430.06         22.9919
   430.20         22.4351
   430.34         22.0493
   430.48         21.9164
   430.62         22.1182
   430.76         22.7101
   430.90         23.6979
   431.04         25.0302
   431.18         26.6032
   431.32         28.2763
   431.46         29.9063
   431.60         31.3822
   431.74         32.6363
   431.88         33.6359
   432.02         34.3779
   432.16         34.8896
   432.30         35.2258
   432.44         35.4549
   432.58         35.6374
   432.72         35.8137
   432.86         36.0037
   433.00         36.2120
   433.14         36.4325
   433.28         36.6474
   433.42         36.8318
   433.56         36.9683
   433.70         37.0546
   433.84         37.0996
   433.98         37.1210
   434.12         37.1469
   434.26         37.2107
   434.40         37.3374
   434.54         37.5318
   434.68         37.7806
   434.82         38.0599
   434.96         38.3422
   435.10         38.6066
   435.24         38.8461
   435.38         39.0756
   435.52         39.3200
   435.66         39.5965
   435.80         39.9086
   435.94         40.2429
   436.08         40.5689
   436.22         40.8411
   436.36         41.0091
   436.50         41.0349
   436.64         40.9113
   436.78         40.6645
   436.92         40.3290
   437.06         39.9197
   437.20         39.4280
   437.34         38.8415
   437.48         38.1645
   437.62         37.4234
   437.76         36.6544
   437.90         35.8936
   438.04         35.1762
   438.18         34.5355
   438.32         34.0100
   438.46         33.6463
   438.60         33.4862
   438.74         33.5508
   438.88         33.8366
   439.02         34.3195
   439.16         34.9485
   439.30         35.6396
   439.44         36.2864
   439.58         36.7871
   439.72         37.0782
   439.86         37.1575
   440.00         37.0768
   440.14         36.9111
   440.28         36.7267
   440.42         36.5683
   440.56         36.4728
   440.70         36.4762
   440.84         36.6049
   440.98         36.8661
   441.12         37.2441
   441.26         37.7030
   441.40         38.1941
   441.54         38.6659
   441.68         39.0718
   441.82         39.3746
   441.96         39.5556
   442.10         39.6216
   442.24         39.5929
   442.38         39.4936
   442.52         39.3526
   442.66         39.1998
   442.80         39.0566
   442.94         38.9343
   443.08         38.8425
   443.22         38.8004
   443.36         38.8320
   443.50         38.9538
   443.64         39.1728
   443.78         39.4889
   443.92         39.8959
   444.06         40.3752
   444.20         40.8925
   444.34         41.4020
   444.48         41.8543
   444.62         42.2059
   444.76         42.4212
   444.90         42.4762
   445.04         42.3682
   445.18         42.1184
   445.32         41.7594
   445.46         41.3259
   445.60         40.8560
   445.74         40.3960
   445.88         40.0015
   446.02         39.7258
   446.16         39.6091
   446.30         39.6781
   446.44         39.9440
   446.58         40.3977
   446.72         41.0065
   446.86         41.7161
   447.00         42.4632
   447.14         43.1958
   447.28         43.8804
   447.42         44.4981
   447.56         45.0390
   447.70         45.4932
   447.84         45.8484
   447.98         46.0957
   448.12         46.2320
   448.26         46.2536
   448.40         46.1621
   448.54         45.9784
   448.68         45.7425
   448.82         45.4998
   448.96         45.2912
   449.10         45.1533
   449.24         45.1208
   449.38         45.2247
   449.52         45.4873
   449.66         45.9234
   449.80         46.5379
   449.94         47.3106
   450.08         48.1872
   450.22         49.0848
   450.36         49.9136
   450.50         50.6027
   450.64         51.1090
   450.78         51.4143
   450.92         51.5228
   451.06         51.4597
   451.20         51.2611
   451.34         50.9573
   451.48         50.5640
   451.62         50.0855
   451.76         49.5240
   451.90         48.8829
   452.04         48.1667
   452.18         47.3845
   452.32         46.5562
   452.46         45.7185
   452.60         44.9218
   452.74         44.2190
   452.88         43.6562
   453.02         43.2752
   453.16         43.1097
   453.30         43.1723
   453.44         43.4490
   453.58         43.8984
   453.72         44.4583
   453.86         45.0590
   454.00         45.6348
   454.14         46.1328
   454.28         46.5229
   454.42         46.8061
   454.56         47.0109
   454.70         47.1744
   454.84         47.3311
   454.98         47.5089
   455.12         47.7258
   455.26         47.9812
   455.40         48.2594
   455.54         48.5471
   455.68         48.8435
   455.82         49.1463
   455.96         49.4421
   456.10         49.7174
   456.24         49.9654
   456.38         50.1825
   456.52         50.3629
   456.66         50.4965
   456.80         50.5718
   456.94         50.5815
   457.08         50.5266
   457.22         50.4116
   457.36         50.2411
   457.50         50.0275
   457.64         49.7981
   457.78         49.5894
   457.92         49.4352
   458.06         49.3582
   458.20         49.3638
   458.34         49.4324
   458.48         49.5298
   458.62         49.6271
   458.76         49.7045
   458.90         49.7441
   459.04         49.7305
   459.18         49.6534
   459.32         49.5151
   459.46         49.3419
   459.60         49.1853
   459.74         49.1101
   459.88         49.1709
   460.02         49.3955
   460.16         49.7855
   460.30         50.3225
   460.44         50.9689
   460.58         51.6745
   460.72         52.3925
   460.86         53.0892
   461.00         53.7443
   461.14         54.3491
   461.28         54.8973
   461.42         55.3844
   461.56         55.8123
   461.70         56.1855
   461.84         56.5096
   461.98         56.7957
   462.12         57.0526
   462.26         57.2745
   462.40         57.4357
   462.54         57.4946
   462.68         57.4108
   462.82         57.1658
   462.96         56.7665
   463.10         56.2312
   463.24         55.5793
   463.38         54.8299
   463.52         54.0035
   463.66         53.1277
   463.80         52.2439
   463.94         51.4059
   464.08         50.6703
   464.22         50.0810
   464.36         49.6622
   464.50         49.4286
   464.64         49.3908
   464.78         49.5490
   464.92         49.8849
   465.06         50.3587
   465.20         50.9131
   465.34         51.4790
   465.48         51.9815
   465.62         52.3497
   465.76         52.5311
   465.90         52.5052
   466.04         52.2894
   466.18         51.9317
   466.32         51.5014
   466.46         51.0777
   466.60         50.7293
   466.74         50.4955
   466.88         50.3897
   467.02         50.4186
   467.16         50.5860
   467.30         50.8797
   467.44         51.2605
   467.58         51.6683
   467.72         52.0429
   467.86         52.3394
   468.00         52.5356
   468.14         52.6382
   468.28         52.6817
   468.42         52.7086
   468.56         52.7437
   468.70         52.7861
   468.84         52.8213
   468.98         52.8365
   469.12         52.8231
   469.26         52.7717
   469.40         52.6744
   469.54         52.5340
   469.68         52.3651
   469.82         52.1865
   469.96         52.0206
   470.10         51.8832
   470.24         51.7798
   470.38         51.7161
   470.52         51.7043
   470.66         51.7614
   470.80         51.9057
   470.94         52.1450
   471.08         52.4717
   471.22         52.8701
   471.36         53.3241
   471.50         53.8086
   471.64         54.2790
   471.78         54.6845
   471.92         54.9845
   472.06         55.1530
   472.20         55.1816
   472.34         55.0809
   472.48         54.8759
   472.62         54.5984
   472.76         54.2832
   472.90         53.9738
   473.04         53.7244
   473.18         53.5858
   473.32         53.5967
   473.46         53.7787
   473.60         54.1287
   473.74         54.6202
   473.88         55.2087
   474.02         55.8371
   474.16         56.4405
   474.30         56.9635
   474.44         57.3736
   474.58         57.6542
   474.72         57.8000
   474.86         57.8159
   475.00         57.7102
   475.14         57.4914
   475.28         57.1730
   475.42         56.7766
   475.56         56.3301
   475.70         55.8700
   475.84         55.4377
   475.98         55.0726
   476.12         54.8039
   476.26         54.6503
   476.40         54.6275
   476.54         54.7467
   476.68         55.0083
   476.82         55.4006
   476.96         55.9008
   477.10         56.4759
   477.24         57.0838
   477.38         57.6750
   477.52         58.1950
   477.66         58.5921
   477.80         58.8315
   477.94         58.9055
   478.08         58.8408
   478.22         58.6952
   478.36         58.5381
   478.50         58.4278
   478.64         58.3993
   478.78         58.4661
   478.92         58.6299
   479.06         58.8810
   479.20         59.1926
   479.34         59.5243
   479.48         59.8312
   479.62         60.0680
   479.76         60.2012
   479.90         60.2153
   480.04         60.1116
   480.18         59.9097
   480.32         59.6443
   480.46         59.3566
   480.60         59.0909
   480.74         58.8869
   480.88         58.7634
   481.02         58.7078
   481.16         58.6868
   481.30         58.6693
   481.44         58.6412
   481.58         58.6028
   481.72         58.5555
   481.86         58.4950
   482.00         58.4162
   482.14         58.3213
   482.28         58.2246
   482.42         58.1466
   482.56         58.1030
   482.70         58.1005
   482.84         58.1364
   482.98         58.1944
   483.12         58.2481
   483.26         58.2744
   483.40         58.2596
   483.54         58.1980
   483.68         58.0885
   483.82         57.9363
   483.96         57.7574
   484.10         57.5716
   484.24         57.3895
   484.38         57.2080
   484.52         57.0144
   484.66         56.7937
   484.80         56.5262
   484.94         56.1808
   485.08         55.7227
   485.22         55.1339
   485.36         54.4240
   485.50         53.6279
   485.64         52.7977
   485.78         51.9923
   485.92         51.2647
   486.06         50.6518
   486.20         50.1761
   486.34         49.8504
   486.48         49.6821
   486.62         49.6734
   486.76         49.8161
   486.90         50.0867
   487.04         50.4491
   487.18         50.8622
   487.32         51.2836
   487.46         51.6696
   487.60         51.9880
   487.74         52.2252
   487.88         52.3777
   488.02         52.4462
   488.16         52.4426
   488.30         52.3938
   488.44         52.3391
   488.58         52.3251
   488.72         52.3982
   488.86         52.5936
   489.00         52.9283
   489.14         53.4002
   489.28         53.9896
   489.42         54.6599
   489.56         55.3602
   489.70         56.0331
   489.84         56.6255
   489.98         57.0955
   490.12         57.4205
   490.26         57.6051
   490.40         57.6776
   490.54         57.6768
   490.68         57.6392
   490.82         57.5850
   490.96         57.5107
   491.10         57.3966
   491.24         57.2201
   491.38         56.9700
   491.52         56.6591
   491.66         56.3259
   491.80         56.0222
   491.94         55.7959
   492.08         55.6781
   492.22         55.6810
   492.36         55.8046
   492.50         56.0401
   492.64         56.3661
   492.78         56.7524
   492.92         57.1660
   493.06         57.5732
   493.20         57.9396
   493.34         58.2367
   493.48         58.4546
   493.62         58.6103
   493.76         58.7427
   493.90         58.8985
   494.04         59.1152
   494.18         59.4112
   494.32         59.7801
   494.46         60.1853
   494.60         60.5682
   494.74         60.8726
   494.88         61.0671
   495.02         61.1495
   495.16         61.1323
   495.30         61.0340
   495.44         60.8762
   495.58         60.6813
   495.72         60.4685
   495.86         60.2513
   496.00         60.0409
   496.14         59.8535
   496.28         59.7091
   496.42         59.6200
   496.56         59.5814
   496.70         59.5724
   496.84         59.5622
   496.98         59.5147
   497.12         59.3960
   497.26         59.1894
   497.40         58.9025
   497.54         58.5591
   497.68         58.1842
   497.82         57.7963
   497.96         57.4133
   498.10         57.0591
   498.24         56.7668
   498.38         56.5754
   498.52         56.5167
   498.66         56.6009
   498.80         56.8138
   498.94         57.1180
   499.08         57.4579
   499.22         57.7701
   499.36         57.9941
   499.50         58.0862
   499.64         58.0342
   499.78         57.8558
   499.92         57.5807
   500.06         57.2311
   500.20         56.8174
   500.34         56.3464
   500.48         55.8299
   500.62         55.2892
   500.76         54.7518
   500.90         54.2473
   501.04         53.8022
   501.18         53.4365
   501.32         53.1644
   501.46         52.9972
   501.60         52.9419
   501.74         53.0021
   501.88         53.1810
   502.02         53.4825
   502.16         53.9057
   502.30         54.4319
   502.44         55.0153
   502.58         55.5925
   502.72         56.0996
   502.86         56.4868
   503.00         56.7317
   503.14         56.8423
   503.28         56.8507
   503.42         56.8008
   503.56         56.7315
   503.70         56.6698
   503.84         56.6335
   503.98         56.6355
   504.12         56.6882
   504.26         56.8065
   504.40         57.0043
   504.54         57.2841
   504.68         57.6343
   504.82         58.0336
   504.96         58.4549
   505.10         58.8685
   505.24         59.2423
   505.38         59.5484
   505.52         59.7760
   505.66         59.9339
   505.80         60.0361
   505.94         60.0858
   506.08         60.0723
   506.22         59.9832
   506.36         59.8182
   506.50         59.5919
   506.64         59.3222
   506.78         59.0247
   506.92         58.7134
   507.06         58.4020
   507.20         58.1042
   507.34         57.8356
   507.48         57.6110
   507.62         57.4395
   507.76         57.3272
   507.90         57.2840
   508.04         57.3296
   508.18         57.4799
   508.32         57.7305
   508.46         58.0554
   508.60         58.4110
   508.74         58.7499
   508.88         59.0338
   509.02         59.2344
   509.16         59.3317
   509.30         59.3185
   509.44         59.2048
   509.58         59.0156
   509.72         58.7810
   509.86         58.5310
   510.00         58.2957
   510.14         58.1046
   510.28         57.9836
   510.42         57.9530
   510.56         58.0233
   510.70         58.1876
   510.84         58.4174
   510.98         58.6694
   511.12         58.8989
   511.26         59.0694
   511.40         59.1605
   511.54         59.1631
   511.68         59.0710
   511.82         58.8834
   511.96         58.6149
   512.10         58.2979
   512.24         57.9717
   512.38         57.6709
   512.52         57.4224
   512.66         57.2447
   512.80         57.1476
   512.94         57.1284
   513.08         57.1688
   513.22         57.2366
   513.36         57.2954
   513.50         57.3144
   513.64         57.2727
   513.78         57.1625
   513.92         56.9901
   514.06         56.7719
   514.20         56.5314
   514.34         56.3011
   514.48         56.1222
   514.62         56.0322
   514.76         56.0534
   514.90         56.1861
   515.04         56.4096
   515.18         56.6843
   515.32         56.9512
   515.46         57.1379
   515.60         57.1734
   515.74         57.0054
   515.88         56.6079
   516.02         55.9808
   516.16         55.1565
   516.30         54.2038
   516.44         53.2204
   516.58         52.3188
   516.72         51.6034
   516.86         51.1471
   517.00         50.9771
   517.14         51.0720
   517.28         51.3832
   517.42         51.8553
   517.56         52.4289
   517.70         53.0413
   517.84         53.6323
   517.98         54.1510
   518.12         54.5688
   518.26         54.8855
   518.40         55.1201
   518.54         55.2996
   518.68         55.4603
   518.82         55.6451
   518.96         55.8836
   519.10         56.1775
   519.24         56.4985
   519.38         56.7975
   519.52         57.0245
   519.66         57.1487
   519.80         57.1738
   519.94         57.1386
   520.08         57.0889
   520.22         57.0540
   520.36         57.0479
   520.50         57.0785
   520.64         57.1586
   520.78         57.3101
   520.92         57.5500
   521.06         57.8752
   521.20         58.2583
   521.34         58.6488
   521.48         58.9840
   521.62         59.2117
   521.76         59.3057
   521.90         59.2663
   522.04         59.1177
   522.18         58.8958
   522.32         58.6428
   522.46         58.4119
   522.60         58.2561
   522.74         58.2146
   522.88         58.3061
   523.02         58.5363
   523.16         58.9023
   523.30         59.3854
   523.44         59.9432
   523.58         60.5108
   523.72         61.0150
   523.86         61.3929
   524.00         61.6102
   524.14         61.6685
   524.28         61.5924
   524.42         61.4114
   524.56         61.1567
   524.70         60.8638
   524.84         60.5662
   524.98         60.2940
   525.12         60.0627
   525.26         59.8625
   525.40         59.6647
   525.54         59.4359
   525.68         59.1499
   525.82         58.7871
   525.96         58.3356
   526.10         57.8018
   526.24         57.2132
   526.38         56.6154
   526.52         56.0699
   526.66         55.6446
   526.80         55.3971
   526.94         55.3610
   527.08         55.5434
   527.22         55.9283
   527.36         56.4811
   527.50         57.1572
   527.64         57.9115
   527.78         58.7070
   527.92         59.5186
   528.06         60.3309
   528.20         61.1300
   528.34         61.8936
   528.48         62.5894
   528.62         63.1809
   528.76         63.6348
   528.90         63.9295
   529.04         64.0622
   529.18         64.0512
   529.32         63.9308
   529.46         63.7429
   529.60         63.5306
   529.74         63.3423
   529.88         63.2305
   530.02         63.2397
   530.16         63.3911
   530.30         63.6759
   530.44         64.0605
   530.58         64.4941
   530.72         64.9191
   530.86         65.2821
   531.00         65.5391
   531.14         65.6592
   531.28         65.6280
   531.42         65.4475
   531.56         65.1276
   531.70         64.6767
   531.84         64.1078
   531.98         63.4497
   532.12         62.7449
   532.26         62.0458
   532.40         61.4102
   532.54         60.8902
   532.68         60.5230
   532.82         60.3263
   532.96         60.3013
   533.10         60.4380
   533.24         60.7188
   533.38         61.1162
   533.52         61.5917
   533.66         62.0957
   533.80         62.5761
   533.94         62.9914
   534.08         63.3207
   534.22         63.5680
   534.36         63.7625
   534.50         63.9498
   534.64         64.1753
   534.78         64.4683
   534.92         64.8356
   535.06         65.2607
   535.20         65.7096
   535.34         66.1411
   535.48         66.5144
   535.62         66.7943
   535.76         66.9525
   535.90         66.9640
   536.04         66.8143
   536.18         66.5128
   536.32         66.0976
   536.46         65.6291
   536.60         65.1731
   536.74         64.7884
   536.88         64.5190
   537.02         64.3884
   537.16         64.3983
   537.30         64.5322
   537.44         64.7606
   537.58         65.0445
   537.72         65.3394
   537.86         65.6016
   538.00         65.7950
   538.14         65.8910
   538.28         65.8703
   538.42         65.7234
   538.56         65.4524
   538.70         65.0776
   538.84         64.6350
   538.98         64.1646
   539.12         63.6966
   539.26         63.2442
   539.40         62.8095
   539.54         62.3906
   539.68         61.9888
   539.82         61.6134
   539.96         61.2819
   540.10         61.0169
   540.24         60.8406
   540.38         60.7695
   540.52         60.8162
   540.66         60.9867
   540.80         61.2734
   540.94         61.6559
   541.08         62.1069
   541.22         62.5975
   541.36         63.1019
   541.50         63.5962
   541.64         64.0524
   541.78         64.4353
   541.92         64.7122
   542.06         64.8653
   542.20         64.8951
   542.34         64.8153
   542.48         64.6484
   542.62         64.4238
   542.76         64.1788
   542.90         63.9541
   543.04         63.7885
   543.18         63.7117
   543.32         63.7320
   543.46         63.8342
   543.60         63.9959
   543.74         64.1977
   543.88         64.4264
   544.02         64.6736
   544.16         64.9267
   544.30         65.1609
   544.44         65.3448
   544.58         65.4564
   544.72         65.4933
   544.86         65.4698
   545.00         65.4108
   545.14         65.3437
   545.28         65.2905
   545.42         65.2638
   545.56         65.2658
   545.70         65.2899
   545.84         65.3213
   545.98         65.3420
   546.12         65.3421
   546.26         65.3228
   546.40         65.2832
   546.54         65.2121
   546.68         65.0919
   546.82         64.9061
   546.96         64.6498
   547.10         64.3337
   547.24         63.9862
   547.38         63.6451
   547.52         63.3411
   547.66         63.0930
   547.80         62.9154
   547.94         62.8227
   548.08         62.8267
   548.22         62.9318
   548.36         63.1320
   548.50         63.4096
   548.64         63.7403
   548.78         64.0999
   548.92         64.4636
   549.06         64.8066
   549.20         65.1102
   549.34         65.3636
   549.48         65.5584
   549.62         65.6873
   549.76         65.7471
   549.90         65.7412
   550.04         65.6743
   550.18         65.5495
   550.32         65.3728
   550.46         65.1600
   550.60         64.9368
   550.74         64.7341
   550.88         64.5837
   551.02         64.5106
   551.16         64.5264
   551.30         64.6289
   551.44         64.8014
   551.58         65.0124
   551.72         65.2239
   551.86         65.4062
   552.00         65.5384
   552.14         65.6040
   552.28         65.5925
   552.42         65.5028
   552.56         65.3456
   552.70         65.1434
   552.84         64.9296
   552.98         64.7457
   553.12         64.6312
   553.26         64.6125
   553.40         64.6980
   553.54         64.8809
   553.68         65.1470
   553.82         65.4779
   553.96         65.8525
   554.10         66.2486
   554.24         66.6439
   554.38         67.0226
   554.52         67.3755
   554.66         67.6928
   554.80         67.9649
   554.94         68.1867
   555.08         68.3574
   555.22         68.4759
   555.36         68.5372
   555.50         68.5344
   555.64         68.4592
   555.78         68.3052
   555.92         68.0762
   556.06         67.7888
   556.20         67.4696
   556.34         67.1474
   556.48         66.8463
   556.62         66.5849
   556.76         66.3774
   556.90         66.2356
   557.04         66.1694
   557.18         66.1796
   557.32         66.2521
   557.46         66.3589
   557.60         66.4617
   557.74         66.5205
   557.88         66.5048
   558.02         66.3978
   558.16         66.2002
   558.30         65.9323
   558.44         65.6297
   558.58         65.3347
   558.72         65.0862
   558.86         64.9134
   559.00         64.8308
   559.14         64.8417
   559.28         64.9457
   559.42         65.1411
   559.56         65.4222
   559.70         65.7755
   559.84         66.1780
   559.98         66.6020
   560.12         67.0190
   560.26         67.3984
   560.40         67.7111
   560.54         67.9364
   560.68         68.0677
   560.82         68.1112
   560.96         68.0813
   561.10         67.9912
   561.24         67.8479
   561.38         67.6563
   561.52         67.4279
   561.66         67.1853
   561.80         66.9642
   561.94         66.8029
   562.08         66.7268
   562.22         66.7436
   562.36         66.8442
   562.50         67.0031
   562.64         67.1848
   562.78         67.3526
   562.92         67.4790
   563.06         67.5514
   563.20         67.5725
   563.34         67.5524
   563.48         67.5005
   563.62         67.4237
   563.76         67.3291
   563.90         67.2248
   564.04         67.1259
   564.18         67.0514
   564.32         67.0111
   564.46         67.0013
   564.60         67.0040
   564.74         66.9888
   564.88         66.9282
   565.02         66.8055
   565.16         66.6188
   565.30         66.3845
   565.44         66.1327
   565.58         65.8953
   565.72         65.6970
   565.86         65.5566
   566.00         65.4913
   566.14         65.5180
   566.28         65.6482
   566.42         65.8831
   566.56         66.2119
   566.70         66.6149
   566.84         67.0600
   566.98         67.5063
   567.12         67.9191
   567.26         68.2713
   567.40         68.5447
   567.54         68.7323
   567.68         68.8336
   567.82         68.8534
   567.96         68.8033
   568.10         68.6990
   568.24         68.5579
   568.38         68.4020
   568.52         68.2555
   568.66         68.1371
   568.80         68.0526
   568.94         67.9938
   569.08         67.9423
   569.22         67.8759
   569.36         67.7744
   569.50         67.6200
   569.64         67.4021
   569.78         67.1185
   569.92         66.7745
   570.06         66.3858
   570.20         65.9828
   570.34         65.6105
   570.48         65.3192
   570.62         65.1492
   570.76         65.1247
   570.90         65.2537
   571.04         65.5322
   571.18         65.9452
   571.32         66.4645
   571.46         67.0518
   571.60         67.6635
   571.74         68.2561
   571.88         68.7895
   572.02         69.2327
   572.16         69.5696
   572.30         69.8012
   572.44         69.9361
   572.58         69.9891
   572.72         69.9811
   572.86         69.9357
   573.00         69.8749
   573.14         69.8110
   573.28         69.7496
   573.42         69.6964
   573.56         69.6542
   573.70         69.6205
   573.84         69.5878
   573.98         69.5420
   574.12         69.4647
   574.26         69.3419
   574.40         69.1728
   574.54         68.9707
   574.68         68.7563
   574.82         68.5502
   574.96         68.3623
   575.10         68.1959
   575.24         68.0633
   575.38         67.9864
   575.52         67.9858
   575.66         68.0721
   575.80         68.2402
   575.94         68.4766
   576.08         68.7598
   576.22         69.0616
   576.36         69.3553
   576.50         69.6156
   576.64         69.8131
   576.78         69.9136
   576.92         69.8857
   577.06         69.7083
   577.20         69.3737
   577.34         68.8890
   577.48         68.2806
   577.62         67.5940
   577.76         66.8915
   577.90         66.2368
   578.04         65.6817
   578.18         65.2648
   578.32         65.0097
   578.46         64.9262
   578.60         65.0111
   578.74         65.2477
   578.88         65.6105
   579.02         66.0664
   579.16         66.5723
   579.30         67.0768
   579.44         67.5339
   579.58         67.9200
   579.72         68.2355
   579.86         68.4937
   580.00         68.7088
   580.14         68.8910
   580.28         69.0463
   580.42         69.1765
   580.56         69.2843
   580.70         69.3842
   580.84         69.4962
   580.98         69.6350
   581.12         69.8068
   581.26         70.0130
   581.40         70.2527
   581.54         70.5191
   581.68         70.7982
   581.82         71.0719
   581.96         71.3232
   582.10         71.5427
   582.24         71.7253
   582.38         71.8654
   582.52         71.9610
   582.66         72.0162
   582.80         72.0401
   582.94         72.0469
   583.08         72.0528
   583.22         72.0714
   583.36         72.1087
   583.50         72.1596
   583.64         72.2133
   583.78         72.2596
   583.92         72.2915
   584.06         72.3026
   584.20         72.2852
   584.34         72.2304
   584.48         72.1290
   584.62         71.9748
   584.76         71.7687
   584.90         71.5219
   585.04         71.2546
   585.18         70.9904
   585.32         70.7508
   585.46         70.5509
   585.60         70.4037
   585.74         70.3235
   585.88         70.3202
   586.02         70.3974
   586.16         70.5525
   586.30         70.7749
   586.44         71.0433
   586.58         71.3305
   586.72         71.6083
   586.86         71.8493
   587.00         72.0293
   587.14         72.1311
   587.28         72.1486
   587.42         72.0821
   587.56         71.9193
   587.70         71.6177
   587.84         71.1173
   587.98         70.3782
   588.12         69.3979
   588.26         68.1969
   588.40         66.8057
   588.54         65.2727
   588.68         63.6795
   588.82         62.1359
   588.96         60.7618
   589.10         59.6711
   589.24         58.9620
   589.38         58.7010
   589.52         58.9119
   589.66         59.5745
   589.80         60.6269
   589.94         61.9718
   590.08         63.4831
   590.22         65.0180
   590.36         66.4444
   590.50         67.6756
   590.64         68.6752
   590.78         69.4298
   590.92         69.9339
   591.06         70.2058
   591.20         70.2992
   591.34         70.2842
   591.48         70.2213
   591.62         70.1534
   591.76         70.1053
   591.90         70.0889
   592.04         70.1071
   592.18         70.1546
   592.32         70.2200
   592.46         70.2896
   592.60         70.3506
   592.74         70.3928
   592.88         70.4079
   593.02         70.3905
   593.16         70.3427
   593.30         70.2686
   593.44         70.1708
   593.58         70.0480
   593.72         69.8972
   593.86         69.7182
   594.00         69.5072
   594.14         69.2591
   594.28         68.9726
   594.42         68.6528
   594.56         68.3166
   594.70         67.9920
   594.84         67.7109
   594.98         67.5050
   595.12         67.3994
   595.26         67.4058
   595.40         67.5245
   595.54         67.7479
   595.68         68.0657
   595.82         68.4670
   595.96         68.9316
   596.10         69.4288
   596.24         69.9230
   596.38         70.3769
   596.52         70.7555
   596.66         71.0321
   596.80         71.1982
   596.94         71.2575
   597.08         71.2168
   597.22         71.0864
   597.36         70.8814
   597.50         70.6183
   597.64         70.3134
   597.78         69.9813
   597.92         69.6382
   598.06         69.3074
   598.20         69.0160
   598.34         68.7844
   598.48         68.6143
   598.62         68.4904
   598.76         68.3960
   598.90         68.3189
   599.04         68.2478
   599.18         68.1735
   599.32         68.0932
   599.46         68.0036
   599.60         67.8963
   599.74         67.7642
   599.88         67.6109
   600.02         67.4469
   600.16         67.2817
   600.30         67.1236
   600.44         66.9801
   600.58         66.8561
   600.72         66.7520
   600.86         66.6624
   601.00         66.5781
   601.14         66.4926
   601.28         66.4084
   601.42         66.3346
   601.56         66.2795
   601.70         66.2494
   601.84         66.2505
   601.98         66.2879
   602.12         66.3621
   602.26         66.4726
   602.40         66.6191
   602.54         66.7955
   602.68         66.9870
   602.82         67.1730
   602.96         67.3291
   603.10         67.4340
   603.24         67.4763
   603.38         67.4584
   603.52         67.3962
   603.66         67.3133
   603.80         67.2374
   603.94         67.1942
   604.08         67.1982
   604.22         67.2546
   604.36         67.3605
   604.50         67.5044
   604.64         67.6710
   604.78         67.8468
   604.92         68.0191
   605.06         68.1737
   605.20         68.2891
   605.34         68.3418
   605.48         68.3198
   605.62         68.2324
   605.76         68.1085
   605.90         67.9853
   606.04         67.8958
   606.18         67.8654
   606.32         67.9084
   606.46         68.0257
   606.60         68.2005
   606.74         68.4008
   606.88         68.5907
   607.02         68.7344
   607.16         68.8005
   607.30         68.7674
   607.44         68.6238
   607.58         68.3694
   607.72         68.0154
   607.86         67.5816
   608.00         67.0953
   608.14         66.5899
   608.28         66.0998
   608.42         65.6569
   608.56         65.2869
   608.70         65.0033
   608.84         64.8050
   608.98         64.6775
   609.12         64.5983
   609.26         64.5490
   609.40         64.5251
   609.54         64.5323
   609.68         64.5821
   609.82         64.6876
   609.96         64.8559
   610.10         65.0858
   610.24         65.3680
   610.38         65.6866
   610.52         66.0233
   610.66         66.3592
   610.80         66.6745
   610.94         66.9494
   611.08         67.1637
   611.22         67.2973
   611.36         67.3365
   611.50         67.2774
   611.64         67.1249
   611.78         66.8974
   611.92         66.6299
   612.06         66.3617
   612.20         66.1194
   612.34         65.9109
   612.48         65.7204
   612.62         65.5188
   612.76         65.2881
   612.90         65.0266
   613.04         64.7415
   613.18         64.4473
   613.32         64.1641
   613.46         63.9172
   613.60         63.7336
   613.74         63.6368
   613.88         63.6402
   614.02         63.7430
   614.16         63.9335
   614.30         64.1952
   614.44         64.5099
   614.58         64.8543
   614.72         65.1937
   614.86         65.4836
   615.00         65.6770
   615.14         65.7394
   615.28         65.6660
   615.42         65.4855
   615.56         65.2371
   615.70         64.9493
   615.84         64.6406
   615.98         64.3259
   616.12         64.0209
   616.26         63.7421
   616.40         63.5071
   616.54         63.3327
   616.68         63.2353
   616.82         63.2301
   616.96         63.3244
   617.10         63.5159
   617.24         63.7922
   617.38         64.1303
   617.52         64.4980
   617.66         64.8603
   617.80         65.1872
   617.94         65.4543
   618.08         65.6398
   618.22         65.7250
   618.36         65.7011
   618.50         65.5815
   618.64         65.3988
   618.78         65.1900
   618.92         64.9871
   619.06         64.8232
   619.20         64.7331
   619.34         64.7462
   619.48         64.8798
   619.62         65.1353
   619.76         65.4961
   619.90         65.9265
   620.04         66.3753
   620.18         66.7815
   620.32         67.0863
   620.46         67.2447
   620.60         67.2328
   620.74         67.0506
   620.88         66.7190
   621.02         66.2708
   621.16         65.7476
   621.30         65.1992
   621.44         64.6801
   621.58         64.2421
   621.72         63.9232
   621.86         63.7308
   622.00         63.6434
   622.14         63.6329
   622.28         63.6746
   622.42         63.7480
   622.56         63.8347
   622.70         63.9123
   622.84         63.9607
   622.98         63.9721
   623.12         63.9488
   623.26         63.8948
   623.40         63.8112
   623.54         63.7011
   623.68         63.5779
   623.82         63.4605
   623.96         63.3604
   624.10         63.2738
   624.24         63.1859
   624.38         63.0786
   624.52         62.9371
   624.66         62.7617
   624.80         62.5696
   624.94         62.3819
   625.08         62.2150
   625.22         62.0791
   625.36         61.9803
   625.50         61.9277
   625.64         61.9299
   625.78         61.9871
   625.92         62.0931
   626.06         62.2446
   626.20         62.4419
   626.34         62.6780
   626.48         62.9287
   626.62         63.1545
   626.76         63.3137
   626.90         63.3751
   627.04         63.3248
   627.18         63.1691
   627.32         62.9361
   627.46         62.6723
   627.60         62.4330
   627.74         62.2680
   627.88         62.2089
   628.02         62.2667
   628.16         62.4369
   628.30         62.7052
   628.44         63.0494
   628.58         63.4369
   628.72         63.8290
   628.86         64.1835
   629.00         64.4572
   629.14         64.6154
   629.28         64.6434
   629.42         64.5524
   629.56         64.3784
   629.70         64.1721
   629.84         63.9817
   629.98         63.8435
   630.12         63.7797
   630.26         63.7913
   630.40         63.8575
   630.54         63.9461
   630.68         64.0259
   630.82         64.0720
   630.96         64.0711
   631.10         64.0224
   631.24         63.9357
   631.38         63.8310
   631.52         63.7317
   631.66         63.6588
   631.80         63.6347
   631.94         63.6804
   632.08         63.8096
   632.22         64.0230
   632.36         64.3014
   632.50         64.6071
   632.64         64.8982
   632.78         65.1431
   632.92         65.3236
   633.06         65.4309
   633.20         65.4590
   633.34         65.4088
   633.48         65.2970
   633.62         65.1539
   633.76         65.0117
   633.90         64.8986
   634.04         64.8366
   634.18         64.8372
   634.32         64.9021
   634.46         65.0227
   634.60         65.1757
   634.74         65.3264
   634.88         65.4345
   635.02         65.4607
   635.16         65.3782
   635.30         65.1841
   635.44         64.8972
   635.58         64.5480
   635.72         64.1722
   635.86         63.8109
   636.00         63.5125
   636.14         63.3237
   636.28         63.2759
   636.42         63.3796
   636.56         63.6229
   636.70         63.9713
   636.84         64.3775
   636.98         64.7958
   637.12         65.1872
   637.26         65.5216
   637.40         65.7821
   637.54         65.9675
   637.68         66.0880
   637.82         66.1638
   637.96         66.2184
   638.10         66.2651
   638.24         66.3052
   638.38         66.3377
   638.52         66.3636
   638.66         66.3808
   638.80         66.3806
   638.94         66.3520
   639.08         66.2915
   639.22         66.2045
   639.36         66.1038
   639.50         66.0056
   639.64         65.9236
   639.78         65.8656
   639.92         65.8333
   640.06         65.8228
   640.20         65.8276
   640.34         65.8429
   640.48         65.8663
   640.62         65.8923
   640.76         65.9095
   640.90         65.9065
   641.04         65.8826
   641.18         65.8465
   641.32         65.8088
   641.46         65.7835
   641.60         65.7934
   641.74         65.8573
   641.88         65.9727
   642.02         66.1182
   642.16         66.2685
   642.30         66.4085
   642.44         66.5371
   642.58         66.6556
   642.72         66.7602
   642.86         66.8478
   643.00         66.9190
   643.14         66.9740
   643.28         67.0125
   643.42         67.0390
   643.56         67.0659
   643.70         67.1002
   643.84         67.1306
   643.98         67.1346
   644.12         67.0953
   644.26         67.0032
   644.40         66.8496
   644.54         66.6329
   644.68         66.3704
   644.82         66.0949
   644.96         65.8379
   645.10         65.6123
   645.24         65.4142
   645.38         65.2454
   645.52         65.1234
   645.66         65.0688
   645.80         65.0881
   645.94         65.1706
   646.08         65.2968
   646.22         65.4466
   646.36         65.6057
   646.50         65.7756
   646.64         65.9727
   646.78         66.2090
   646.92         66.4776
   647.06         66.7556
   647.20         67.0178
   647.34         67.2448
   647.48         67.4213
   647.62         67.5372
   647.76         67.5903
   647.90         67.5884
   648.04         67.5431
   648.18         67.4547
   648.32         67.3008
   648.46         67.0481
   648.60         66.6780
   648.74         66.1990
   648.88         65.6449
   649.02         65.0663
   649.16         64.5197
   649.30         64.0594
   649.44         63.7309
   649.58         63.5673
   649.72         63.5908
   649.86         63.8145
   650.00         64.2377
   650.14         64.8404
   650.28         65.5799
   650.42         66.3932
   650.56         67.2067
   650.70         67.9487
   650.84         68.5637
   650.98         69.0250
   651.12         69.3417
   651.26         69.5491
   651.40         69.6898
   651.54         69.8019
   651.68         69.9127
   651.82         70.0349
   651.96         70.1675
   652.10         70.3028
   652.24         70.4325
   652.38         70.5547
   652.52         70.6719
   652.66         70.7848
   652.80         70.8901
   652.94         70.9852
   653.08         71.0699
   653.22         71.1448
   653.36         71.2111
   653.50         71.2709
   653.64         71.3243
   653.78         71.3651
   653.92         71.3832
   654.06         71.3650
   654.20         71.2972
   654.34         71.1708
   654.48         70.9803
   654.62         70.7255
   654.76         70.4103
   654.90         70.0282
   655.04         69.5515
   655.18         68.9390
   655.32         68.1743
   655.46         67.2939
   655.60         66.3691
   655.74         65.4778
   655.88         64.6865
   656.02         64.0502
   656.16         63.6132
   656.30         63.4014
   656.44         63.4190
   656.58         63.6542
   656.72         64.0818
   656.86         64.6651
   657.00         65.3564
   657.14         66.0975
   657.28         66.8255
   657.42         67.4752
   657.56         67.9924
   657.70         68.3595
   657.84         68.6040
   657.98         68.7764
   658.12         68.9079
   658.26         68.9933
   658.40         69.0139
   658.54         68.9593
   658.68         68.8360
   658.82         68.6667
   658.96         68.4819
   659.10         68.3141
   659.24         68.1885
   659.38         68.1140
   659.52         68.0831
   659.66         68.0783
   659.80         68.0790
   659.94         68.0677
   660.08         68.0333
   660.22         67.9728
   660.36         67.8900
   660.50         67.7905
   660.64         67.6805
   660.78         67.5732
   660.92         67.4909
   661.06         67.4566
   661.20         67.4798
   661.34         67.5561
   661.48         67.6745
   661.62         67.8173
   661.76         67.9613
   661.90         68.0826
   662.04         68.1622
   662.18         68.1881
   662.32         68.1575
   662.46         68.0813
   662.60         67.9835
   662.74         67.8913
   662.88         67.8239
   663.02         67.7890
   663.16         67.7802
   663.30         67.7829
   663.44         67.7850
   663.58         67.7816
   663.72         67.7720
   663.86         67.7610
   664.00         67.7579
   664.14         67.7694
   664.28         67.7960
   664.42         67.8353
   664.56         67.8812
   664.70         67.9272
   664.84         67.9671
   664.98         67.9937
   665.12         67.9972
   665.26         67.9627
   665.40         67.8721
   665.54         67.7144
   665.68         67.4922
   665.82         67.2237
   665.96         66.9412
   666.10         66.6800
   666.24         66.4678
   666.38         66.3214
   666.52         66.2430
   666.66         66.2206
   666.80         66.2378
   666.94         66.2856
   667.08         66.3615
   667.22         66.4621
   667.36         66.5823
   667.50         66.7143
   667.64         66.8491
   667.78         66.9824
   667.92         67.1157
   668.06         67.2552
   668.20         67.4062
   668.34         67.5641
   668.48         67.7161
   668.62         67.8464
   668.76         67.9394
   668.90         67.9841
   669.04         67.9766
   669.18         67.9208
   669.32         67.8286
   669.46         67.7206
   669.60         67.6178
   669.74         67.5313
   669.88         67.4611
   670.02         67.4008
   670.16         67.3423
   670.30         67.2768
   670.44         67.1936
   670.58         67.0793
   670.72         66.9257
   670.86         66.7359
   671.00         66.5235
   671.14         66.3122
   671.28         66.1322
   671.42         66.0102
   671.56         65.9614
   671.70         65.9908
   671.84         66.0962
   671.98         66.2696
   672.12         66.4962
   672.26         66.7539
   672.40         67.0158
   672.54         67.2531
   672.68         67.4397
   672.82         67.5540
   672.96         67.5808
   673.10         67.5172
   673.24         67.3777
   673.38         67.1911
   673.52         66.9875
   673.66         66.7880
   673.80         66.6063
   673.94         66.4500
   674.08         66.3208
   674.22         66.2186
   674.36         66.1457
   674.50         66.1094
   674.64         66.1163
   674.78         66.1703
   674.92         66.2762
   675.06         66.4368
   675.20         66.6499
   675.34         66.9091
   675.48         67.2007
   675.62         67.5036
   675.76         67.7948
   675.90         68.0511
   676.04         68.2487
   676.18         68.3668
   676.32         68.3974
   676.46         68.3479
   676.60         68.2353
   676.74         68.0835
   676.88         67.9208
   677.02         67.7770
   677.16         67.6767
   677.30         67.6316
   677.44         67.6406
   677.58         67.6946
   677.72         67.7782
   677.86         67.8763
   678.00         67.9738
   678.14         68.0511
   678.28         68.0912
   678.42         68.0861
   678.56         68.0379
   678.70         67.9562
   678.84         67.8552
   678.98         67.7487
   679.12         67.6450
   679.26         67.5448
   679.40         67.4453
   679.54         67.3465
   679.68         67.2537
   679.82         67.1748
   679.96         67.1167
   680.10         67.0842
   680.24         67.0784
   680.38         67.0953
   680.52         67.1291
   680.66         67.1705
   680.80         67.2085
   680.94         67.2368
   681.08         67.2548
   681.22         67.2660
   681.36         67.2725
   681.50         67.2706
   681.64         67.2555
   681.78         67.2266
   681.92         67.1886
   682.06         67.1500
   682.20         67.1213
   682.34         67.1074
   682.48         67.1052
   682.62         67.1046
   682.76         67.0903
   682.90         67.0415
   683.04         66.9364
   683.18         66.7599
   683.32         66.5057
   683.46         66.1774
   683.60         65.7914
   683.74         65.3763
   683.88         64.9667
   684.02         64.5962
   684.16         64.2942
   684.30         64.0837
   684.44         63.9757
   684.58         63.9667
   684.72         64.0385
   684.86         64.1608
   685.00         64.2968
   685.14         64.4111
   685.28         64.4759
   685.42         64.4684
   685.56         64.3572
   685.70         64.1001
   685.84         63.6593
   685.98         63.0128
   686.12         62.1565
   686.26         61.1058
   686.40         59.8968
   686.54         58.5847
   686.68         57.2411
   686.82         55.9496
   686.96         54.7982
   687.10         53.8695
   687.24         53.2294
   687.38         52.9161
   687.52         52.9352
   687.66         53.2614
   687.80         53.8418
   687.94         54.6026
   688.08         55.4492
   688.22         56.2780
   688.36         57.0108
   688.50         57.6105
   688.64         58.0716
   688.78         58.4047
   688.92         58.6291
   689.06         58.7724
   689.20         58.8673
   689.34         58.9450
   689.48         59.0317
   689.62         59.1461
   689.76         59.2974
   689.90         59.4855
   690.04         59.7034
   690.18         59.9393
   690.32         60.1802
   690.46         60.4156
   690.60         60.6383
   690.74         60.8423
   690.88         61.0302
   691.02         61.2152
   691.16         61.4084
   691.30         61.6120
   691.44         61.8219
   691.58         62.0349
   691.72         62.2515
   691.86         62.4710
   692.00         62.6894
   692.14         62.9009
   692.28         63.0967
   692.42         63.2651
   692.56         63.3953
   692.70         63.4808
   692.84         63.5215
   692.98         63.5250
   693.12         63.5040
   693.26         63.4679
   693.40         63.4190
   693.54         63.3573
   693.68         63.2807
   693.82         63.1865
   693.96         63.0754
   694.10         62.9540
   694.24         62.8340
   694.38         62.7266
   694.52         62.6401
   694.66         62.5804
   694.80         62.5490
   694.94         62.5443
   695.08         62.5648
   695.22         62.6086
   695.36         62.6716
   695.50         62.7480
   695.64         62.8337
   695.78         62.9280
   695.92         63.0309
   696.06         63.1467
   696.20         63.2827
   696.34         63.4396
   696.48         63.6054
   696.62         63.7537
   696.76         63.8569
   696.90         63.8988
   697.04         63.8753
   697.18         63.7924
   697.32         63.6614
   697.46         63.4964
   697.60         63.3121
   697.74         63.1248
   697.88         62.9524
   698.02         62.8106
   698.16         62.7113
   698.30         62.6633
   698.44         62.6680
   698.58         62.7175
   698.72         62.7933
   698.86         62.8686
   699.00         62.9163
   699.14         62.9170
   699.28         62.8635
   699.42         62.7647
   699.56         62.6421
   699.70         62.5162
   699.84         62.3990
   699.98         62.2983
   700.12         62.2201
   700.26         62.1626
   700.40         62.1154
   700.54         62.0683
   700.68         62.0184
   700.82         61.9700
   700.96         61.9297
   701.10         61.8986
   701.24         61.8711
   701.38         61.8425
   701.52         61.8188
   701.66         61.8168
   701.80         61.8528
   701.94         61.9374
   702.08         62.0782
   702.22         62.2792
   702.36         62.5336
   702.50         62.8230
   702.64         63.1234
   702.78         63.4112
   702.92         63.6742
   703.06         63.9202
   703.20         64.1681
   703.34         64.4308
   703.48         64.7097
   703.62         65.0006
   703.76         65.2944
   703.90         65.5789
   704.04         65.8376
   704.18         66.0516
   704.32         66.2080
   704.46         66.3018
   704.60         66.3333
   704.74         66.3055
   704.88         66.2264
   705.02         66.1118
   705.16         65.9797
   705.30         65.8468
   705.44         65.7267
   705.58         65.6235
   705.72         65.5315
   705.86         65.4417
   706.00         65.3482
   706.14         65.2539
   706.28         65.1625
   706.42         65.0741
   706.56         64.9941
   706.70         64.9365
   706.84         64.9235
   706.98         64.9746
   707.12         65.0842
   707.26         65.2212
   707.40         65.3568
   707.54         65.4768
   707.68         65.5728
   707.82         65.6331
   707.96         65.6442
   708.10         65.5986
   708.24         65.5029
   708.38         65.3794
   708.52         65.2526
   708.66         65.1415
   708.80         65.0610
   708.94         65.0176
   709.08         65.0092
   709.22         65.0296
   709.36         65.0655
   709.50         65.0957
   709.64         65.0955
   709.78         65.0460
   709.92         64.9432
   710.06         64.8012
   710.20         64.6361
   710.34         64.4554
   710.48         64.2630
   710.62         64.0632
   710.76         63.8656
   710.90         63.6857
   711.04         63.5397
   711.18         63.4404
   711.32         63.3965
   711.46         63.4072
   711.60         63.4605
   711.74         63.5391
   711.88         63.6262
   712.02         63.7077
   712.16         63.7731
   712.30         63.8204
   712.44         63.8545
   712.58         63.8803
   712.72         63.8999
   712.86         63.9104
   713.00         63.9059
   713.14         63.8838
   713.28         63.8450
   713.42         63.7933
   713.56         63.7323
   713.70         63.6645
   713.84         63.5915
   713.98         63.5150
   714.12         63.4387
   714.26         63.3695
   714.40         63.3193
   714.54         63.3079
   714.68         63.3552
   714.82         63.4681
   714.96         63.6431
   715.10         63.8669
   715.24         64.1133
   715.38         64.3516
   715.52         64.5581
   715.66         64.7186
   715.80         64.8214
   715.94         64.8549
   716.08         64.8110
   716.22         64.6874
   716.36         64.4870
   716.50         64.2209
   716.64         63.9074
   716.78         63.5630
   716.92         63.1962
   717.06         62.8197
   717.20         62.4514
   717.34         62.0937
   717.48         61.7321
   717.62         61.3531
   717.76         60.9512
   717.90         60.5292
   718.04         60.0967
   718.18         59.6686
   718.32         59.2655
   718.46         58.9106
   718.60         58.6255
   718.74         58.4224
   718.88         58.3041
   719.02         58.2715
   719.16         58.3284
   719.30         58.4689
   719.44         58.6681
   719.58         58.8933
   719.72         59.1234
   719.86         59.3478
   720.00         59.5608
   720.14         59.7710
   720.28         60.0011
   720.42         60.2761
   720.56         60.6141
   720.70         61.0228
   720.84         61.5020
   720.98         62.0400
   721.12         62.6048
   721.26         63.1525
   721.40         63.6482
   721.54         64.0714
   721.68         64.4081
   721.82         64.6463
   721.96         64.7826
   722.10         64.8262
   722.24         64.7946
   722.38         64.7107
   722.52         64.5989
   722.66         64.4794
   722.80         64.3604
   722.94         64.2435
   723.08         64.1313
   723.22         64.0214
   723.36         63.9012
   723.50         63.7576
   723.64         63.5896
   723.78         63.4021
   723.92         63.1975
   724.06         62.9719
   724.20         62.7117
   724.34         62.4066
   724.48         62.0655
   724.62         61.7088
   724.76         61.3512
   724.90         61.0001
   725.04         60.6654
   725.18         60.3594
   725.32         60.0894
   725.46         59.8591
   725.60         59.6763
   725.74         59.5509
   725.88         59.4875
   726.02         59.4884
   726.16         59.5548
   726.30         59.6804
   726.44         59.8444
   726.58         60.0215
   726.72         60.1981
   726.86         60.3727
   727.00         60.5446
   727.14         60.7011
   727.28         60.8155
   727.42         60.8612
   727.56         60.8236
   727.70         60.6976
   727.84         60.4873
   727.98         60.2051
   728.12         59.8665
   728.26         59.4890
   728.40         59.0938
   728.54         58.7079
   728.68         58.3603
   728.82         58.0759
   728.96         57.8693
   729.10         57.7441
   729.24         57.6976
   729.38         57.7243
   729.52         57.8134
   729.66         57.9450
   729.80         58.0957
   729.94         58.2476
   730.08         58.3878
   730.22         58.5024
   730.36         58.5766
   730.50         58.6019
   730.64         58.5784
   730.78         58.5137
   730.92         58.4247
   731.06         58.3328
   731.20         58.2563
   731.34         58.2013
   731.48         58.1633
   731.62         58.1382
   731.76         58.1286
   731.90         58.1417
   732.04         58.1816
   732.18         58.2425
   732.32         58.3111
   732.46         58.3791
   732.60         58.4493
   732.74         58.5311
   732.88         58.6312
   733.02         58.7486
   733.16         58.8788
   733.30         59.0144
   733.44         59.1448
   733.58         59.2596
   733.72         59.3458
   733.86         59.3831
   734.00         59.3511
   734.14         59.2389
   734.28         59.0453
   734.42         58.7733
   734.56         58.4303
   734.70         58.0344
   734.84         57.6164
   734.98         57.2135
   735.12         56.8591
   735.26         56.5737
   735.40         56.3609
   735.54         56.2106
   735.68         56.1125
   735.82         56.0620
   735.96         56.0557
   736.10         56.0926
   736.24         56.1740
   736.38         56.2960
   736.52         56.4498
   736.66         56.6287
   736.80         56.8270
   736.94         57.0360
   737.08         57.2422
   737.22         57.4338
   737.36         57.6001
   737.50         57.7254
   737.64         57.7894
   737.78         57.7765
   737.92         57.6868
   738.06         57.5355
   738.20         57.3475
   738.34         57.1528
   738.48         56.9782
   738.62         56.8426
   738.76         56.7591
   738.90         56.7363
   739.04         56.7795
   739.18         56.8949
   739.32         57.0843
   739.46         57.3394
   739.60         57.6370
   739.74         57.9432
   739.88         58.2262
   740.02         58.4582
   740.16         58.6145
   740.30         58.6801
   740.44         58.6525
   740.58         58.5395
   740.72         58.3547
   740.86         58.1174
   741.00         57.8517
   741.14         57.5837
   741.28         57.3365
   741.42         57.1288
   741.56         56.9767
   741.70         56.8908
   741.84         56.8675
   741.98         56.8886
   742.12         56.9332
   742.26         56.9830
   742.40         57.0274
   742.54         57.0633
   742.68         57.0882
   742.82         57.1005
   742.96         57.1005
   743.10         57.0882
   743.24         57.0633
   743.38         57.0274
   743.52         56.9830
   743.66         56.9332
   743.80         56.8886
   743.94         56.8675
   744.08         56.8908
   744.22         56.9767
