# File HD10032
# Wavelength [nm]    Normalized Amplitude
   349.70         12.1575
   349.84         12.1567
   349.98         12.1730
   350.12         12.2012
   350.26         12.2336
   350.40         12.2642
   350.54         12.2918
   350.68         12.3178
   350.82         12.3413
   350.96         12.3585
   351.10         12.3649
   351.24         12.3585
   351.38         12.3413
   351.52         12.3178
   351.66         12.2918
   351.80         12.2642
   351.94         12.2336
   352.08         12.2012
   352.22         12.1730
   352.36         12.1567
   352.50         12.1575
   352.64         12.1783
   352.78         12.2211
   352.92         12.2869
   353.06         12.3738
   353.20         12.4771
   353.34         12.5878
   353.48         12.6972
   353.62         12.7998
   353.76         12.8936
   353.90         12.9780
   354.04         13.0520
   354.18         13.1126
   354.32         13.1562
   354.46         13.1824
   354.60         13.1930
   354.74         13.1905
   354.88         13.1777
   355.02         13.1567
   355.16         13.1278
   355.30         13.0897
   355.44         13.0408
   355.58         12.9775
   355.72         12.8961
   355.86         12.7943
   356.00         12.6727
   356.14         12.5348
   356.28         12.3856
   356.42         12.2314
   356.56         12.0805
   356.70         11.9424
   356.84         11.8258
   356.98         11.7380
   357.12         11.6818
   357.26         11.6531
   357.40         11.6447
   357.54         11.6505
   357.68         11.6636
   357.82         11.6741
   357.96         11.6733
   358.10         11.6584
   358.24         11.6319
   358.38         11.5999
   358.52         11.5700
   358.66         11.5501
   358.80         11.5489
   358.94         11.5745
   359.08         11.6304
   359.22         11.7142
   359.36         11.8190
   359.50         11.9366
   359.64         12.0586
   359.78         12.1769
   359.92         12.2846
   360.06         12.3774
   360.20         12.4521
   360.34         12.5055
   360.48         12.5357
   360.62         12.5434
   360.76         12.5305
   360.90         12.4994
   361.04         12.4538
   361.18         12.4003
   361.32         12.3482
   361.46         12.3074
   361.60         12.2848
   361.74         12.2829
   361.88         12.3003
   362.02         12.3336
   362.16         12.3774
   362.30         12.4249
   362.44         12.4699
   362.58         12.5079
   362.72         12.5366
   362.86         12.5558
   363.00         12.5668
   363.14         12.5705
   363.28         12.5672
   363.42         12.5567
   363.56         12.5393
   363.70         12.5157
   363.84         12.4869
   363.98         12.4552
   364.12         12.4235
   364.26         12.3958
   364.40         12.3764
   364.54         12.3697
   364.68         12.3802
   364.82         12.4129
   364.96         12.4731
   365.10         12.5641
   365.24         12.6835
   365.38         12.8241
   365.52         12.9756
   365.66         13.1249
   365.80         13.2595
   365.94         13.3695
   366.08         13.4485
   366.22         13.4948
   366.36         13.5119
   366.50         13.5057
   366.64         13.4818
   366.78         13.4436
   366.92         13.3933
   367.06         13.3326
   367.20         13.2636
   367.34         13.1882
   367.48         13.1084
   367.62         13.0264
   367.76         12.9447
   367.90         12.8670
   368.04         12.7973
   368.18         12.7399
   368.32         12.6990
   368.46         12.6799
   368.60         12.6868
   368.74         12.7226
   368.88         12.7891
   369.02         12.8847
   369.16         13.0007
   369.30         13.1234
   369.44         13.2381
   369.58         13.3319
   369.72         13.3950
   369.86         13.4208
   370.00         13.4062
   370.14         13.3569
   370.28         13.2904
   370.42         13.2297
   370.56         13.1960
   370.70         13.2023
   370.84         13.2513
   370.98         13.3371
   371.12         13.4489
   371.26         13.5756
   371.40         13.7084
   371.54         13.8406
   371.68         13.9662
   371.82         14.0797
   371.96         14.1761
   372.10         14.2494
   372.24         14.2899
   372.38         14.2875
   372.52         14.2389
   372.66         14.1528
   372.80         14.0488
   372.94         13.9497
   373.08         13.8739
   373.22         13.8325
   373.36         13.8275
   373.50         13.8542
   373.64         13.9046
   373.78         13.9686
   373.92         14.0360
   374.06         14.0993
   374.20         14.1560
   374.34         14.2071
   374.48         14.2548
   374.62         14.3004
   374.76         14.3470
   374.90         14.4046
   375.04         14.4927
   375.18         14.6332
   375.32         14.8376
   375.46         15.1010
   375.60         15.4015
   375.74         15.7030
   375.88         15.9615
   376.02         16.1381
   376.16         16.2111
   376.30         16.1808
   376.44         16.0702
   376.58         15.9238
   376.72         15.7967
   376.86         15.7386
   377.00         15.7839
   377.14         15.9517
   377.28         16.2483
   377.42         16.6664
   377.56         17.1847
   377.70         17.7682
   377.84         18.3716
   377.98         18.9451
   378.12         19.4394
   378.26         19.8081
   378.40         20.0122
   378.54         20.0267
   378.68         19.8470
   378.82         19.4921
   378.96         19.0026
   379.10         18.4358
   379.24         17.8578
   379.38         17.3324
   379.52         16.9155
   379.66         16.6537
   379.80         16.5828
   379.94         16.7175
   380.08         17.0470
   380.22         17.5402
   380.36         18.1559
   380.50         18.8470
   380.64         19.5636
   380.78         20.2566
   380.92         20.8814
   381.06         21.4038
   381.20         21.8039
   381.34         22.0764
   381.48         22.2273
   381.62         22.2668
   381.76         22.2035
   381.90         22.0403
   382.04         21.7735
   382.18         21.3941
   382.32         20.8951
   382.46         20.2769
   382.60         19.5520
   382.74         18.7502
   382.88         17.9212
   383.02         17.1295
   383.16         16.4420
   383.30         15.9181
   383.44         15.6022
   383.58         15.5214
   383.72         15.6850
   383.86         16.0830
   384.00         16.6882
   384.14         17.4597
   384.28         18.3459
   384.42         19.2857
   384.56         20.2159
   384.70         21.0806
   384.84         21.8394
   384.98         22.4732
   385.12         22.9828
   385.26         23.3819
   385.40         23.6914
   385.54         23.9337
   385.68         24.1298
   385.82         24.2968
   385.96         24.4452
   386.10         24.5779
   386.24         24.6915
   386.38         24.7781
   386.52         24.8253
   386.66         24.8182
   386.80         24.7438
   386.94         24.5927
   387.08         24.3596
   387.22         24.0417
   387.36         23.6355
   387.50         23.1365
   387.64         22.5418
   387.78         21.8551
   387.92         21.0901
   388.06         20.2729
   388.20         19.4415
   388.34         18.6413
   388.48         17.9200
   388.62         17.3214
   388.76         16.8837
   388.90         16.6368
   389.04         16.5975
   389.18         16.7658
   389.32         17.1261
   389.46         17.6500
   389.60         18.2977
   389.74         19.0223
   389.88         19.7757
   390.02         20.5155
   390.16         21.2090
   390.30         21.8361
   390.44         22.3894
   390.58         22.8686
   390.72         23.2758
   390.86         23.6139
   391.00         23.8877
   391.14         24.1022
   391.28         24.2612
   391.42         24.3661
   391.56         24.4121
   391.70         24.3851
   391.84         24.2612
   391.98         24.0092
   392.12         23.5968
   392.26         23.0038
   392.40         22.2346
   392.54         21.3225
   392.68         20.3254
   392.82         19.3194
   392.96         18.3880
   393.10         17.6095
   393.24         17.0485
   393.38         16.7515
   393.52         16.7426
   393.66         17.0180
   393.80         17.5445
   393.94         18.2635
   394.08         19.0991
   394.22         19.9660
   394.36         20.7810
   394.50         21.4756
   394.64         22.0042
   394.78         22.3485
   394.92         22.5160
   395.06         22.5296
   395.20         22.4109
   395.34         22.1695
   395.48         21.7999
   395.62         21.2871
   395.76         20.6202
   395.90         19.8058
   396.04         18.8749
   396.18         17.8799
   396.32         16.8879
   396.46         15.9737
   396.60         15.2127
   396.74         14.6708
   396.88         14.3955
   397.02         14.4122
   397.16         14.7229
   397.30         15.3059
   397.44         16.1179
   397.58         17.0977
   397.72         18.1751
   397.86         19.2786
   398.00         20.3446
   398.14         21.3234
   398.28         22.1845
   398.42         22.9175
   398.56         23.5280
   398.70         24.0318
   398.84         24.4488
   398.98         24.7975
   399.12         25.0917
   399.26         25.3383
   399.40         25.5388
   399.54         25.6958
   399.68         25.8168
   399.82         25.9132
   399.96         25.9951
   400.10         26.0692
   400.24         26.1407
   400.38         26.2138
   400.52         26.2920
   400.66         26.3760
   400.80         26.4633
   400.94         26.5502
   401.08         26.6344
   401.22         26.7154
   401.36         26.7944
   401.50         26.8715
   401.64         26.9430
   401.78         27.0007
   401.92         27.0362
   402.06         27.0459
   402.20         27.0315
   402.34         26.9975
   402.48         26.9491
   402.62         26.8926
   402.76         26.8364
   402.90         26.7900
   403.04         26.7605
   403.18         26.7511
   403.32         26.7595
   403.46         26.7799
   403.60         26.8074
   403.74         26.8396
   403.88         26.8747
   404.02         26.9081
   404.16         26.9312
   404.30         26.9335
   404.44         26.9072
   404.58         26.8511
   404.72         26.7711
   404.86         26.6767
   405.00         26.5774
   405.14         26.4784
   405.28         26.3811
   405.42         26.2847
   405.56         26.1893
   405.70         26.0977
   405.84         26.0138
   405.98         25.9407
   406.12         25.8808
   406.26         25.8344
   406.40         25.7950
   406.54         25.7491
   406.68         25.6828
   406.82         25.5898
   406.96         25.4725
   407.10         25.3360
   407.24         25.1838
   407.38         25.0194
   407.52         24.8477
   407.66         24.6748
   407.80         24.5069
   407.94         24.3482
   408.08         24.1980
   408.22         24.0497
   408.36         23.8889
   408.50         23.6932
   408.64         23.4356
   408.78         23.0888
   408.92         22.6290
   409.06         22.0443
   409.20         21.3445
   409.34         20.5636
   409.48         19.7523
   409.62         18.9674
   409.76         18.2667
   409.90         17.7068
   410.04         17.3368
   410.18         17.1901
   410.32         17.2787
   410.46         17.5912
   410.60         18.0969
   410.74         18.7511
   410.88         19.4996
   411.02         20.2828
   411.16         21.0443
   411.30         21.7388
   411.44         22.3359
   411.58         22.8228
   411.72         23.2054
   411.86         23.5007
   412.00         23.7278
   412.14         23.9027
   412.28         24.0397
   412.42         24.1547
   412.56         24.2641
   412.70         24.3832
   412.84         24.5231
   412.98         24.6879
   413.12         24.8741
   413.26         25.0743
   413.40         25.2805
   413.54         25.4851
   413.68         25.6813
   413.82         25.8642
   413.96         26.0281
   414.10         26.1651
   414.24         26.2663
   414.38         26.3251
   414.52         26.3388
   414.66         26.3097
   414.80         26.2463
   414.94         26.1628
   415.08         26.0777
   415.22         26.0086
   415.36         25.9673
   415.50         25.9577
   415.64         25.9796
   415.78         26.0319
   415.92         26.1093
   416.06         26.1991
   416.20         26.2819
   416.34         26.3366
   416.48         26.3469
   416.62         26.3026
   416.76         26.2017
   416.90         26.0522
   417.04         25.8704
   417.18         25.6762
   417.32         25.4898
   417.46         25.3297
   417.60         25.2107
   417.74         25.1411
   417.88         25.1237
   418.02         25.1548
   418.16         25.2276
   418.30         25.3335
   418.44         25.4584
   418.58         25.5829
   418.72         25.6897
   418.86         25.7698
   419.00         25.8212
   419.14         25.8457
   419.28         25.8471
   419.42         25.8314
   419.56         25.8055
   419.70         25.7757
   419.84         25.7487
   419.98         25.7323
   420.12         25.7335
   420.26         25.7570
   420.40         25.8038
   420.54         25.8708
   420.68         25.9505
   420.82         26.0328
   420.96         26.1062
   421.10         26.1594
   421.24         26.1827
   421.38         26.1678
   421.52         26.1089
   421.66         26.0063
   421.80         25.8691
   421.94         25.7119
   422.08         25.5476
   422.22         25.3849
   422.36         25.2311
   422.50         25.0935
   422.64         24.9793
   422.78         24.8945
   422.92         24.8434
   423.06         24.8284
   423.20         24.8498
   423.34         24.9039
   423.48         24.9807
   423.62         25.0653
   423.76         25.1415
   423.90         25.1956
   424.04         25.2222
   424.18         25.2256
   424.32         25.2177
   424.46         25.2098
   424.60         25.2066
   424.74         25.2063
   424.88         25.2076
   425.02         25.2150
   425.16         25.2362
   425.30         25.2778
   425.44         25.3427
   425.58         25.4286
   425.72         25.5273
   425.86         25.6244
   426.00         25.7035
   426.14         25.7513
   426.28         25.7617
   426.42         25.7359
   426.56         25.6813
   426.70         25.6085
   426.84         25.5285
   426.98         25.4510
   427.12         25.3817
   427.26         25.3238
   427.40         25.2794
   427.54         25.2500
   427.68         25.2340
   427.82         25.2237
   427.96         25.2077
   428.10         25.1753
   428.24         25.1186
   428.38         25.0338
   428.52         24.9211
   428.66         24.7837
   428.80         24.6263
   428.94         24.4532
   429.08         24.2695
   429.22         24.0820
   429.36         23.8970
   429.50         23.7200
   429.64         23.5546
   429.78         23.4042
   429.92         23.2738
   430.06         23.1677
   430.20         23.0868
   430.34         23.0300
   430.48         22.9985
   430.62         22.9949
   430.76         23.0188
   430.90         23.0643
   431.04         23.1214
   431.18         23.1780
   431.32         23.2206
   431.46         23.2376
   431.60         23.2228
   431.74         23.1756
   431.88         23.0967
   432.02         22.9849
   432.16         22.8377
   432.30         22.6512
   432.44         22.4180
   432.58         22.1248
   432.72         21.7531
   432.86         21.2854
   433.00         20.7161
   433.14         20.0567
   433.28         19.3341
   433.42         18.5877
   433.56         17.8672
   433.70         17.2267
   433.84         16.7165
   433.98         16.3754
   434.12         16.2296
   434.26         16.2923
   434.40         16.5612
   434.54         17.0174
   434.68         17.6269
   434.82         18.3443
   434.96         19.1194
   435.10         19.9040
   435.24         20.6585
   435.38         21.3558
   435.52         21.9823
   435.66         22.5369
   435.80         23.0244
   435.94         23.4500
   436.08         23.8159
   436.22         24.1205
   436.36         24.3606
   436.50         24.5345
   436.64         24.6463
   436.78         24.7066
   436.92         24.7290
   437.06         24.7243
   437.20         24.6964
   437.34         24.6451
   437.48         24.5724
   437.62         24.4846
   437.76         24.3907
   437.90         24.2993
   438.04         24.2171
   438.18         24.1483
   438.32         24.0962
   438.46         24.0654
   438.60         24.0609
   438.74         24.0842
   438.88         24.1332
   439.02         24.2038
   439.16         24.2907
   439.30         24.3873
   439.44         24.4836
   439.58         24.5688
   439.72         24.6332
   439.86         24.6720
   440.00         24.6891
   440.14         24.6921
   440.28         24.6869
   440.42         24.6744
   440.56         24.6527
   440.70         24.6212
   440.84         24.5829
   440.98         24.5438
   441.12         24.5106
   441.26         24.4871
   441.40         24.4752
   441.54         24.4769
   441.68         24.4956
   441.82         24.5348
   441.96         24.5940
   442.10         24.6677
   442.24         24.7474
   442.38         24.8247
   442.52         24.8944
   442.66         24.9536
   442.80         24.9993
   442.94         25.0282
   443.08         25.0357
   443.22         25.0207
   443.36         24.9863
   443.50         24.9383
   443.64         24.8819
   443.78         24.8218
   443.92         24.7639
   444.06         24.7134
   444.20         24.6731
   444.34         24.6422
   444.48         24.6158
   444.62         24.5882
   444.76         24.5558
   444.90         24.5190
   445.04         24.4798
   445.18         24.4400
   445.32         24.3984
   445.46         24.3510
   445.60         24.2932
   445.74         24.2248
   445.88         24.1536
   446.02         24.0924
   446.16         24.0520
   446.30         24.0379
   446.44         24.0530
   446.58         24.0971
   446.72         24.1640
   446.86         24.2410
   447.00         24.3139
   447.14         24.3737
   447.28         24.4183
   447.42         24.4489
   447.56         24.4658
   447.70         24.4664
   447.84         24.4487
   447.98         24.4136
   448.12         24.3677
   448.26         24.3218
   448.40         24.2880
   448.54         24.2760
   448.68         24.2900
   448.82         24.3282
   448.96         24.3854
   449.10         24.4567
   449.24         24.5369
   449.38         24.6206
   449.52         24.7030
   449.66         24.7833
   449.80         24.8639
   449.94         24.9457
   450.08         25.0258
   450.22         25.0987
   450.36         25.1598
   450.50         25.2069
   450.64         25.2380
   450.78         25.2504
   450.92         25.2398
   451.06         25.2021
   451.20         25.1355
   451.34         25.0412
   451.48         24.9220
   451.62         24.7825
   451.76         24.6285
   451.90         24.4651
   452.04         24.2953
   452.18         24.1229
   452.32         23.9550
   452.46         23.8017
   452.60         23.6739
   452.74         23.5796
   452.88         23.5233
   453.02         23.5059
   453.16         23.5252
   453.30         23.5771
   453.44         23.6544
   453.58         23.7461
   453.72         23.8377
   453.86         23.9153
   454.00         23.9681
   454.14         23.9873
   454.28         23.9675
   454.42         23.9094
   454.56         23.8187
   454.70         23.7056
   454.84         23.5846
   454.98         23.4711
   455.12         23.3784
   455.26         23.3145
   455.40         23.2820
   455.54         23.2799
   455.68         23.3063
   455.82         23.3574
   455.96         23.4261
   456.10         23.5035
   456.24         23.5832
   456.38         23.6628
   456.52         23.7416
   456.66         23.8170
   456.80         23.8839
   456.94         23.9371
   457.08         23.9717
   457.22         23.9835
   457.36         23.9701
   457.50         23.9308
   457.64         23.8664
   457.78         23.7809
   457.92         23.6832
   458.06         23.5844
   458.20         23.4954
   458.34         23.4256
   458.48         23.3821
   458.62         23.3697
   458.76         23.3911
   458.90         23.4450
   459.04         23.5246
   459.18         23.6200
   459.32         23.7216
   459.46         23.8206
   459.60         23.9098
   459.74         23.9849
   459.88         24.0447
   460.02         24.0910
   460.16         24.1254
   460.30         24.1489
   460.44         24.1633
   460.58         24.1702
   460.72         24.1691
   460.86         24.1592
   461.00         24.1422
   461.14         24.1219
   461.28         24.1030
   461.42         24.0885
   461.56         24.0797
   461.70         24.0767
   461.84         24.0796
   461.98         24.0885
   462.12         24.1011
   462.26         24.1126
   462.40         24.1170
   462.54         24.1098
   462.68         24.0905
   462.82         24.0610
   462.96         24.0240
   463.10         23.9828
   463.24         23.9405
   463.38         23.9002
   463.52         23.8650
   463.66         23.8368
   463.80         23.8154
   463.94         23.7978
   464.08         23.7801
   464.22         23.7588
   464.36         23.7311
   464.50         23.6976
   464.64         23.6596
   464.78         23.6200
   464.92         23.5829
   465.06         23.5546
   465.20         23.5430
   465.34         23.5524
   465.48         23.5797
   465.62         23.6170
   465.76         23.6562
   465.90         23.6907
   466.04         23.7168
   466.18         23.7345
   466.32         23.7460
   466.46         23.7545
   466.60         23.7635
   466.74         23.7750
   466.88         23.7892
   467.02         23.8068
   467.16         23.8309
   467.30         23.8640
   467.44         23.9054
   467.58         23.9516
   467.72         23.9978
   467.86         24.0381
   468.00         24.0662
   468.14         24.0783
   468.28         24.0751
   468.42         24.0609
   468.56         24.0407
   468.70         24.0182
   468.84         23.9931
   468.98         23.9611
   469.12         23.9170
   469.26         23.8582
   469.40         23.7861
   469.54         23.7064
   469.68         23.6268
   469.82         23.5529
   469.96         23.4858
   470.10         23.4251
   470.24         23.3707
   470.38         23.3217
   470.52         23.2769
   470.66         23.2356
   470.80         23.1981
   470.94         23.1661
   471.08         23.1407
   471.22         23.1213
   471.36         23.1068
   471.50         23.0968
   471.64         23.0922
   471.78         23.0948
   471.92         23.1060
   472.06         23.1257
   472.20         23.1518
   472.34         23.1797
   472.48         23.2024
   472.62         23.2145
   472.76         23.2145
   472.90         23.2038
   473.04         23.1860
   473.18         23.1659
   473.32         23.1488
   473.46         23.1389
   473.60         23.1369
   473.74         23.1410
   473.88         23.1482
   474.02         23.1553
   474.16         23.1585
   474.30         23.1538
   474.44         23.1384
   474.58         23.1130
   474.72         23.0807
   474.86         23.0449
   475.00         23.0060
   475.14         22.9624
   475.28         22.9146
   475.42         22.8641
   475.56         22.8123
   475.70         22.7606
   475.84         22.7109
   475.98         22.6646
   476.12         22.6225
   476.26         22.5861
   476.40         22.5582
   476.54         22.5414
   476.68         22.5365
   476.82         22.5437
   476.96         22.5636
   477.10         22.5967
   477.24         22.6404
   477.38         22.6872
   477.52         22.7263
   477.66         22.7473
   477.80         22.7448
   477.94         22.7201
   478.08         22.6794
   478.22         22.6300
   478.36         22.5782
   478.50         22.5282
   478.64         22.4831
   478.78         22.4453
   478.92         22.4154
   479.06         22.3922
   479.20         22.3726
   479.34         22.3525
   479.48         22.3283
   479.62         22.2970
   479.76         22.2568
   479.90         22.2067
   480.04         22.1480
   480.18         22.0857
   480.32         22.0272
   480.46         21.9799
   480.60         21.9478
   480.74         21.9300
   480.88         21.9214
   481.02         21.9151
   481.16         21.9047
   481.30         21.8852
   481.44         21.8531
   481.58         21.8065
   481.72         21.7459
   481.86         21.6733
   482.00         21.5927
   482.14         21.5101
   482.28         21.4317
   482.42         21.3619
   482.56         21.3021
   482.70         21.2505
   482.84         21.2032
   482.98         21.1554
   483.12         21.1036
   483.26         21.0450
   483.40         20.9770
   483.54         20.8979
   483.68         20.8065
   483.82         20.7025
   483.96         20.5865
   484.10         20.4588
   484.24         20.3179
   484.38         20.1585
   484.52         19.9726
   484.66         19.7511
   484.80         19.4834
   484.94         19.1566
   485.08         18.7581
   485.22         18.2804
   485.36         17.7281
   485.50         17.1216
   485.64         16.4944
   485.78         15.8885
   485.92         15.3470
   486.06         14.9086
   486.20         14.6025
   486.34         14.4468
   486.48         14.4494
   486.62         14.6071
   486.76         14.9040
   486.90         15.3112
   487.04         15.7928
   487.18         16.3143
   487.32         16.8442
   487.46         17.3529
   487.60         17.8161
   487.74         18.2212
   487.88         18.5692
   488.02         18.8699
   488.16         19.1331
   488.30         19.3669
   488.44         19.5781
   488.58         19.7717
   488.72         19.9512
   488.86         20.1211
   489.00         20.2866
   489.14         20.4497
   489.28         20.6084
   489.42         20.7587
   489.56         20.8976
   489.70         21.0253
   489.84         21.1414
   489.98         21.2426
   490.12         21.3251
   490.26         21.3870
   490.40         21.4296
   490.54         21.4564
   490.68         21.4720
   490.82         21.4816
   490.96         21.4899
   491.10         21.4991
   491.24         21.5068
   491.38         21.5076
   491.52         21.4963
   491.66         21.4697
   491.80         21.4299
   491.94         21.3845
   492.08         21.3424
   492.22         21.3098
   492.36         21.2884
   492.50         21.2770
   492.64         21.2741
   492.78         21.2786
   492.92         21.2892
   493.06         21.3052
   493.20         21.3265
   493.34         21.3509
   493.48         21.3747
   493.62         21.3950
   493.76         21.4110
   493.90         21.4241
   494.04         21.4380
   494.18         21.4571
   494.32         21.4850
   494.46         21.5224
   494.60         21.5670
   494.74         21.6146
   494.88         21.6605
   495.02         21.7011
   495.16         21.7354
   495.30         21.7654
   495.44         21.7939
   495.58         21.8219
   495.72         21.8488
   495.86         21.8736
   496.00         21.8956
   496.14         21.9135
   496.28         21.9251
   496.42         21.9285
   496.56         21.9233
   496.70         21.9102
   496.84         21.8906
   496.98         21.8651
   497.12         21.8323
   497.26         21.7875
   497.40         21.7246
   497.54         21.6394
   497.68         21.5318
   497.82         21.4073
   497.96         21.2744
   498.10         21.1411
   498.24         21.0153
   498.38         20.9069
   498.52         20.8260
   498.66         20.7791
   498.80         20.7683
   498.94         20.7900
   499.08         20.8333
   499.22         20.8802
   499.36         20.9114
   499.50         20.9124
   499.64         20.8741
   499.78         20.7925
   499.92         20.6729
   500.06         20.5306
   500.20         20.3847
   500.34         20.2532
   500.48         20.1494
   500.62         20.0802
   500.76         20.0465
   500.90         20.0443
   501.04         20.0654
   501.18         20.0985
   501.32         20.1322
   501.46         20.1573
   501.60         20.1672
   501.74         20.1599
   501.88         20.1397
   502.02         20.1172
   502.16         20.1037
   502.30         20.1077
   502.44         20.1356
   502.58         20.1908
   502.72         20.2689
   502.86         20.3585
   503.00         20.4448
   503.14         20.5120
   503.28         20.5465
   503.42         20.5399
   503.56         20.4932
   503.70         20.4158
   503.84         20.3204
   503.98         20.2193
   504.12         20.1227
   504.26         20.0383
   504.40         19.9709
   504.54         19.9247
   504.68         19.9032
   504.82         19.9089
   504.96         19.9420
   505.10         19.9989
   505.24         20.0713
   505.38         20.1491
   505.52         20.2230
   505.66         20.2841
   505.80         20.3251
   505.94         20.3440
   506.08         20.3454
   506.22         20.3362
   506.36         20.3200
   506.50         20.2974
   506.64         20.2698
   506.78         20.2410
   506.92         20.2157
   507.06         20.1972
   507.20         20.1871
   507.34         20.1854
   507.48         20.1917
   507.62         20.2041
   507.76         20.2188
   507.90         20.2310
   508.04         20.2374
   508.18         20.2368
   508.32         20.2296
   508.46         20.2189
   508.60         20.2093
   508.74         20.2042
   508.88         20.2017
   509.02         20.1967
   509.16         20.1858
   509.30         20.1694
   509.44         20.1497
   509.58         20.1288
   509.72         20.1087
   509.86         20.0921
   510.00         20.0814
   510.14         20.0776
   510.28         20.0815
   510.42         20.0943
   510.56         20.1171
   510.70         20.1499
   510.84         20.1904
   510.98         20.2347
   511.12         20.2784
   511.26         20.3177
   511.40         20.3493
   511.54         20.3706
   511.68         20.3815
   511.82         20.3844
   511.96         20.3808
   512.10         20.3696
   512.24         20.3488
   512.38         20.3165
   512.52         20.2742
   512.66         20.2274
   512.80         20.1831
   512.94         20.1456
   513.08         20.1143
   513.22         20.0856
   513.36         20.0561
   513.50         20.0245
   513.64         19.9909
   513.78         19.9560
   513.92         19.9203
   514.06         19.8845
   514.20         19.8500
   514.34         19.8179
   514.48         19.7879
   514.62         19.7584
   514.76         19.7297
   514.90         19.7050
   515.04         19.6876
   515.18         19.6797
   515.32         19.6801
   515.46         19.6839
   515.60         19.6843
   515.74         19.6747
   515.88         19.6484
   516.02         19.5990
   516.16         19.5213
   516.30         19.4120
   516.44         19.2735
   516.58         19.1143
   516.72         18.9484
   516.86         18.7922
   517.00         18.6603
   517.14         18.5638
   517.28         18.5088
   517.42         18.4959
   517.56         18.5203
   517.70         18.5723
   517.84         18.6403
   517.98         18.7117
   518.12         18.7740
   518.26         18.8167
   518.40         18.8337
   518.54         18.8255
   518.68         18.7978
   518.82         18.7588
   518.96         18.7189
   519.10         18.6889
   519.24         18.6764
   519.38         18.6826
   519.52         18.7014
   519.66         18.7231
   519.80         18.7380
   519.94         18.7407
   520.08         18.7321
   520.22         18.7178
   520.36         18.7051
   520.50         18.6986
   520.64         18.6989
   520.78         18.7060
   520.92         18.7218
   521.06         18.7494
   521.20         18.7911
   521.34         18.8465
   521.48         18.9126
   521.62         18.9828
   521.76         19.0476
   521.90         19.0969
   522.04         19.1228
   522.18         19.1206
   522.32         19.0907
   522.46         19.0368
   522.60         18.9651
   522.74         18.8838
   522.88         18.8021
   523.02         18.7301
   523.16         18.6756
   523.30         18.6443
   523.44         18.6407
   523.58         18.6683
   523.72         18.7268
   523.86         18.8105
   524.00         18.9096
   524.14         19.0133
   524.28         19.1125
   524.42         19.2008
   524.56         19.2751
   524.70         19.3342
   524.84         19.3774
   524.98         19.4046
   525.12         19.4157
   525.26         19.4098
   525.40         19.3850
   525.54         19.3385
   525.68         19.2667
   525.82         19.1659
   525.96         19.0353
   526.10         18.8796
   526.24         18.7077
   526.38         18.5290
   526.52         18.3521
   526.66         18.1873
   526.80         18.0475
   526.94         17.9447
   527.08         17.8871
   527.22         17.8774
   527.36         17.9130
   527.50         17.9855
   527.64         18.0839
   527.78         18.1970
   527.92         18.3163
   528.06         18.4358
   528.20         18.5522
   528.34         18.6626
   528.48         18.7638
   528.62         18.8528
   528.76         18.9266
   528.90         18.9834
   529.04         19.0222
   529.18         19.0434
   529.32         19.0485
   529.46         19.0402
   529.60         19.0201
   529.74         18.9893
   529.88         18.9500
   530.02         18.9065
   530.16         18.8654
   530.30         18.8330
   530.44         18.8125
   530.58         18.8035
   530.72         18.8020
   530.86         18.8021
   531.00         18.7981
   531.14         18.7865
   531.28         18.7663
   531.42         18.7382
   531.56         18.7034
   531.70         18.6620
   531.84         18.6134
   531.98         18.5578
   532.12         18.4984
   532.26         18.4398
   532.40         18.3873
   532.54         18.3457
   532.68         18.3192
   532.82         18.3091
   532.96         18.3132
   533.10         18.3274
   533.24         18.3487
   533.38         18.3751
   533.52         18.4052
   533.66         18.4368
   533.80         18.4672
   533.94         18.4936
   534.08         18.5138
   534.22         18.5261
   534.36         18.5305
   534.50         18.5301
   534.64         18.5315
   534.78         18.5410
   534.92         18.5617
   535.06         18.5930
   535.20         18.6326
   535.34         18.6763
   535.48         18.7187
   535.62         18.7538
   535.76         18.7759
   535.90         18.7809
   536.04         18.7659
   536.18         18.7302
   536.32         18.6764
   536.46         18.6108
   536.60         18.5418
   536.74         18.4769
   536.88         18.4224
   537.02         18.3830
   537.16         18.3600
   537.30         18.3518
   537.44         18.3545
   537.58         18.3652
   537.72         18.3823
   537.86         18.4035
   538.00         18.4251
   538.14         18.4434
   538.28         18.4549
   538.42         18.4577
   538.56         18.4534
   538.70         18.4451
   538.84         18.4351
   538.98         18.4240
   539.12         18.4101
   539.26         18.3897
   539.40         18.3586
   539.54         18.3131
   539.68         18.2510
   539.82         18.1732
   539.96         18.0848
   540.10         17.9916
   540.24         17.8991
   540.38         17.8113
   540.52         17.7311
   540.66         17.6611
   540.80         17.6028
   540.94         17.5572
   541.08         17.5258
   541.22         17.5103
   541.36         17.5113
   541.50         17.5268
   541.64         17.5533
   541.78         17.5865
   541.92         17.6227
   542.06         17.6590
   542.20         17.6928
   542.34         17.7221
   542.48         17.7466
   542.62         17.7677
   542.76         17.7869
   542.90         17.8061
   543.04         17.8261
   543.18         17.8471
   543.32         17.8694
   543.46         17.8927
   543.60         17.9160
   543.74         17.9377
   543.88         17.9561
   544.02         17.9690
   544.16         17.9754
   544.30         17.9754
   544.44         17.9699
   544.58         17.9593
   544.72         17.9442
   544.86         17.9269
   545.00         17.9121
   545.14         17.9034
   545.28         17.9015
   545.42         17.9046
   545.56         17.9101
   545.70         17.9152
   545.84         17.9180
   545.98         17.9172
   546.12         17.9121
   546.26         17.9026
   546.40         17.8904
   546.54         17.8777
   546.68         17.8653
   546.82         17.8518
   546.96         17.8343
   547.10         17.8108
   547.24         17.7821
   547.38         17.7525
   547.52         17.7279
   547.66         17.7126
   547.80         17.7087
   547.94         17.7177
   548.08         17.7409
   548.22         17.7778
   548.36         17.8264
   548.50         17.8838
   548.64         17.9457
   548.78         18.0069
   548.92         18.0614
   549.06         18.1027
   549.20         18.1240
   549.34         18.1203
   549.48         18.0914
   549.62         18.0430
   549.76         17.9834
   549.90         17.9216
   550.04         17.8660
   550.18         17.8223
   550.32         17.7929
   550.46         17.7779
   550.60         17.7752
   550.74         17.7820
   550.88         17.7947
   551.02         17.8102
   551.16         17.8257
   551.30         17.8398
   551.44         17.8508
   551.58         17.8559
   551.72         17.8518
   551.86         17.8364
   552.00         17.8101
   552.14         17.7753
   552.28         17.7353
   552.42         17.6932
   552.56         17.6520
   552.70         17.6132
   552.84         17.5776
   552.98         17.5469
   553.12         17.5230
   553.26         17.5062
   553.40         17.4962
   553.54         17.4925
   553.68         17.4950
   553.82         17.5028
   553.96         17.5143
   554.10         17.5274
   554.24         17.5402
   554.38         17.5523
   554.52         17.5648
   554.66         17.5797
   554.80         17.5986
   554.94         17.6215
   555.08         17.6475
   555.22         17.6751
   555.36         17.7030
   555.50         17.7303
   555.64         17.7549
   555.78         17.7719
   555.92         17.7767
   556.06         17.7666
   556.20         17.7405
   556.34         17.6983
   556.48         17.6412
   556.62         17.5725
   556.76         17.4971
   556.90         17.4204
   557.04         17.3474
   557.18         17.2827
   557.32         17.2297
   557.46         17.1903
   557.60         17.1650
   557.74         17.1525
   557.88         17.1477
   558.02         17.1425
   558.16         17.1291
   558.30         17.1025
   558.44         17.0614
   558.58         17.0079
   558.72         16.9466
   558.86         16.8828
   559.00         16.8222
   559.14         16.7699
   559.28         16.7302
   559.42         16.7048
   559.56         16.6936
   559.70         16.6961
   559.84         16.7116
   559.98         16.7392
   560.12         16.7769
   560.26         16.8217
   560.40         16.8702
   560.54         16.9183
   560.68         16.9624
   560.82         16.9997
   560.96         17.0277
   561.10         17.0438
   561.24         17.0463
   561.38         17.0348
   561.52         17.0092
   561.66         16.9706
   561.80         16.9227
   561.94         16.8716
   562.08         16.8241
   562.22         16.7871
   562.36         16.7647
   562.50         16.7576
   562.64         16.7634
   562.78         16.7777
   562.92         16.7955
   563.06         16.8116
   563.20         16.8217
   563.34         16.8239
   563.48         16.8192
   563.62         16.8107
   563.76         16.8012
   563.90         16.7928
   564.04         16.7865
   564.18         16.7834
   564.32         16.7843
   564.46         16.7890
   564.60         16.7956
   564.74         16.8015
   564.88         16.8043
   565.02         16.8011
   565.16         16.7893
   565.30         16.7676
   565.44         16.7362
   565.58         16.6971
   565.72         16.6540
   565.86         16.6104
   566.00         16.5690
   566.14         16.5306
   566.28         16.4951
   566.42         16.4620
   566.56         16.4315
   566.70         16.4053
   566.84         16.3848
   566.98         16.3701
   567.12         16.3607
   567.26         16.3568
   567.40         16.3590
   567.54         16.3663
   567.68         16.3753
   567.82         16.3838
   567.96         16.3913
   568.10         16.3980
   568.24         16.4035
   568.38         16.4064
   568.52         16.4047
   568.66         16.3977
   568.80         16.3870
   568.94         16.3767
   569.08         16.3704
   569.22         16.3698
   569.36         16.3746
   569.50         16.3822
   569.64         16.3899
   569.78         16.3951
   569.92         16.3946
   570.06         16.3839
   570.20         16.3587
   570.34         16.3168
   570.48         16.2592
   570.62         16.1890
   570.76         16.1111
   570.90         16.0317
   571.04         15.9582
   571.18         15.8967
   571.32         15.8516
   571.46         15.8258
   571.60         15.8197
   571.74         15.8303
   571.88         15.8538
   572.02         15.8867
   572.16         15.9262
   572.30         15.9685
   572.44         16.0091
   572.58         16.0439
   572.72         16.0707
   572.86         16.0899
   573.00         16.1028
   573.14         16.1115
   573.28         16.1197
   573.42         16.1302
   573.56         16.1426
   573.70         16.1539
   573.84         16.1625
   573.98         16.1679
   574.12         16.1698
   574.26         16.1669
   574.40         16.1581
   574.54         16.1437
   574.68         16.1262
   574.82         16.1102
   574.96         16.1008
   575.10         16.1013
   575.24         16.1137
   575.38         16.1386
   575.52         16.1739
   575.66         16.2162
   575.80         16.2611
   575.94         16.3041
   576.08         16.3398
   576.22         16.3639
   576.36         16.3749
   576.50         16.3731
   576.64         16.3596
   576.78         16.3372
   576.92         16.3116
   577.06         16.2890
   577.20         16.2735
   577.34         16.2656
   577.48         16.2630
   577.62         16.2611
   577.76         16.2553
   577.90         16.2432
   578.04         16.2240
   578.18         16.1984
   578.32         16.1688
   578.46         16.1376
   578.60         16.1058
   578.74         16.0732
   578.88         16.0405
   579.02         16.0098
   579.16         15.9839
   579.30         15.9654
   579.44         15.9551
   579.58         15.9514
   579.72         15.9512
   579.86         15.9515
   580.00         15.9510
   580.14         15.9504
   580.28         15.9506
   580.42         15.9526
   580.56         15.9570
   580.70         15.9641
   580.84         15.9743
   580.98         15.9880
   581.12         16.0054
   581.26         16.0271
   581.40         16.0536
   581.54         16.0839
   581.68         16.1153
   581.82         16.1444
   581.96         16.1671
   582.10         16.1802
   582.24         16.1817
   582.38         16.1715
   582.52         16.1513
   582.66         16.1243
   582.80         16.0951
   582.94         16.0686
   583.08         16.0500
   583.22         16.0435
   583.36         16.0514
   583.50         16.0730
   583.64         16.1055
   583.78         16.1444
   583.92         16.1840
   584.06         16.2181
   584.20         16.2423
   584.34         16.2552
   584.48         16.2558
   584.62         16.2422
   584.76         16.2133
   584.90         16.1699
   585.04         16.1149
   585.18         16.0521
   585.32         15.9855
   585.46         15.9200
   585.60         15.8606
   585.74         15.8119
   585.88         15.7780
   586.02         15.7615
   586.16         15.7623
   586.30         15.7788
   586.44         15.8080
   586.58         15.8449
   586.72         15.8841
   586.86         15.9216
   587.00         15.9541
   587.14         15.9778
   587.28         15.9891
   587.42         15.9869
   587.56         15.9720
   587.70         15.9450
   587.84         15.9055
   587.98         15.8524
   588.12         15.7845
   588.26         15.7024
   588.40         15.6079
   588.54         15.5031
   588.68         15.3897
   588.82         15.2718
   588.96         15.1568
   589.10         15.0537
   589.24         14.9708
   589.38         14.9156
   589.52         14.8937
   589.66         14.9066
   589.80         14.9520
   589.94         15.0249
   590.08         15.1187
   590.22         15.2247
   590.36         15.3337
   590.50         15.4374
   590.64         15.5301
   590.78         15.6086
   590.92         15.6720
   591.06         15.7201
   591.20         15.7528
   591.34         15.7717
   591.48         15.7791
   591.62         15.7760
   591.76         15.7624
   591.90         15.7390
   592.04         15.7073
   592.18         15.6690
   592.32         15.6260
   592.46         15.5802
   592.60         15.5347
   592.74         15.4929
   592.88         15.4578
   593.02         15.4320
   593.16         15.4159
   593.30         15.4093
   593.44         15.4123
   593.58         15.4244
   593.72         15.4423
   593.86         15.4601
   594.00         15.4724
   594.14         15.4764
   594.28         15.4712
   594.42         15.4566
   594.56         15.4330
   594.70         15.4010
   594.84         15.3617
   594.98         15.3163
   595.12         15.2666
   595.26         15.2153
   595.40         15.1643
   595.54         15.1155
   595.68         15.0697
   595.82         15.0275
   595.96         14.9897
   596.10         14.9573
   596.24         14.9319
   596.38         14.9158
   596.52         14.9117
   596.66         14.9220
   596.80         14.9469
   596.94         14.9826
   597.08         15.0234
   597.22         15.0652
   597.36         15.1044
   597.50         15.1376
   597.64         15.1615
   597.78         15.1737
   597.92         15.1720
   598.06         15.1545
   598.20         15.1220
   598.34         15.0788
   598.48         15.0314
   598.62         14.9868
   598.76         14.9495
   598.90         14.9201
   599.04         14.8967
   599.18         14.8764
   599.32         14.8563
   599.46         14.8350
   599.60         14.8129
   599.74         14.7915
   599.88         14.7724
   600.02         14.7551
   600.16         14.7382
   600.30         14.7222
   600.44         14.7083
   600.58         14.6967
   600.72         14.6882
   600.86         14.6842
   601.00         14.6846
   601.14         14.6867
   601.28         14.6871
   601.42         14.6830
   601.56         14.6753
   601.70         14.6678
   601.84         14.6641
   601.98         14.6672
   602.12         14.6792
   602.26         14.6999
   602.40         14.7273
   602.54         14.7586
   602.68         14.7920
   602.82         14.8266
   602.96         14.8598
   603.10         14.8858
   603.24         14.8985
   603.38         14.8942
   603.52         14.8720
   603.66         14.8328
   603.80         14.7807
   603.94         14.7210
   604.08         14.6601
   604.22         14.6044
   604.36         14.5589
   604.50         14.5275
   604.64         14.5133
   604.78         14.5179
   604.92         14.5406
   605.06         14.5788
   605.20         14.6280
   605.34         14.6820
   605.48         14.7333
   605.62         14.7752
   605.76         14.8026
   605.90         14.8140
   606.04         14.8106
   606.18         14.7950
   606.32         14.7694
   606.46         14.7352
   606.60         14.6942
   606.74         14.6489
   606.88         14.6036
   607.02         14.5630
   607.16         14.5309
   607.30         14.5096
   607.44         14.4990
   607.58         14.4971
   607.72         14.5011
   607.86         14.5077
   608.00         14.5152
   608.14         14.5228
   608.28         14.5294
   608.42         14.5330
   608.56         14.5315
   608.70         14.5231
   608.84         14.5056
   608.98         14.4783
   609.12         14.4425
   609.26         14.4012
   609.40         14.3577
   609.54         14.3154
   609.68         14.2772
   609.82         14.2449
   609.96         14.2198
   610.10         14.2025
   610.24         14.1928
   610.38         14.1896
   610.52         14.1915
   610.66         14.1964
   610.80         14.2011
   610.94         14.2022
   611.08         14.1982
   611.22         14.1895
   611.36         14.1771
   611.50         14.1626
   611.64         14.1479
   611.78         14.1344
   611.92         14.1232
   612.06         14.1144
   612.20         14.1069
   612.34         14.0979
   612.48         14.0836
   612.62         14.0627
   612.76         14.0360
   612.90         14.0053
   613.04         13.9730
   613.18         13.9420
   613.32         13.9146
   613.46         13.8924
   613.60         13.8776
   613.74         13.8728
   613.88         13.8800
   614.02         13.8981
   614.16         13.9240
   614.30         13.9552
   614.44         13.9895
   614.58         14.0252
   614.72         14.0598
   614.86         14.0904
   615.00         14.1155
   615.14         14.1352
   615.28         14.1508
   615.42         14.1612
   615.56         14.1637
   615.70         14.1551
   615.84         14.1332
   615.98         14.0976
   616.12         14.0513
   616.26         13.9999
   616.40         13.9495
   616.54         13.9051
   616.68         13.8702
   616.82         13.8475
   616.96         13.8389
   617.10         13.8447
   617.24         13.8635
   617.38         13.8913
   617.52         13.9235
   617.66         13.9559
   617.80         13.9850
   617.94         14.0082
   618.08         14.0237
   618.22         14.0315
   618.36         14.0333
   618.50         14.0328
   618.64         14.0356
   618.78         14.0463
   618.92         14.0670
   619.06         14.0982
   619.20         14.1386
   619.34         14.1847
   619.48         14.2315
   619.62         14.2755
   619.76         14.3140
   619.90         14.3447
   620.04         14.3644
   620.18         14.3704
   620.32         14.3619
   620.46         14.3386
   620.60         14.3013
   620.74         14.2521
   620.88         14.1945
   621.02         14.1331
   621.16         14.0727
   621.30         14.0171
   621.44         13.9679
   621.58         13.9260
   621.72         13.8920
   621.86         13.8650
   622.00         13.8427
   622.14         13.8235
   622.28         13.8079
   622.42         13.7954
   622.56         13.7842
   622.70         13.7719
   622.84         13.7574
   622.98         13.7414
   623.12         13.7254
   623.26         13.7096
   623.40         13.6938
   623.54         13.6765
   623.68         13.6567
   623.82         13.6340
   623.96         13.6091
   624.10         13.5819
   624.24         13.5524
   624.38         13.5216
   624.52         13.4919
   624.66         13.4675
   624.80         13.4527
   624.94         13.4495
   625.08         13.4560
   625.22         13.4680
   625.36         13.4820
   625.50         13.4963
   625.64         13.5099
   625.78         13.5211
   625.92         13.5278
   626.06         13.5296
   626.20         13.5279
   626.34         13.5246
   626.48         13.5209
   626.62         13.5160
   626.76         13.5081
   626.90         13.4965
   627.04         13.4815
   627.18         13.4642
   627.32         13.4454
   627.46         13.4252
   627.60         13.4042
   627.74         13.3843
   627.88         13.3691
   628.02         13.3628
   628.16         13.3687
   628.30         13.3878
   628.44         13.4189
   628.58         13.4592
   628.72         13.5053
   628.86         13.5526
   629.00         13.5956
   629.14         13.6296
   629.28         13.6514
   629.42         13.6600
   629.56         13.6561
   629.70         13.6413
   629.84         13.6181
   629.98         13.5890
   630.12         13.5566
   630.26         13.5226
   630.40         13.4883
   630.54         13.4552
   630.68         13.4246
   630.82         13.3971
   630.96         13.3723
   631.10         13.3501
   631.24         13.3306
   631.38         13.3147
   631.52         13.3034
   631.66         13.2971
   631.80         13.2951
   631.94         13.2963
   632.08         13.2994
   632.22         13.3028
   632.36         13.3056
   632.50         13.3066
   632.64         13.3055
   632.78         13.3024
   632.92         13.2976
   633.06         13.2920
   633.20         13.2867
   633.34         13.2814
   633.48         13.2754
   633.62         13.2692
   633.76         13.2632
   633.90         13.2575
   634.04         13.2514
   634.18         13.2438
   634.32         13.2337
   634.46         13.2210
   634.60         13.2067
   634.74         13.1928
   634.88         13.1809
   635.02         13.1723
   635.16         13.1673
   635.30         13.1660
   635.44         13.1670
   635.58         13.1686
   635.72         13.1688
   635.86         13.1659
   636.00         13.1594
   636.14         13.1501
   636.28         13.1392
   636.42         13.1277
   636.56         13.1164
   636.70         13.1056
   636.84         13.0948
   636.98         13.0838
   637.12         13.0738
   637.26         13.0667
   637.40         13.0635
   637.54         13.0636
   637.68         13.0648
   637.82         13.0652
   637.96         13.0633
   638.10         13.0583
   638.24         13.0493
   638.38         13.0357
   638.52         13.0177
   638.66         12.9956
   638.80         12.9708
   638.94         12.9453
   639.08         12.9214
   639.22         12.9016
   639.36         12.8885
   639.50         12.8838
   639.64         12.8881
   639.78         12.9000
   639.92         12.9170
   640.06         12.9360
   640.20         12.9540
   640.34         12.9683
   640.48         12.9768
   640.62         12.9769
   640.76         12.9661
   640.90         12.9441
   641.04         12.9133
   641.18         12.8776
   641.32         12.8413
   641.46         12.8090
   641.60         12.7846
   641.74         12.7697
   641.88         12.7644
   642.02         12.7676
   642.16         12.7776
   642.30         12.7927
   642.44         12.8117
   642.58         12.8329
   642.72         12.8540
   642.86         12.8726
   643.00         12.8862
   643.14         12.8933
   643.28         12.8937
   643.42         12.8886
   643.56         12.8789
   643.70         12.8658
   643.84         12.8508
   643.98         12.8357
   644.12         12.8221
   644.26         12.8102
   644.40         12.7985
   644.54         12.7861
   644.68         12.7732
   644.82         12.7604
   644.96         12.7472
   645.10         12.7328
   645.24         12.7167
   645.38         12.6994
   645.52         12.6825
   645.66         12.6673
   645.80         12.6545
   645.94         12.6448
   646.08         12.6386
   646.22         12.6361
   646.36         12.6375
   646.50         12.6428
   646.64         12.6506
   646.78         12.6590
   646.92         12.6670
   647.06         12.6744
   647.20         12.6809
   647.34         12.6855
   647.48         12.6867
   647.62         12.6826
   647.76         12.6714
   647.90         12.6509
   648.04         12.6193
   648.18         12.5750
   648.32         12.5176
   648.46         12.4494
   648.60         12.3751
   648.74         12.3003
   648.88         12.2316
   649.02         12.1752
   649.16         12.1370
   649.30         12.1207
   649.44         12.1284
   649.58         12.1595
   649.72         12.2099
   649.86         12.2734
   650.00         12.3431
   650.14         12.4117
   650.28         12.4718
   650.42         12.5170
   650.56         12.5443
   650.70         12.5540
   650.84         12.5498
   650.98         12.5376
   651.12         12.5226
   651.26         12.5093
   651.40         12.5001
   651.54         12.4965
   651.68         12.4991
   651.82         12.5073
   651.96         12.5203
   652.10         12.5370
   652.24         12.5552
   652.38         12.5722
   652.52         12.5859
   652.66         12.5951
   652.80         12.5994
   652.94         12.5991
   653.08         12.5945
   653.22         12.5854
   653.36         12.5696
   653.50         12.5445
   653.64         12.5073
   653.78         12.4565
   653.92         12.3909
   654.06         12.3094
   654.20         12.2113
   654.34         12.0960
   654.48         11.9624
   654.62         11.8078
   654.76         11.6271
   654.90         11.4133
   655.04         11.1612
   655.18         10.8716
   655.32         10.5539
   655.46         10.2243
   655.60         9.9025
   655.74         9.6094
   655.88         9.3657
   656.02         9.1901
   656.16         9.0972
   656.30         9.0949
   656.44         9.1831
   656.58         9.3543
   656.72         9.5943
   656.86         9.8845
   657.00         10.2026
   657.14         10.5258
   657.28         10.8325
   657.42         11.1059
   657.56         11.3375
   657.70         11.5274
   657.84         11.6819
   657.98         11.8085
   658.12         11.9123
   658.26         11.9976
   658.40         12.0684
   658.54         12.1297
   658.68         12.1855
   658.82         12.2388
   658.96         12.2914
   659.10         12.3441
   659.24         12.3969
   659.38         12.4480
   659.52         12.4944
   659.66         12.5337
   659.80         12.5640
   659.94         12.5842
   660.08         12.5935
   660.22         12.5920
   660.36         12.5795
   660.50         12.5566
   660.64         12.5246
   660.78         12.4861
   660.92         12.4447
   661.06         12.4036
   661.20         12.3660
   661.34         12.3337
   661.48         12.3072
   661.62         12.2863
   661.76         12.2714
   661.90         12.2622
   662.04         12.2576
   662.18         12.2570
   662.32         12.2601
   662.46         12.2657
   662.60         12.2721
   662.74         12.2777
   662.88         12.2823
   663.02         12.2862
   663.16         12.2900
   663.30         12.2940
   663.44         12.2981
   663.58         12.3019
   663.72         12.3048
   663.86         12.3065
   664.00         12.3063
   664.14         12.3034
   664.28         12.2974
   664.42         12.2882
   664.56         12.2759
   664.70         12.2614
   664.84         12.2456
   664.98         12.2284
   665.12         12.2095
   665.26         12.1895
   665.40         12.1703
   665.54         12.1535
   665.68         12.1396
   665.82         12.1291
   665.96         12.1220
   666.10         12.1180
   666.24         12.1168
   666.38         12.1177
   666.52         12.1192
   666.66         12.1187
   666.80         12.1140
   666.94         12.1046
   667.08         12.0907
   667.22         12.0732
   667.36         12.0532
   667.50         12.0320
   667.64         12.0119
   667.78         11.9967
   667.92         11.9901
   668.06         11.9943
   668.20         12.0089
   668.34         12.0316
   668.48         12.0594
   668.62         12.0889
   668.76         12.1173
   668.90         12.1424
   669.04         12.1611
   669.18         12.1701
   669.32         12.1665
   669.46         12.1491
   669.60         12.1177
   669.74         12.0730
   669.88         12.0178
   670.02         11.9561
   670.16         11.8924
   670.30         11.8302
   670.44         11.7729
   670.58         11.7224
   670.72         11.6799
   670.86         11.6459
   671.00         11.6215
   671.14         11.6079
   671.28         11.6057
   671.42         11.6145
   671.56         11.6319
   671.70         11.6543
   671.84         11.6783
   671.98         11.7016
   672.12         11.7233
   672.26         11.7434
   672.40         11.7626
   672.54         11.7814
   672.68         11.7990
   672.82         11.8139
   672.96         11.8243
   673.10         11.8290
   673.24         11.8287
   673.38         11.8253
   673.52         11.8213
   673.66         11.8182
   673.80         11.8156
   673.94         11.8121
   674.08         11.8058
   674.22         11.7948
   674.36         11.7780
   674.50         11.7557
   674.64         11.7288
   674.78         11.6991
   674.92         11.6684
   675.06         11.6386
   675.20         11.6114
   675.34         11.5883
   675.48         11.5708
   675.62         11.5604
   675.76         11.5580
   675.90         11.5635
   676.04         11.5750
   676.18         11.5885
   676.32         11.6000
   676.46         11.6071
   676.60         11.6095
   676.74         11.6083
   676.88         11.6045
   677.02         11.5991
   677.16         11.5929
   677.30         11.5869
   677.44         11.5816
   677.58         11.5769
   677.72         11.5728
   677.86         11.5692
   678.00         11.5666
   678.14         11.5647
   678.28         11.5628
   678.42         11.5599
   678.56         11.5562
   678.70         11.5521
   678.84         11.5488
   678.98         11.5477
   679.12         11.5494
   679.26         11.5534
   679.40         11.5583
   679.54         11.5632
   679.68         11.5675
   679.82         11.5709
   679.96         11.5732
   680.10         11.5753
   680.24         11.5781
   680.38         11.5820
   680.52         11.5865
   680.66         11.5905
   680.80         11.5921
   680.94         11.5897
   681.08         11.5827
   681.22         11.5718
   681.36         11.5577
   681.50         11.5406
   681.64         11.5202
   681.78         11.4965
   681.92         11.4696
   682.06         11.4401
   682.20         11.4088
   682.34         11.3769
   682.48         11.3462
   682.62         11.3186
   682.76         11.2957
   682.90         11.2776
   683.04         11.2638
   683.18         11.2541
   683.32         11.2484
   683.46         11.2465
   683.60         11.2478
   683.74         11.2528
   683.88         11.2618
   684.02         11.2750
   684.16         11.2918
   684.30         11.3103
   684.44         11.3277
   684.58         11.3407
   684.72         11.3465
   684.86         11.3439
   685.00         11.3320
   685.14         11.3094
   685.28         11.2740
   685.42         11.2226
   685.56         11.1496
   685.70         11.0473
   685.84         10.9094
   685.98         10.7335
   686.12         10.5225
   686.26         10.2841
   686.40         10.0292
   686.54         9.7708
   686.68         9.5231
   686.82         9.3020
   686.96         9.1234
   687.10         9.0013
   687.24         8.9446
   687.38         8.9545
   687.52         9.0254
   687.66         9.1449
   687.80         9.2953
   687.94         9.4578
   688.08         9.6137
   688.22         9.7465
   688.36         9.8463
   688.50         9.9107
   688.64         9.9433
   688.78         9.9515
   688.92         9.9430
   689.06         9.9259
   689.20         9.9078
   689.34         9.8954
   689.48         9.8938
   689.62         9.9039
   689.76         9.9234
   689.90         9.9493
   690.04         9.9798
   690.18         10.0141
   690.32         10.0510
   690.46         10.0894
   690.60         10.1287
   690.74         10.1679
   690.88         10.2061
   691.02         10.2434
   691.16         10.2796
   691.30         10.3138
   691.44         10.3451
   691.58         10.3724
   691.72         10.3952
   691.86         10.4133
   692.00         10.4279
   692.14         10.4411
   692.28         10.4547
   692.42         10.4703
   692.56         10.4894
   692.70         10.5124
   692.84         10.5384
   692.98         10.5659
   693.12         10.5933
   693.26         10.6190
   693.40         10.6422
   693.54         10.6624
   693.68         10.6793
   693.82         10.6923
   693.96         10.7019
   694.10         10.7092
   694.24         10.7153
   694.38         10.7200
   694.52         10.7227
   694.66         10.7231
   694.80         10.7208
   694.94         10.7161
   695.08         10.7109
   695.22         10.7074
   695.36         10.7079
   695.50         10.7134
   695.64         10.7242
   695.78         10.7406
   695.92         10.7633
   696.06         10.7919
   696.20         10.8247
   696.34         10.8586
   696.48         10.8899
   696.62         10.9148
   696.76         10.9294
   696.90         10.9314
   697.04         10.9217
   697.18         10.9044
   697.32         10.8851
   697.46         10.8686
   697.60         10.8586
   697.74         10.8571
   697.88         10.8640
   698.02         10.8768
   698.16         10.8917
   698.30         10.9048
   698.44         10.9139
   698.58         10.9176
   698.72         10.9152
   698.86         10.9067
   699.00         10.8924
   699.14         10.8723
   699.28         10.8465
   699.42         10.8156
   699.56         10.7822
   699.70         10.7493
   699.84         10.7186
   699.98         10.6901
   700.12         10.6633
   700.26         10.6381
   700.40         10.6146
   700.54         10.5934
   700.68         10.5759
   700.82         10.5643
   700.96         10.5610
   701.10         10.5666
   701.24         10.5796
   701.38         10.5965
   701.52         10.6135
   701.66         10.6269
   701.80         10.6350
   701.94         10.6371
   702.08         10.6340
   702.22         10.6278
   702.36         10.6200
   702.50         10.6107
   702.64         10.5996
   702.78         10.5867
   702.92         10.5726
   703.06         10.5585
   703.20         10.5460
   703.34         10.5367
   703.48         10.5313
   703.62         10.5296
   703.76         10.5315
   703.90         10.5370
   704.04         10.5467
   704.18         10.5610
   704.32         10.5797
   704.46         10.6015
   704.60         10.6250
   704.74         10.6494
   704.88         10.6739
   705.02         10.6968
   705.16         10.7160
   705.30         10.7301
   705.44         10.7385
   705.58         10.7414
   705.72         10.7395
   705.86         10.7340
   706.00         10.7268
   706.14         10.7183
   706.28         10.7080
   706.42         10.6951
   706.56         10.6789
   706.70         10.6583
   706.84         10.6324
   706.98         10.6016
   707.12         10.5677
   707.26         10.5332
   707.40         10.4997
   707.54         10.4675
   707.68         10.4371
   707.82         10.4093
   707.96         10.3857
   708.10         10.3679
   708.24         10.3568
   708.38         10.3526
   708.52         10.3546
   708.66         10.3617
   708.80         10.3715
   708.94         10.3816
   709.08         10.3907
   709.22         10.3980
   709.36         10.4033
   709.50         10.4079
   709.64         10.4136
   709.78         10.4212
   709.92         10.4304
   710.06         10.4393
   710.20         10.4459
   710.34         10.4486
   710.48         10.4462
   710.62         10.4381
   710.76         10.4251
   710.90         10.4089
   711.04         10.3924
   711.18         10.3781
   711.32         10.3678
   711.46         10.3634
   711.60         10.3667
   711.74         10.3786
   711.88         10.3992
   712.02         10.4278
   712.16         10.4624
   712.30         10.5002
   712.44         10.5376
   712.58         10.5715
   712.72         10.5991
   712.86         10.6190
   713.00         10.6308
   713.14         10.6345
   713.28         10.6304
   713.42         10.6183
   713.56         10.5985
   713.70         10.5722
   713.84         10.5411
   713.98         10.5083
   714.12         10.4770
   714.26         10.4491
   714.40         10.4268
   714.54         10.4128
   714.68         10.4083
   714.82         10.4133
   714.96         10.4262
   715.10         10.4439
   715.24         10.4615
   715.38         10.4738
   715.52         10.4768
   715.66         10.4674
   715.80         10.4437
   715.94         10.4057
   716.08         10.3552
   716.22         10.2964
   716.36         10.2339
   716.50         10.1718
   716.64         10.1132
   716.78         10.0593
   716.92         10.0108
   717.06         9.9673
   717.20         9.9273
   717.34         9.8875
   717.48         9.8452
   717.62         9.8008
   717.76         9.7569
   717.90         9.7170
   718.04         9.6842
   718.18         9.6602
   718.32         9.6466
   718.46         9.6445
   718.60         9.6541
   718.74         9.6736
   718.88         9.6989
   719.02         9.7262
   719.16         9.7515
   719.30         9.7707
   719.44         9.7813
   719.58         9.7839
   719.72         9.7817
   719.86         9.7796
   720.00         9.7834
   720.14         9.7998
   720.28         9.8329
   720.42         9.8826
   720.56         9.9462
   720.70         10.0194
   720.84         10.0979
   720.98         10.1772
   721.12         10.2517
   721.26         10.3151
   721.40         10.3620
   721.54         10.3898
   721.68         10.3985
   721.82         10.3887
   721.96         10.3614
   722.10         10.3181
   722.24         10.2614
   722.38         10.1945
   722.52         10.1214
   722.66         10.0459
   722.80         9.9704
   722.94         9.8968
   723.08         9.8275
   723.22         9.7655
   723.36         9.7131
   723.50         9.6728
   723.64         9.6456
   723.78         9.6314
   723.92         9.6287
   724.06         9.6349
   724.20         9.6466
   724.34         9.6593
   724.48         9.6692
   724.62         9.6735
   724.76         9.6726
   724.90         9.6684
   725.04         9.6636
   725.18         9.6598
   725.32         9.6578
   725.46         9.6583
   725.60         9.6624
   725.74         9.6708
   725.88         9.6833
   726.02         9.6985
   726.16         9.7131
   726.30         9.7228
   726.44         9.7243
   726.58         9.7168
   726.72         9.7018
   726.86         9.6822
   727.00         9.6612
   727.14         9.6418
   727.28         9.6263
   727.42         9.6149
   727.56         9.6063
   727.70         9.5971
   727.84         9.5832
   727.98         9.5620
   728.12         9.5329
   728.26         9.4964
   728.40         9.4548
   728.54         9.4118
   728.68         9.3716
   728.82         9.3378
   728.96         9.3140
   729.10         9.3028
   729.24         9.3057
   729.38         9.3219
   729.52         9.3482
   729.66         9.3802
   729.80         9.4137
   729.94         9.4448
   730.08         9.4711
   730.22         9.4910
   730.36         9.5045
   730.50         9.5135
   730.64         9.5208
   730.78         9.5283
   730.92         9.5367
   731.06         9.5460
   731.20         9.5551
   731.34         9.5620
   731.48         9.5656
   731.62         9.5657
   731.76         9.5632
   731.90         9.5600
   732.04         9.5575
   732.18         9.5569
   732.32         9.5588
   732.46         9.5632
   732.60         9.5693
   732.74         9.5762
   732.88         9.5824
   733.02         9.5868
   733.16         9.5885
   733.30         9.5864
   733.44         9.5806
   733.58         9.5726
   733.72         9.5639
   733.86         9.5563
   734.00         9.5511
   734.14         9.5489
   734.28         9.5489
   734.42         9.5498
   734.56         9.5506
   734.70         9.5500
   734.84         9.5467
   734.98         9.5397
   735.12         9.5290
   735.26         9.5157
   735.40         9.5019
   735.54         9.4894
   735.68         9.4791
   735.82         9.4715
   735.96         9.4668
   736.10         9.4646
   736.24         9.4636
   736.38         9.4622
   736.52         9.4587
   736.66         9.4520
   736.80         9.4421
   736.94         9.4296
   737.08         9.4155
   737.22         9.4000
   737.36         9.3825
   737.50         9.3622
   737.64         9.3382
   737.78         9.3090
   737.92         9.2736
   738.06         9.2321
   738.20         9.1869
   738.34         9.1416
   738.48         9.1001
   738.62         9.0662
   738.76         9.0424
   738.90         9.0305
   739.04         9.0313
   739.18         9.0439
   739.32         9.0659
   739.46         9.0944
   739.60         9.1261
   739.74         9.1577
   739.88         9.1867
   740.02         9.2110
   740.16         9.2298
   740.30         9.2430
   740.44         9.2524
   740.58         9.2611
   740.72         9.2732
   740.86         9.2914
   741.00         9.3163
   741.14         9.3462
   741.28         9.3782
   741.42         9.4087
   741.56         9.4348
   741.70         9.4547
   741.84         9.4670
   741.98         9.4707
   742.12         9.4664
   742.26         9.4560
   742.40         9.4423
   742.54         9.4282
   742.68         9.4170
   742.82         9.4108
   742.96         9.4108
   743.10         9.4170
   743.24         9.4282
   743.38         9.4423
   743.52         9.4560
   743.66         9.4664
   743.80         9.4707
   743.94         9.4670
   744.08         9.4547
   744.22         9.4348
