# File HD116608
# Wavelength [nm]    Normalized Amplitude
   349.70         7.9880
   349.84         8.0213
   349.98         8.0620
   350.12         8.1064
   350.26         8.1516
   350.40         8.1951
   350.54         8.2342
   350.68         8.2660
   350.82         8.2886
   350.96         8.3020
   351.10         8.3064
   351.24         8.3020
   351.38         8.2886
   351.52         8.2660
   351.66         8.2342
   351.80         8.1951
   351.94         8.1516
   352.08         8.1064
   352.22         8.0620
   352.36         8.0213
   352.50         7.9880
   352.64         7.9657
   352.78         7.9572
   352.92         7.9630
   353.06         7.9818
   353.20         8.0124
   353.34         8.0540
   353.48         8.1044
   353.62         8.1592
   353.76         8.2137
   353.90         8.2644
   354.04         8.3096
   354.18         8.3495
   354.32         8.3843
   354.46         8.4133
   354.60         8.4351
   354.74         8.4485
   354.88         8.4546
   355.02         8.4542
   355.16         8.4472
   355.30         8.4326
   355.44         8.4105
   355.58         8.3816
   355.72         8.3473
   355.86         8.3086
   356.00         8.2649
   356.14         8.2156
   356.28         8.1619
   356.42         8.1077
   356.56         8.0576
   356.70         8.0157
   356.84         7.9850
   356.98         7.9662
   357.12         7.9586
   357.26         7.9601
   357.40         7.9679
   357.54         7.9782
   357.68         7.9876
   357.82         7.9949
   357.96         8.0002
   358.10         8.0042
   358.24         8.0085
   358.38         8.0146
   358.52         8.0233
   358.66         8.0352
   358.80         8.0517
   358.94         8.0731
   359.08         8.0972
   359.22         8.1210
   359.36         8.1408
   359.50         8.1522
   359.64         8.1509
   359.78         8.1344
   359.92         8.1033
   360.06         8.0611
   360.20         8.0147
   360.34         7.9715
   360.48         7.9365
   360.62         7.9128
   360.76         7.9026
   360.90         7.9060
   361.04         7.9203
   361.18         7.9414
   361.32         7.9668
   361.46         7.9959
   361.60         8.0281
   361.74         8.0615
   361.88         8.0931
   362.02         8.1181
   362.16         8.1336
   362.30         8.1401
   362.44         8.1411
   362.58         8.1404
   362.72         8.1410
   362.86         8.1441
   363.00         8.1484
   363.14         8.1518
   363.28         8.1534
   363.42         8.1529
   363.56         8.1497
   363.70         8.1445
   363.84         8.1392
   363.98         8.1362
   364.12         8.1365
   364.26         8.1404
   364.40         8.1479
   364.54         8.1588
   364.68         8.1750
   364.82         8.1992
   364.96         8.2313
   365.10         8.2681
   365.24         8.3046
   365.38         8.3360
   365.52         8.3587
   365.66         8.3711
   365.80         8.3734
   365.94         8.3673
   366.08         8.3554
   366.22         8.3408
   366.36         8.3262
   366.50         8.3141
   366.64         8.3067
   366.78         8.3041
   366.92         8.3050
   367.06         8.3064
   367.20         8.3056
   367.34         8.3005
   367.48         8.2893
   367.62         8.2714
   367.76         8.2484
   367.90         8.2234
   368.04         8.1994
   368.18         8.1805
   368.32         8.1719
   368.46         8.1747
   368.60         8.1858
   368.74         8.1998
   368.88         8.2122
   369.02         8.2204
   369.16         8.2224
   369.30         8.2157
   369.44         8.1982
   369.58         8.1705
   369.72         8.1351
   369.86         8.0942
   370.00         8.0494
   370.14         8.0040
   370.28         7.9627
   370.42         7.9308
   370.56         7.9136
   370.70         7.9161
   370.84         7.9388
   370.98         7.9762
   371.12         8.0195
   371.26         8.0635
   371.40         8.1095
   371.54         8.1626
   371.68         8.2274
   371.82         8.3056
   371.96         8.3947
   372.10         8.4880
   372.24         8.5748
   372.38         8.6442
   372.52         8.6895
   372.66         8.7120
   372.80         8.7202
   372.94         8.7253
   373.08         8.7392
   373.22         8.7712
   373.36         8.8238
   373.50         8.8930
   373.64         8.9703
   373.78         9.0456
   373.92         9.1089
   374.06         9.1524
   374.20         9.1720
   374.34         9.1681
   374.48         9.1457
   374.62         9.1138
   374.76         9.0856
   374.90         9.0797
   375.04         9.1155
   375.18         9.2066
   375.32         9.3568
   375.46         9.5566
   375.60         9.7837
   375.74         10.0053
   375.88         10.1845
   376.02         10.2886
   376.16         10.2986
   376.30         10.2154
   376.44         10.0601
   376.58         9.8694
   376.72         9.6889
   376.86         9.5633
   377.00         9.5294
   377.14         9.6102
   377.28         9.8134
   377.42         10.1330
   377.56         10.5501
   377.70         11.0325
   377.84         11.5396
   377.98         12.0274
   378.12         12.4512
   378.26         12.7696
   378.40         12.9495
   378.54         12.9717
   378.68         12.8332
   378.82         12.5500
   378.96         12.1544
   379.10         11.6891
   379.24         11.2031
   379.38         10.7476
   379.52         10.3709
   379.66         10.1131
   379.80         10.0043
   379.94         10.0619
   380.08         10.2865
   380.22         10.6627
   380.36         11.1631
   380.50         11.7520
   380.64         12.3863
   380.78         13.0200
   380.92         13.6106
   381.06         14.1240
   381.20         14.5385
   381.34         14.8447
   381.48         15.0411
   381.62         15.1298
   381.76         15.1142
   381.90         14.9969
   382.04         14.7781
   382.18         14.4571
   382.32         14.0348
   382.46         13.5177
   382.60         12.9203
   382.74         12.2686
   382.88         11.6007
   383.02         10.9630
   383.16         10.4025
   383.30         9.9614
   383.44         9.6744
   383.58         9.5654
   383.72         9.6461
   383.86         9.9134
   384.00         10.3495
   384.14         10.9243
   384.28         11.6004
   384.42         12.3360
   384.56         13.0889
   384.70         13.8215
   384.84         14.5061
   384.98         15.1277
   385.12         15.6822
   385.26         16.1721
   385.40         16.6031
   385.54         16.9819
   385.68         17.3130
   385.82         17.5973
   385.96         17.8314
   386.10         18.0098
   386.24         18.1280
   386.38         18.1825
   386.52         18.1700
   386.66         18.0864
   386.80         17.9286
   386.94         17.6949
   387.08         17.3860
   387.22         17.0030
   387.36         16.5470
   387.50         16.0187
   387.64         15.4193
   387.78         14.7531
   387.92         14.0322
   388.06         13.2799
   388.20         12.5278
   388.34         11.8121
   388.48         11.1703
   388.62         10.6394
   388.76         10.2545
   388.90         10.0432
   389.04         10.0199
   389.18         10.1841
   389.32         10.5210
   389.46         11.0056
   389.60         11.6075
   389.74         12.2932
   389.88         13.0253
   390.02         13.7671
   390.16         14.4893
   390.30         15.1717
   390.44         15.8017
   390.58         16.3723
   390.72         16.8818
   390.86         17.3319
   391.00         17.7253
   391.14         18.0675
   391.28         18.3665
   391.42         18.6271
   391.56         18.8500
   391.70         19.0339
   391.84         19.1730
   391.98         19.2557
   392.12         19.2672
   392.26         19.1978
   392.40         19.0484
   392.54         18.8310
   392.68         18.5691
   392.82         18.2919
   392.96         18.0270
   393.10         17.7992
   393.24         17.6292
   393.38         17.5337
   393.52         17.5188
   393.66         17.5788
   393.80         17.6995
   393.94         17.8578
   394.08         18.0240
   394.22         18.1670
   394.36         18.2594
   394.50         18.2774
   394.64         18.2068
   394.78         18.0477
   394.92         17.8106
   395.06         17.5081
   395.20         17.1462
   395.34         16.7235
   395.48         16.2325
   395.62         15.6632
   395.76         15.0111
   395.90         14.2827
   396.04         13.4976
   396.18         12.6872
   396.32         11.8927
   396.46         11.1600
   396.60         10.5340
   396.74         10.0544
   396.88         9.7529
   397.02         9.6480
   397.16         9.7426
   397.30         10.0254
   397.44         10.4744
   397.58         11.0581
   397.72         11.7387
   397.86         12.4765
   398.00         13.2321
   398.14         13.9712
   398.28         14.6683
   398.42         15.3099
   398.56         15.8932
   398.70         16.4198
   398.84         16.8928
   398.98         17.3148
   399.12         17.6879
   399.26         18.0138
   399.40         18.2957
   399.54         18.5403
   399.68         18.7550
   399.82         18.9455
   399.96         19.1170
   400.10         19.2744
   400.24         19.4216
   400.38         19.5618
   400.52         19.6969
   400.66         19.8275
   400.80         19.9527
   400.94         20.0724
   401.08         20.1857
   401.22         20.2903
   401.36         20.3834
   401.50         20.4614
   401.64         20.5214
   401.78         20.5616
   401.92         20.5806
   402.06         20.5788
   402.20         20.5583
   402.34         20.5215
   402.48         20.4725
   402.62         20.4197
   402.76         20.3734
   402.90         20.3408
   403.04         20.3237
   403.18         20.3205
   403.32         20.3271
   403.46         20.3397
   403.60         20.3547
   403.74         20.3675
   403.88         20.3761
   404.02         20.3793
   404.16         20.3756
   404.30         20.3625
   404.44         20.3371
   404.58         20.2991
   404.72         20.2535
   404.86         20.2075
   405.00         20.1643
   405.14         20.1212
   405.28         20.0725
   405.42         20.0140
   405.56         19.9406
   405.70         19.8483
   405.84         19.7375
   405.98         19.6113
   406.12         19.4733
   406.26         19.3238
   406.40         19.1597
   406.54         18.9783
   406.68         18.7776
   406.82         18.5581
   406.96         18.3228
   407.10         18.0783
   407.24         17.8332
   407.38         17.5925
   407.52         17.3557
   407.66         17.1205
   407.80         16.8853
   407.94         16.6477
   408.08         16.4022
   408.22         16.1400
   408.36         15.8512
   408.50         15.5256
   408.64         15.1503
   408.78         14.7107
   408.92         14.1956
   409.06         13.6049
   409.20         12.9523
   409.34         12.2624
   409.48         11.5684
   409.62         10.9091
   409.76         10.3250
   409.90         9.8539
   410.04         9.5258
   410.18         9.3630
   410.32         9.3772
   410.46         9.5652
   410.60         9.9108
   410.74         10.3894
   410.88         10.9701
   411.02         11.6149
   411.16         12.2832
   411.30         12.9391
   411.44         13.5555
   411.58         14.1145
   411.72         14.6084
   411.86         15.0375
   412.00         15.4069
   412.14         15.7247
   412.28         16.0006
   412.42         16.2451
   412.56         16.4668
   412.70         16.6742
   412.84         16.8764
   412.98         17.0791
   413.12         17.2813
   413.26         17.4798
   413.40         17.6709
   413.54         17.8511
   413.68         18.0161
   413.82         18.1632
   413.96         18.2918
   414.10         18.4011
   414.24         18.4916
   414.38         18.5649
   414.52         18.6215
   414.66         18.6619
   414.80         18.6881
   414.94         18.7028
   415.08         18.7088
   415.22         18.7085
   415.36         18.7049
   415.50         18.7006
   415.64         18.6959
   415.78         18.6904
   415.92         18.6838
   416.06         18.6763
   416.20         18.6676
   416.34         18.6559
   416.48         18.6384
   416.62         18.6120
   416.76         18.5741
   416.90         18.5245
   417.04         18.4643
   417.18         18.3965
   417.32         18.3275
   417.46         18.2654
   417.60         18.2149
   417.74         18.1777
   417.88         18.1561
   418.02         18.1527
   418.16         18.1689
   418.30         18.2028
   418.44         18.2489
   418.58         18.3001
   418.72         18.3504
   418.86         18.3942
   419.00         18.4251
   419.14         18.4386
   419.28         18.4337
   419.42         18.4128
   419.56         18.3818
   419.70         18.3479
   419.84         18.3191
   419.98         18.3022
   420.12         18.3009
   420.26         18.3155
   420.40         18.3453
   420.54         18.3872
   420.68         18.4342
   420.82         18.4770
   420.96         18.5065
   421.10         18.5147
   421.24         18.4967
   421.38         18.4524
   421.52         18.3843
   421.66         18.2977
   421.80         18.2018
   421.94         18.1067
   422.08         18.0208
   422.22         17.9499
   422.36         17.8958
   422.50         17.8584
   422.64         17.8368
   422.78         17.8301
   422.92         17.8370
   423.06         17.8559
   423.20         17.8859
   423.34         17.9252
   423.48         17.9688
   423.62         18.0092
   423.76         18.0383
   423.90         18.0498
   424.04         18.0411
   424.18         18.0122
   424.32         17.9666
   424.46         17.9091
   424.60         17.8443
   424.74         17.7766
   424.88         17.7101
   425.02         17.6483
   425.16         17.5955
   425.30         17.5559
   425.44         17.5332
   425.58         17.5284
   425.72         17.5402
   425.86         17.5632
   426.00         17.5883
   426.14         17.6060
   426.28         17.6104
   426.42         17.5989
   426.56         17.5738
   426.70         17.5405
   426.84         17.5047
   426.98         17.4703
   427.12         17.4391
   427.26         17.4117
   427.40         17.3884
   427.54         17.3691
   427.68         17.3535
   427.82         17.3418
   427.96         17.3321
   428.10         17.3208
   428.24         17.3030
   428.38         17.2743
   428.52         17.2313
   428.66         17.1712
   428.80         17.0938
   428.94         17.0019
   429.08         16.8998
   429.22         16.7920
   429.36         16.6820
   429.50         16.5709
   429.64         16.4586
   429.78         16.3465
   429.92         16.2388
   430.06         16.1408
   430.20         16.0540
   430.34         15.9767
   430.48         15.9067
   430.62         15.8415
   430.76         15.7791
   430.90         15.7156
   431.04         15.6452
   431.18         15.5613
   431.32         15.4594
   431.46         15.3375
   431.60         15.1942
   431.74         15.0289
   431.88         14.8416
   432.02         14.6307
   432.16         14.3934
   432.30         14.1264
   432.44         13.8254
   432.58         13.4834
   432.72         13.0913
   432.86         12.6413
   433.00         12.1327
   433.14         11.5757
   433.28         10.9903
   433.42         10.4034
   433.56         9.8457
   433.70         9.3494
   433.84         8.9452
   433.98         8.6578
   434.12         8.5031
   434.26         8.4898
   434.40         8.6198
   434.54         8.8839
   434.68         9.2618
   434.82         9.7262
   434.96         10.2463
   435.10         10.7915
   435.24         11.3355
   435.38         11.8589
   435.52         12.3515
   435.66         12.8101
   435.80         13.2350
   435.94         13.6276
   436.08         13.9888
   436.22         14.3177
   436.36         14.6119
   436.50         14.8701
   436.64         15.0943
   436.78         15.2896
   436.92         15.4623
   437.06         15.6146
   437.20         15.7434
   437.34         15.8469
   437.48         15.9269
   437.62         15.9872
   437.76         16.0323
   437.90         16.0664
   438.04         16.0939
   438.18         16.1188
   438.32         16.1429
   438.46         16.1665
   438.60         16.1908
   438.74         16.2179
   438.88         16.2479
   439.02         16.2790
   439.16         16.3100
   439.30         16.3393
   439.44         16.3633
   439.58         16.3769
   439.72         16.3780
   439.86         16.3703
   440.00         16.3615
   440.14         16.3585
   440.28         16.3642
   440.42         16.3768
   440.56         16.3939
   440.70         16.4142
   440.84         16.4378
   440.98         16.4648
   441.12         16.4945
   441.26         16.5270
   441.40         16.5617
   441.54         16.5965
   441.68         16.6300
   441.82         16.6624
   441.96         16.6916
   442.10         16.7137
   442.24         16.7260
   442.38         16.7292
   442.52         16.7249
   442.66         16.7135
   442.80         16.6944
   442.94         16.6672
   443.08         16.6334
   443.22         16.5967
   443.36         16.5614
   443.50         16.5306
   443.64         16.5041
   443.78         16.4806
   443.92         16.4607
   444.06         16.4443
   444.20         16.4289
   444.34         16.4118
   444.48         16.3912
   444.62         16.3651
   444.76         16.3322
   444.90         16.2956
   445.04         16.2590
   445.18         16.2238
   445.32         16.1886
   445.46         16.1509
   445.60         16.1081
   445.74         16.0585
   445.88         16.0022
   446.02         15.9437
   446.16         15.8886
   446.30         15.8411
   446.44         15.8045
   446.58         15.7804
   446.72         15.7674
   446.86         15.7612
   447.00         15.7571
   447.14         15.7525
   447.28         15.7466
   447.42         15.7416
   447.56         15.7399
   447.70         15.7408
   447.84         15.7431
   447.98         15.7461
   448.12         15.7495
   448.26         15.7546
   448.40         15.7640
   448.54         15.7814
   448.68         15.8080
   448.82         15.8405
   448.96         15.8741
   449.10         15.9059
   449.24         15.9338
   449.38         15.9557
   449.52         15.9710
   449.66         15.9831
   449.80         15.9970
   449.94         16.0149
   450.08         16.0341
   450.22         16.0495
   450.36         16.0583
   450.50         16.0601
   450.64         16.0539
   450.78         16.0380
   450.92         16.0107
   451.06         15.9710
   451.20         15.9176
   451.34         15.8504
   451.48         15.7718
   451.62         15.6870
   451.76         15.6009
   451.90         15.5169
   452.04         15.4370
   452.18         15.3634
   452.32         15.2993
   452.46         15.2470
   452.60         15.2083
   452.74         15.1851
   452.88         15.1777
   453.02         15.1855
   453.16         15.2065
   453.30         15.2364
   453.44         15.2689
   453.58         15.2976
   453.72         15.3155
   453.86         15.3180
   454.00         15.3038
   454.14         15.2730
   454.28         15.2268
   454.42         15.1687
   454.56         15.1043
   454.70         15.0412
   454.84         14.9901
   454.98         14.9599
   455.12         14.9536
   455.26         14.9711
   455.40         15.0091
   455.54         15.0607
   455.68         15.1177
   455.82         15.1722
   455.96         15.2152
   456.10         15.2392
   456.24         15.2409
   456.38         15.2218
   456.52         15.1865
   456.66         15.1403
   456.80         15.0875
   456.94         15.0328
   457.08         14.9806
   457.22         14.9332
   457.36         14.8925
   457.50         14.8594
   457.64         14.8324
   457.78         14.8097
   457.92         14.7921
   458.06         14.7811
   458.20         14.7761
   458.34         14.7755
   458.48         14.7776
   458.62         14.7813
   458.76         14.7861
   458.90         14.7916
   459.04         14.7971
   459.18         14.8009
   459.32         14.8004
   459.46         14.7929
   459.60         14.7780
   459.74         14.7570
   459.88         14.7311
   460.02         14.7019
   460.16         14.6722
   460.30         14.6456
   460.44         14.6235
   460.58         14.6049
   460.72         14.5870
   460.86         14.5679
   461.00         14.5482
   461.14         14.5311
   461.28         14.5187
   461.42         14.5118
   461.56         14.5105
   461.70         14.5137
   461.84         14.5194
   461.98         14.5253
   462.12         14.5305
   462.26         14.5351
   462.40         14.5383
   462.54         14.5377
   462.68         14.5324
   462.82         14.5245
   462.96         14.5155
   463.10         14.5063
   463.24         14.4981
   463.38         14.4932
   463.52         14.4937
   463.66         14.5000
   463.80         14.5097
   463.94         14.5207
   464.08         14.5324
   464.22         14.5435
   464.36         14.5538
   464.50         14.5646
   464.64         14.5748
   464.78         14.5822
   464.92         14.5869
   465.06         14.5894
   465.20         14.5885
   465.34         14.5815
   465.48         14.5678
   465.62         14.5489
   465.76         14.5252
   465.90         14.4962
   466.04         14.4623
   466.18         14.4257
   466.32         14.3883
   466.46         14.3515
   466.60         14.3166
   466.74         14.2838
   466.88         14.2537
   467.02         14.2295
   467.16         14.2140
   467.30         14.2082
   467.44         14.2141
   467.58         14.2327
   467.72         14.2620
   467.86         14.2974
   468.00         14.3348
   468.14         14.3716
   468.28         14.4041
   468.42         14.4270
   468.56         14.4365
   468.70         14.4313
   468.84         14.4099
   468.98         14.3722
   469.12         14.3221
   469.26         14.2661
   469.40         14.2112
   469.54         14.1631
   469.68         14.1256
   469.82         14.0998
   469.96         14.0850
   470.10         14.0793
   470.24         14.0801
   470.38         14.0840
   470.52         14.0865
   470.66         14.0820
   470.80         14.0670
   470.94         14.0406
   471.08         14.0037
   471.22         13.9587
   471.36         13.9088
   471.50         13.8578
   471.64         13.8102
   471.78         13.7703
   471.92         13.7402
   472.06         13.7196
   472.20         13.7074
   472.34         13.7022
   472.48         13.7014
   472.62         13.7023
   472.76         13.7021
   472.90         13.6986
   473.04         13.6893
   473.18         13.6727
   473.32         13.6487
   473.46         13.6199
   473.60         13.5900
   473.74         13.5615
   473.88         13.5365
   474.02         13.5157
   474.16         13.4990
   474.30         13.4856
   474.44         13.4745
   474.58         13.4641
   474.72         13.4527
   474.86         13.4380
   475.00         13.4181
   475.14         13.3933
   475.28         13.3658
   475.42         13.3374
   475.56         13.3089
   475.70         13.2809
   475.84         13.2550
   475.98         13.2327
   476.12         13.2151
   476.26         13.2024
   476.40         13.1946
   476.54         13.1921
   476.68         13.1950
   476.82         13.2017
   476.96         13.2100
   477.10         13.2176
   477.24         13.2220
   477.38         13.2216
   477.52         13.2145
   477.66         13.2003
   477.80         13.1802
   477.94         13.1559
   478.08         13.1285
   478.22         13.0990
   478.36         13.0687
   478.50         13.0390
   478.64         13.0120
   478.78         12.9884
   478.92         12.9683
   479.06         12.9514
   479.20         12.9368
   479.34         12.9228
   479.48         12.9069
   479.62         12.8862
   479.76         12.8577
   479.90         12.8194
   480.04         12.7709
   480.18         12.7132
   480.32         12.6483
   480.46         12.5793
   480.60         12.5101
   480.74         12.4444
   480.88         12.3847
   481.02         12.3330
   481.16         12.2907
   481.30         12.2570
   481.44         12.2294
   481.58         12.2052
   481.72         12.1810
   481.86         12.1531
   482.00         12.1190
   482.14         12.0773
   482.28         12.0276
   482.42         11.9699
   482.56         11.9043
   482.70         11.8317
   482.84         11.7522
   482.98         11.6657
   483.12         11.5714
   483.26         11.4676
   483.40         11.3509
   483.54         11.2178
   483.68         11.0662
   483.82         10.8953
   483.96         10.7053
   484.10         10.4959
   484.24         10.2669
   484.38         10.0178
   484.52         9.7484
   484.66         9.4578
   484.80         9.1442
   484.94         8.8077
   485.08         8.4535
   485.22         8.0936
   485.36         7.7450
   485.50         7.4264
   485.64         7.1562
   485.78         6.9510
   485.92         6.8241
   486.06         6.7840
   486.20         6.8336
   486.34         6.9690
   486.48         7.1783
   486.62         7.4449
   486.76         7.7505
   486.90         8.0780
   487.04         8.4108
   487.18         8.7343
   487.32         9.0370
   487.46         9.3128
   487.60         9.5610
   487.74         9.7846
   487.88         9.9878
   488.02         10.1750
   488.16         10.3502
   488.30         10.5167
   488.44         10.6757
   488.58         10.8274
   488.72         10.9716
   488.86         11.1072
   489.00         11.2325
   489.14         11.3471
   489.28         11.4521
   489.42         11.5481
   489.56         11.6329
   489.70         11.7029
   489.84         11.7544
   489.98         11.7855
   490.12         11.7971
   490.26         11.7926
   490.40         11.7765
   490.54         11.7529
   490.68         11.7252
   490.82         11.6949
   490.96         11.6615
   491.10         11.6249
   491.24         11.5868
   491.38         11.5509
   491.52         11.5207
   491.66         11.5000
   491.80         11.4912
   491.94         11.4953
   492.08         11.5108
   492.22         11.5356
   492.36         11.5674
   492.50         11.6047
   492.64         11.6463
   492.78         11.6915
   492.92         11.7388
   493.06         11.7857
   493.20         11.8304
   493.34         11.8710
   493.48         11.9064
   493.62         11.9359
   493.76         11.9602
   493.90         11.9803
   494.04         11.9967
   494.18         12.0080
   494.32         12.0118
   494.46         12.0054
   494.60         11.9873
   494.74         11.9580
   494.88         11.9197
   495.02         11.8758
   495.16         11.8306
   495.30         11.7881
   495.44         11.7517
   495.58         11.7237
   495.72         11.7055
   495.86         11.6970
   496.00         11.6966
   496.14         11.7022
   496.28         11.7111
   496.42         11.7213
   496.56         11.7313
   496.70         11.7401
   496.84         11.7467
   496.98         11.7494
   497.12         11.7469
   497.26         11.7387
   497.40         11.7254
   497.54         11.7077
   497.68         11.6872
   497.82         11.6662
   497.96         11.6462
   498.10         11.6282
   498.24         11.6135
   498.38         11.6030
   498.52         11.5973
   498.66         11.5965
   498.80         11.6005
   498.94         11.6081
   499.08         11.6166
   499.22         11.6212
   499.36         11.6161
   499.50         11.5972
   499.64         11.5636
   499.78         11.5186
   499.92         11.4666
   500.06         11.4117
   500.20         11.3572
   500.34         11.3062
   500.48         11.2599
   500.62         11.2174
   500.76         11.1780
   500.90         11.1428
   501.04         11.1127
   501.18         11.0886
   501.32         11.0712
   501.46         11.0605
   501.60         11.0559
   501.74         11.0565
   501.88         11.0626
   502.02         11.0756
   502.16         11.0969
   502.30         11.1261
   502.44         11.1606
   502.58         11.1965
   502.72         11.2300
   502.86         11.2579
   503.00         11.2770
   503.14         11.2858
   503.28         11.2855
   503.42         11.2800
   503.56         11.2726
   503.70         11.2640
   503.84         11.2546
   503.98         11.2452
   504.12         11.2365
   504.26         11.2283
   504.40         11.2196
   504.54         11.2095
   504.68         11.1976
   504.82         11.1844
   504.96         11.1707
   505.10         11.1565
   505.24         11.1411
   505.38         11.1235
   505.52         11.1037
   505.66         11.0836
   505.80         11.0661
   505.94         11.0530
   506.08         11.0438
   506.22         11.0371
   506.36         11.0327
   506.50         11.0311
   506.64         11.0323
   506.78         11.0340
   506.92         11.0330
   507.06         11.0279
   507.20         11.0183
   507.34         11.0042
   507.48         10.9858
   507.62         10.9635
   507.76         10.9388
   507.90         10.9142
   508.04         10.8924
   508.18         10.8768
   508.32         10.8692
   508.46         10.8691
   508.60         10.8742
   508.74         10.8814
   508.88         10.8873
   509.02         10.8899
   509.16         10.8878
   509.30         10.8797
   509.44         10.8652
   509.58         10.8450
   509.72         10.8214
   509.86         10.7966
   510.00         10.7734
   510.14         10.7553
   510.28         10.7458
   510.42         10.7466
   510.56         10.7575
   510.70         10.7779
   510.84         10.8058
   510.98         10.8375
   511.12         10.8688
   511.26         10.8959
   511.40         10.9154
   511.54         10.9248
   511.68         10.9228
   511.82         10.9092
   511.96         10.8852
   512.10         10.8527
   512.24         10.8146
   512.38         10.7749
   512.52         10.7373
   512.66         10.7043
   512.80         10.6767
   512.94         10.6547
   513.08         10.6381
   513.22         10.6262
   513.36         10.6177
   513.50         10.6109
   513.64         10.6046
   513.78         10.5978
   513.92         10.5905
   514.06         10.5819
   514.20         10.5713
   514.34         10.5584
   514.48         10.5436
   514.62         10.5274
   514.76         10.5092
   514.90         10.4887
   515.04         10.4653
   515.18         10.4389
   515.32         10.4088
   515.46         10.3742
   515.60         10.3345
   515.74         10.2888
   515.88         10.2370
   516.02         10.1804
   516.16         10.1219
   516.30         10.0657
   516.44         10.0167
   516.58         9.9793
   516.72         9.9569
   516.86         9.9508
   517.00         9.9611
   517.14         9.9849
   517.28         10.0175
   517.42         10.0534
   517.56         10.0871
   517.70         10.1138
   517.84         10.1292
   517.98         10.1309
   518.12         10.1186
   518.26         10.0948
   518.40         10.0639
   518.54         10.0307
   518.68         9.9997
   518.82         9.9747
   518.96         9.9574
   519.10         9.9475
   519.24         9.9424
   519.38         9.9386
   519.52         9.9330
   519.66         9.9243
   519.80         9.9132
   519.94         9.9024
   520.08         9.8943
   520.22         9.8904
   520.36         9.8901
   520.50         9.8933
   520.64         9.9001
   520.78         9.9103
   520.92         9.9233
   521.06         9.9379
   521.20         9.9522
   521.34         9.9636
   521.48         9.9689
   521.62         9.9657
   521.76         9.9525
   521.90         9.9292
   522.04         9.8975
   522.18         9.8598
   522.32         9.8195
   522.46         9.7802
   522.60         9.7455
   522.74         9.7180
   522.88         9.6987
   523.02         9.6889
   523.16         9.6898
   523.30         9.7015
   523.44         9.7226
   523.58         9.7507
   523.72         9.7824
   523.86         9.8141
   524.00         9.8425
   524.14         9.8658
   524.28         9.8832
   524.42         9.8943
   524.56         9.8991
   524.70         9.8984
   524.84         9.8933
   524.98         9.8845
   525.12         9.8722
   525.26         9.8552
   525.40         9.8311
   525.54         9.7976
   525.68         9.7539
   525.82         9.7007
   525.96         9.6388
   526.10         9.5698
   526.24         9.4959
   526.38         9.4200
   526.52         9.3459
   526.66         9.2781
   526.80         9.2211
   526.94         9.1782
   527.08         9.1515
   527.22         9.1420
   527.36         9.1495
   527.50         9.1722
   527.64         9.2073
   527.78         9.2515
   527.92         9.3018
   528.06         9.3545
   528.20         9.4073
   528.34         9.4586
   528.48         9.5075
   528.62         9.5529
   528.76         9.5945
   528.90         9.6322
   529.04         9.6655
   529.18         9.6940
   529.32         9.7169
   529.46         9.7331
   529.60         9.7413
   529.74         9.7410
   529.88         9.7318
   530.02         9.7136
   530.16         9.6865
   530.30         9.6510
   530.44         9.6086
   530.58         9.5617
   530.72         9.5129
   530.86         9.4657
   531.00         9.4234
   531.14         9.3884
   531.28         9.3620
   531.42         9.3437
   531.56         9.3318
   531.70         9.3237
   531.84         9.3183
   531.98         9.3150
   532.12         9.3134
   532.26         9.3124
   532.40         9.3114
   532.54         9.3101
   532.68         9.3087
   532.82         9.3086
   532.96         9.3111
   533.10         9.3177
   533.24         9.3289
   533.38         9.3441
   533.52         9.3619
   533.66         9.3808
   533.80         9.3993
   533.94         9.4153
   534.08         9.4278
   534.22         9.4369
   534.36         9.4440
   534.50         9.4504
   534.64         9.4558
   534.78         9.4585
   534.92         9.4567
   535.06         9.4493
   535.20         9.4360
   535.34         9.4169
   535.48         9.3922
   535.62         9.3624
   535.76         9.3285
   535.90         9.2917
   536.04         9.2539
   536.18         9.2171
   536.32         9.1843
   536.46         9.1580
   536.60         9.1402
   536.74         9.1324
   536.88         9.1347
   537.02         9.1454
   537.16         9.1614
   537.30         9.1793
   537.44         9.1967
   537.58         9.2121
   537.72         9.2238
   537.86         9.2304
   538.00         9.2310
   538.14         9.2258
   538.28         9.2155
   538.42         9.2005
   538.56         9.1819
   538.70         9.1612
   538.84         9.1403
   538.98         9.1203
   539.12         9.1013
   539.26         9.0831
   539.40         9.0657
   539.54         9.0493
   539.68         9.0342
   539.82         9.0202
   539.96         9.0074
   540.10         8.9962
   540.24         8.9860
   540.38         8.9762
   540.52         8.9667
   540.66         8.9585
   540.80         8.9521
   540.94         8.9476
   541.08         8.9444
   541.22         8.9423
   541.36         8.9413
   541.50         8.9416
   541.64         8.9431
   541.78         8.9459
   541.92         8.9495
   542.06         8.9531
   542.20         8.9551
   542.34         8.9549
   542.48         8.9521
   542.62         8.9471
   542.76         8.9405
   542.90         8.9336
   543.04         8.9275
   543.18         8.9230
   543.32         8.9198
   543.46         8.9168
   543.60         8.9123
   543.74         8.9054
   543.88         8.8967
   544.02         8.8868
   544.16         8.8756
   544.30         8.8625
   544.44         8.8471
   544.58         8.8303
   544.72         8.8134
   544.86         8.7983
   545.00         8.7863
   545.14         8.7784
   545.28         8.7747
   545.42         8.7749
   545.56         8.7772
   545.70         8.7788
   545.84         8.7769
   545.98         8.7694
   546.12         8.7553
   546.26         8.7345
   546.40         8.7075
   546.54         8.6757
   546.68         8.6404
   546.82         8.6034
   546.96         8.5675
   547.10         8.5358
   547.24         8.5113
   547.38         8.4958
   547.52         8.4895
   547.66         8.4918
   547.80         8.5014
   547.94         8.5159
   548.08         8.5325
   548.22         8.5486
   548.36         8.5617
   548.50         8.5708
   548.64         8.5753
   548.78         8.5752
   548.92         8.5717
   549.06         8.5666
   549.20         8.5621
   549.34         8.5598
   549.48         8.5600
   549.62         8.5618
   549.76         8.5640
   549.90         8.5650
   550.04         8.5631
   550.18         8.5577
   550.32         8.5490
   550.46         8.5381
   550.60         8.5258
   550.74         8.5139
   550.88         8.5040
   551.02         8.4975
   551.16         8.4949
   551.30         8.4962
   551.44         8.5008
   551.58         8.5071
   551.72         8.5131
   551.86         8.5164
   552.00         8.5149
   552.14         8.5073
   552.28         8.4931
   552.42         8.4733
   552.56         8.4501
   552.70         8.4260
   552.84         8.4035
   552.98         8.3843
   553.12         8.3699
   553.26         8.3609
   553.40         8.3574
   553.54         8.3587
   553.68         8.3638
   553.82         8.3723
   553.96         8.3840
   554.10         8.3990
   554.24         8.4162
   554.38         8.4337
   554.52         8.4491
   554.66         8.4605
   554.80         8.4661
   554.94         8.4648
   555.08         8.4566
   555.22         8.4422
   555.36         8.4219
   555.50         8.3967
   555.64         8.3674
   555.78         8.3358
   555.92         8.3040
   556.06         8.2744
   556.20         8.2489
   556.34         8.2290
   556.48         8.2156
   556.62         8.2090
   556.76         8.2088
   556.90         8.2141
   557.04         8.2237
   557.18         8.2366
   557.32         8.2512
   557.46         8.2654
   557.60         8.2761
   557.74         8.2809
   557.88         8.2787
   558.02         8.2688
   558.16         8.2510
   558.30         8.2262
   558.44         8.1962
   558.58         8.1635
   558.72         8.1298
   558.86         8.0969
   559.00         8.0666
   559.14         8.0407
   559.28         8.0208
   559.42         8.0083
   559.56         8.0035
   559.70         8.0058
   559.84         8.0136
   559.98         8.0252
   560.12         8.0395
   560.26         8.0552
   560.40         8.0708
   560.54         8.0846
   560.68         8.0945
   560.82         8.0990
   560.96         8.0979
   561.10         8.0916
   561.24         8.0811
   561.38         8.0676
   561.52         8.0533
   561.66         8.0407
   561.80         8.0321
   561.94         8.0291
   562.08         8.0318
   562.22         8.0388
   562.36         8.0480
   562.50         8.0578
   562.64         8.0670
   562.78         8.0746
   562.92         8.0789
   563.06         8.0796
   563.20         8.0774
   563.34         8.0732
   563.48         8.0677
   563.62         8.0609
   563.76         8.0532
   563.90         8.0448
   564.04         8.0359
   564.18         8.0262
   564.32         8.0148
   564.46         8.0007
   564.60         7.9829
   564.74         7.9606
   564.88         7.9342
   565.02         7.9042
   565.16         7.8718
   565.30         7.8381
   565.44         7.8046
   565.58         7.7736
   565.72         7.7476
   565.86         7.7282
   566.00         7.7163
   566.14         7.7120
   566.28         7.7154
   566.42         7.7257
   566.56         7.7415
   566.70         7.7606
   566.84         7.7803
   566.98         7.7979
   567.12         7.8116
   567.26         7.8203
   567.40         7.8235
   567.54         7.8215
   567.68         7.8153
   567.82         7.8073
   567.96         7.8002
   568.10         7.7964
   568.24         7.7973
   568.38         7.8028
   568.52         7.8114
   568.66         7.8213
   568.80         7.8307
   568.94         7.8379
   569.08         7.8415
   569.22         7.8403
   569.36         7.8332
   569.50         7.8198
   569.64         7.8006
   569.78         7.7770
   569.92         7.7508
   570.06         7.7242
   570.20         7.6997
   570.34         7.6791
   570.48         7.6634
   570.62         7.6522
   570.76         7.6439
   570.90         7.6369
   571.04         7.6297
   571.18         7.6222
   571.32         7.6150
   571.46         7.6089
   571.60         7.6047
   571.74         7.6025
   571.88         7.6024
   572.02         7.6046
   572.16         7.6093
   572.30         7.6168
   572.44         7.6271
   572.58         7.6392
   572.72         7.6519
   572.86         7.6636
   573.00         7.6732
   573.14         7.6796
   573.28         7.6820
   573.42         7.6800
   573.56         7.6735
   573.70         7.6632
   573.84         7.6497
   573.98         7.6329
   574.12         7.6132
   574.26         7.5910
   574.40         7.5673
   574.54         7.5434
   574.68         7.5203
   574.82         7.4989
   574.96         7.4797
   575.10         7.4627
   575.24         7.4479
   575.38         7.4351
   575.52         7.4240
   575.66         7.4146
   575.80         7.4066
   575.94         7.4000
   576.08         7.3948
   576.22         7.3910
   576.36         7.3890
   576.50         7.3892
   576.64         7.3914
   576.78         7.3955
   576.92         7.4013
   577.06         7.4082
   577.20         7.4152
   577.34         7.4212
   577.48         7.4253
   577.62         7.4270
   577.76         7.4258
   577.90         7.4213
   578.04         7.4137
   578.18         7.4033
   578.32         7.3909
   578.46         7.3772
   578.60         7.3631
   578.74         7.3499
   578.88         7.3389
   579.02         7.3305
   579.16         7.3245
   579.30         7.3208
   579.44         7.3193
   579.58         7.3198
   579.72         7.3223
   579.86         7.3263
   580.00         7.3312
   580.14         7.3361
   580.28         7.3399
   580.42         7.3416
   580.56         7.3411
   580.70         7.3385
   580.84         7.3340
   580.98         7.3287
   581.12         7.3235
   581.26         7.3191
   581.40         7.3153
   581.54         7.3117
   581.68         7.3079
   581.82         7.3044
   581.96         7.3015
   582.10         7.2990
   582.24         7.2962
   582.38         7.2924
   582.52         7.2874
   582.66         7.2814
   582.80         7.2745
   582.94         7.2672
   583.08         7.2598
   583.22         7.2521
   583.36         7.2434
   583.50         7.2333
   583.64         7.2216
   583.78         7.2081
   583.92         7.1934
   584.06         7.1783
   584.20         7.1630
   584.34         7.1477
   584.48         7.1327
   584.62         7.1183
   584.76         7.1051
   584.90         7.0940
   585.04         7.0863
   585.18         7.0826
   585.32         7.0831
   585.46         7.0873
   585.60         7.0950
   585.74         7.1059
   585.88         7.1194
   586.02         7.1345
   586.16         7.1502
   586.30         7.1651
   586.44         7.1772
   586.58         7.1840
   586.72         7.1838
   586.86         7.1753
   587.00         7.1584
   587.14         7.1337
   587.28         7.1025
   587.42         7.0663
   587.56         7.0268
   587.70         6.9851
   587.84         6.9420
   587.98         6.8989
   588.12         6.8579
   588.26         6.8209
   588.40         6.7890
   588.54         6.7637
   588.68         6.7455
   588.82         6.7354
   588.96         6.7342
   589.10         6.7419
   589.24         6.7590
   589.38         6.7852
   589.52         6.8194
   589.66         6.8586
   589.80         6.8998
   589.94         6.9399
   590.08         6.9758
   590.22         7.0047
   590.36         7.0248
   590.50         7.0362
   590.64         7.0397
   590.78         7.0362
   590.92         7.0269
   591.06         7.0139
   591.20         6.9988
   591.34         6.9823
   591.48         6.9646
   591.62         6.9462
   591.76         6.9278
   591.90         6.9097
   592.04         6.8923
   592.18         6.8757
   592.32         6.8608
   592.46         6.8496
   592.60         6.8436
   592.74         6.8428
   592.88         6.8464
   593.02         6.8531
   593.16         6.8610
   593.30         6.8682
   593.44         6.8725
   593.58         6.8722
   593.72         6.8659
   593.86         6.8523
   594.00         6.8312
   594.14         6.8048
   594.28         6.7766
   594.42         6.7498
   594.56         6.7269
   594.70         6.7102
   594.84         6.7014
   594.98         6.7019
   595.12         6.7117
   595.26         6.7286
   595.40         6.7492
   595.54         6.7708
   595.68         6.7909
   595.82         6.8072
   595.96         6.8181
   596.10         6.8228
   596.24         6.8209
   596.38         6.8127
   596.52         6.7991
   596.66         6.7812
   596.80         6.7604
   596.94         6.7388
   597.08         6.7190
   597.22         6.7033
   597.36         6.6932
   597.50         6.6893
   597.64         6.6905
   597.78         6.6943
   597.92         6.6981
   598.06         6.7003
   598.20         6.7000
   598.34         6.6971
   598.48         6.6920
   598.62         6.6855
   598.76         6.6784
   598.90         6.6716
   599.04         6.6660
   599.18         6.6624
   599.32         6.6612
   599.46         6.6625
   599.60         6.6660
   599.74         6.6703
   599.88         6.6729
   600.02         6.6721
   600.16         6.6670
   600.30         6.6577
   600.44         6.6457
   600.58         6.6332
   600.72         6.6217
   600.86         6.6123
   601.00         6.6054
   601.14         6.6008
   601.28         6.5976
   601.42         6.5944
   601.56         6.5898
   601.70         6.5821
   601.84         6.5697
   601.98         6.5517
   602.12         6.5280
   602.26         6.4998
   602.40         6.4690
   602.54         6.4379
   602.68         6.4091
   602.82         6.3849
   602.96         6.3671
   603.10         6.3566
   603.24         6.3533
   603.38         6.3572
   603.52         6.3680
   603.66         6.3856
   603.80         6.4085
   603.94         6.4344
   604.08         6.4605
   604.22         6.4839
   604.36         6.5017
   604.50         6.5115
   604.64         6.5128
   604.78         6.5059
   604.92         6.4920
   605.06         6.4727
   605.20         6.4502
   605.34         6.4266
   605.48         6.4035
   605.62         6.3824
   605.76         6.3651
   605.90         6.3531
   606.04         6.3467
   606.18         6.3455
   606.32         6.3477
   606.46         6.3511
   606.60         6.3534
   606.74         6.3533
   606.88         6.3498
   607.02         6.3424
   607.16         6.3311
   607.30         6.3158
   607.44         6.2967
   607.58         6.2742
   607.72         6.2490
   607.86         6.2226
   608.00         6.1968
   608.14         6.1738
   608.28         6.1559
   608.42         6.1440
   608.56         6.1385
   608.70         6.1391
   608.84         6.1454
   608.98         6.1559
   609.12         6.1687
   609.26         6.1824
   609.40         6.1955
   609.54         6.2068
   609.68         6.2157
   609.82         6.2221
   609.96         6.2259
   610.10         6.2280
   610.24         6.2296
   610.38         6.2319
   610.52         6.2351
   610.66         6.2392
   610.80         6.2436
   610.94         6.2476
   611.08         6.2508
   611.22         6.2531
   611.36         6.2533
   611.50         6.2502
   611.64         6.2432
   611.78         6.2328
   611.92         6.2191
   612.06         6.2026
   612.20         6.1837
   612.34         6.1626
   612.48         6.1383
   612.62         6.1103
   612.76         6.0798
   612.90         6.0487
   613.04         6.0186
   613.18         5.9910
   613.32         5.9679
   613.46         5.9512
   613.60         5.9420
   613.74         5.9400
   613.88         5.9444
   614.02         5.9542
   614.16         5.9686
   614.30         5.9865
   614.44         6.0059
   614.58         6.0245
   614.72         6.0399
   614.86         6.0499
   615.00         6.0535
   615.14         6.0512
   615.28         6.0448
   615.42         6.0362
   615.56         6.0262
   615.70         6.0149
   615.84         6.0022
   615.98         5.9881
   616.12         5.9724
   616.26         5.9557
   616.40         5.9397
   616.54         5.9264
   616.68         5.9169
   616.82         5.9116
   616.96         5.9101
   617.10         5.9121
   617.24         5.9171
   617.38         5.9252
   617.52         5.9358
   617.66         5.9478
   617.80         5.9599
   617.94         5.9703
   618.08         5.9774
   618.22         5.9798
   618.36         5.9782
   618.50         5.9743
   618.64         5.9703
   618.78         5.9680
   618.92         5.9685
   619.06         5.9718
   619.20         5.9765
   619.34         5.9811
   619.48         5.9842
   619.62         5.9846
   619.76         5.9820
   619.90         5.9772
   620.04         5.9700
   620.18         5.9601
   620.32         5.9473
   620.46         5.9312
   620.60         5.9120
   620.74         5.8907
   620.88         5.8692
   621.02         5.8495
   621.16         5.8329
   621.30         5.8195
   621.44         5.8096
   621.58         5.8031
   621.72         5.7996
   621.86         5.7977
   622.00         5.7957
   622.14         5.7916
   622.28         5.7850
   622.42         5.7760
   622.56         5.7650
   622.70         5.7516
   622.84         5.7355
   622.98         5.7177
   623.12         5.7003
   623.26         5.6860
   623.40         5.6772
   623.54         5.6752
   623.68         5.6795
   623.82         5.6887
   623.96         5.7006
   624.10         5.7129
   624.24         5.7238
   624.38         5.7320
   624.52         5.7372
   624.66         5.7398
   624.80         5.7411
   624.94         5.7419
   625.08         5.7418
   625.22         5.7397
   625.36         5.7353
   625.50         5.7292
   625.64         5.7224
   625.78         5.7159
   625.92         5.7100
   626.06         5.7040
   626.20         5.6968
   626.34         5.6879
   626.48         5.6777
   626.62         5.6668
   626.76         5.6558
   626.90         5.6445
   627.04         5.6327
   627.18         5.6203
   627.32         5.6069
   627.46         5.5926
   627.60         5.5774
   627.74         5.5618
   627.88         5.5479
   628.02         5.5374
   628.16         5.5313
   628.30         5.5300
   628.44         5.5341
   628.58         5.5433
   628.72         5.5566
   628.86         5.5732
   629.00         5.5924
   629.14         5.6128
   629.28         5.6319
   629.42         5.6474
   629.56         5.6578
   629.70         5.6625
   629.84         5.6616
   629.98         5.6549
   630.12         5.6422
   630.26         5.6241
   630.40         5.6020
   630.54         5.5775
   630.68         5.5516
   630.82         5.5255
   630.96         5.5006
   631.10         5.4781
   631.24         5.4587
   631.38         5.4435
   631.52         5.4336
   631.66         5.4298
   631.80         5.4316
   631.94         5.4382
   632.08         5.4485
   632.22         5.4613
   632.36         5.4754
   632.50         5.4897
   632.64         5.5032
   632.78         5.5151
   632.92         5.5255
   633.06         5.5342
   633.20         5.5414
   633.34         5.5469
   633.48         5.5499
   633.62         5.5499
   633.76         5.5463
   633.90         5.5387
   634.04         5.5273
   634.18         5.5127
   634.32         5.4953
   634.46         5.4753
   634.60         5.4544
   634.74         5.4347
   634.88         5.4188
   635.02         5.4085
   635.16         5.4046
   635.30         5.4068
   635.44         5.4137
   635.58         5.4225
   635.72         5.4304
   635.86         5.4349
   636.00         5.4344
   636.14         5.4291
   636.28         5.4203
   636.42         5.4100
   636.56         5.4002
   636.70         5.3920
   636.84         5.3859
   636.98         5.3818
   637.12         5.3800
   637.26         5.3806
   637.40         5.3823
   637.54         5.3837
   637.68         5.3830
   637.82         5.3792
   637.96         5.3719
   638.10         5.3609
   638.24         5.3461
   638.38         5.3286
   638.52         5.3105
   638.66         5.2944
   638.80         5.2823
   638.94         5.2744
   639.08         5.2706
   639.22         5.2702
   639.36         5.2724
   639.50         5.2764
   639.64         5.2810
   639.78         5.2842
   639.92         5.2843
   640.06         5.2802
   640.20         5.2720
   640.34         5.2607
   640.48         5.2476
   640.62         5.2341
   640.76         5.2207
   640.90         5.2081
   641.04         5.1979
   641.18         5.1918
   641.32         5.1902
   641.46         5.1925
   641.60         5.1984
   641.74         5.2075
   641.88         5.2193
   642.02         5.2333
   642.16         5.2483
   642.30         5.2631
   642.44         5.2770
   642.58         5.2905
   642.72         5.3045
   642.86         5.3188
   643.00         5.3327
   643.14         5.3456
   643.28         5.3565
   643.42         5.3646
   643.56         5.3695
   643.70         5.3714
   643.84         5.3702
   643.98         5.3668
   644.12         5.3619
   644.26         5.3559
   644.40         5.3485
   644.54         5.3393
   644.68         5.3279
   644.82         5.3144
   644.96         5.2997
   645.10         5.2845
   645.24         5.2693
   645.38         5.2539
   645.52         5.2390
   645.66         5.2255
   645.80         5.2144
   645.94         5.2063
   646.08         5.2013
   646.22         5.1991
   646.36         5.1992
   646.50         5.2010
   646.64         5.2035
   646.78         5.2048
   646.92         5.2032
   647.06         5.1975
   647.20         5.1877
   647.34         5.1746
   647.48         5.1590
   647.62         5.1419
   647.76         5.1239
   647.90         5.1061
   648.04         5.0897
   648.18         5.0754
   648.32         5.0629
   648.46         5.0509
   648.60         5.0382
   648.74         5.0243
   648.88         5.0093
   649.02         4.9939
   649.16         4.9795
   649.30         4.9673
   649.44         4.9585
   649.58         4.9543
   649.72         4.9558
   649.86         4.9629
   650.00         4.9747
   650.14         4.9893
   650.28         5.0045
   650.42         5.0182
   650.56         5.0288
   650.70         5.0350
   650.84         5.0356
   650.98         5.0302
   651.12         5.0190
   651.26         5.0029
   651.40         4.9832
   651.54         4.9608
   651.68         4.9366
   651.82         4.9112
   651.96         4.8852
   652.10         4.8592
   652.24         4.8341
   652.38         4.8104
   652.52         4.7879
   652.66         4.7665
   652.80         4.7455
   652.94         4.7243
   653.08         4.7025
   653.22         4.6793
   653.36         4.6537
   653.50         4.6248
   653.64         4.5922
   653.78         4.5556
   653.92         4.5146
   654.06         4.4690
   654.20         4.4190
   654.34         4.3653
   654.48         4.3084
   654.62         4.2484
   654.76         4.1845
   654.90         4.1151
   655.04         4.0373
   655.18         3.9482
   655.32         3.8466
   655.46         3.7342
   655.60         3.6161
   655.74         3.4996
   655.88         3.3924
   656.02         3.3020
   656.16         3.2353
   656.30         3.1968
   656.44         3.1888
   656.58         3.2112
   656.72         3.2620
   656.86         3.3373
   657.00         3.4313
   657.14         3.5371
   657.28         3.6472
   657.42         3.7548
   657.56         3.8546
   657.70         3.9438
   657.84         4.0223
   657.98         4.0924
   658.12         4.1569
   658.26         4.2177
   658.40         4.2756
   658.54         4.3302
   658.68         4.3813
   658.82         4.4285
   658.96         4.4711
   659.10         4.5083
   659.24         4.5395
   659.38         4.5651
   659.52         4.5854
   659.66         4.6018
   659.80         4.6152
   659.94         4.6264
   660.08         4.6358
   660.22         4.6444
   660.36         4.6533
   660.50         4.6634
   660.64         4.6743
   660.78         4.6848
   660.92         4.6943
   661.06         4.7025
   661.20         4.7094
   661.34         4.7144
   661.48         4.7171
   661.62         4.7173
   661.76         4.7164
   661.90         4.7162
   662.04         4.7183
   662.18         4.7232
   662.32         4.7306
   662.46         4.7402
   662.60         4.7522
   662.74         4.7670
   662.88         4.7842
   663.02         4.8025
   663.16         4.8195
   663.30         4.8333
   663.44         4.8434
   663.58         4.8505
   663.72         4.8549
   663.86         4.8570
   664.00         4.8571
   664.14         4.8557
   664.28         4.8538
   664.42         4.8521
   664.56         4.8505
   664.70         4.8481
   664.84         4.8441
   664.98         4.8385
   665.12         4.8314
   665.26         4.8231
   665.40         4.8130
   665.54         4.8003
   665.68         4.7850
   665.82         4.7682
   665.96         4.7514
   666.10         4.7358
   666.24         4.7220
   666.38         4.7098
   666.52         4.6986
   666.66         4.6877
   666.80         4.6769
   666.94         4.6659
   667.08         4.6549
   667.22         4.6442
   667.36         4.6349
   667.50         4.6287
   667.64         4.6272
   667.78         4.6309
   667.92         4.6396
   668.06         4.6523
   668.20         4.6685
   668.34         4.6878
   668.48         4.7095
   668.62         4.7316
   668.76         4.7518
   668.90         4.7685
   669.04         4.7806
   669.18         4.7883
   669.32         4.7921
   669.46         4.7927
   669.60         4.7908
   669.74         4.7868
   669.88         4.7808
   670.02         4.7728
   670.16         4.7626
   670.30         4.7499
   670.44         4.7345
   670.58         4.7171
   670.72         4.6987
   670.86         4.6807
   671.00         4.6642
   671.14         4.6503
   671.28         4.6398
   671.42         4.6333
   671.56         4.6312
   671.70         4.6330
   671.84         4.6371
   671.98         4.6415
   672.12         4.6447
   672.26         4.6456
   672.40         4.6436
   672.54         4.6386
   672.68         4.6311
   672.82         4.6216
   672.96         4.6109
   673.10         4.5999
   673.24         4.5899
   673.38         4.5820
   673.52         4.5774
   673.66         4.5764
   673.80         4.5785
   673.94         4.5826
   674.08         4.5873
   674.22         4.5911
   674.36         4.5929
   674.50         4.5922
   674.64         4.5886
   674.78         4.5821
   674.92         4.5731
   675.06         4.5623
   675.20         4.5510
   675.34         4.5408
   675.48         4.5329
   675.62         4.5284
   675.76         4.5274
   675.90         4.5296
   676.04         4.5342
   676.18         4.5410
   676.32         4.5495
   676.46         4.5587
   676.60         4.5679
   676.74         4.5768
   676.88         4.5854
   677.02         4.5933
   677.16         4.5991
   677.30         4.6019
   677.44         4.6017
   677.58         4.5997
   677.72         4.5973
   677.86         4.5956
   678.00         4.5949
   678.14         4.5945
   678.28         4.5937
   678.42         4.5923
   678.56         4.5904
   678.70         4.5887
   678.84         4.5871
   678.98         4.5848
   679.12         4.5814
   679.26         4.5763
   679.40         4.5697
   679.54         4.5615
   679.68         4.5522
   679.82         4.5425
   679.96         4.5343
   680.10         4.5290
   680.24         4.5274
   680.38         4.5289
   680.52         4.5326
   680.66         4.5370
   680.80         4.5407
   680.94         4.5424
   681.08         4.5417
   681.22         4.5384
   681.36         4.5324
   681.50         4.5237
   681.64         4.5132
   681.78         4.5016
   681.92         4.4894
   682.06         4.4779
   682.20         4.4684
   682.34         4.4616
   682.48         4.4583
   682.62         4.4589
   682.76         4.4635
   682.90         4.4714
   683.04         4.4814
   683.18         4.4919
   683.32         4.5005
   683.46         4.5058
   683.60         4.5076
   683.74         4.5064
   683.88         4.5027
   684.02         4.4969
   684.16         4.4900
   684.30         4.4831
   684.44         4.4772
   684.58         4.4731
   684.72         4.4711
   684.86         4.4709
   685.00         4.4716
   685.14         4.4719
   685.28         4.4703
   685.42         4.4651
   685.56         4.4543
   685.70         4.4350
   685.84         4.4038
   685.98         4.3577
   686.12         4.2954
   686.26         4.2171
   686.40         4.1245
   686.54         4.0217
   686.68         3.9148
   686.82         3.8108
   686.96         3.7170
   687.10         3.6402
   687.24         3.5861
   687.38         3.5583
   687.52         3.5572
   687.66         3.5799
   687.80         3.6212
   687.94         3.6745
   688.08         3.7328
   688.22         3.7885
   688.36         3.8354
   688.50         3.8698
   688.64         3.8912
   688.78         3.9021
   688.92         3.9059
   689.06         3.9070
   689.20         3.9096
   689.34         3.9164
   689.48         3.9284
   689.62         3.9453
   689.76         3.9652
   689.90         3.9857
   690.04         4.0047
   690.18         4.0211
   690.32         4.0347
   690.46         4.0469
   690.60         4.0590
   690.74         4.0720
   690.88         4.0861
   691.02         4.1013
   691.16         4.1177
   691.30         4.1356
   691.44         4.1545
   691.58         4.1735
   691.72         4.1916
   691.86         4.2072
   692.00         4.2193
   692.14         4.2272
   692.28         4.2319
   692.42         4.2346
   692.56         4.2376
   692.70         4.2429
   692.84         4.2510
   692.98         4.2612
   693.12         4.2726
   693.26         4.2842
   693.40         4.2952
   693.54         4.3048
   693.68         4.3129
   693.82         4.3192
   693.96         4.3231
   694.10         4.3239
   694.24         4.3212
   694.38         4.3149
   694.52         4.3050
   694.66         4.2923
   694.80         4.2776
   694.94         4.2616
   695.08         4.2458
   695.22         4.2319
   695.36         4.2211
   695.50         4.2141
   695.64         4.2114
   695.78         4.2132
   695.92         4.2191
   696.06         4.2282
   696.20         4.2393
   696.34         4.2509
   696.48         4.2612
   696.62         4.2686
   696.76         4.2722
   696.90         4.2720
   697.04         4.2692
   697.18         4.2655
   697.32         4.2625
   697.46         4.2614
   697.60         4.2630
   697.74         4.2681
   697.88         4.2767
   698.02         4.2872
   698.16         4.2975
   698.30         4.3064
   698.44         4.3134
   698.58         4.3188
   698.72         4.3228
   698.86         4.3252
   699.00         4.3257
   699.14         4.3245
   699.28         4.3221
   699.42         4.3196
   699.56         4.3179
   699.70         4.3173
   699.84         4.3176
   699.98         4.3173
   700.12         4.3153
   700.26         4.3111
   700.40         4.3045
   700.54         4.2955
   700.68         4.2850
   700.82         4.2746
   700.96         4.2657
   701.10         4.2582
   701.24         4.2512
   701.38         4.2431
   701.52         4.2333
   701.66         4.2221
   701.80         4.2106
   701.94         4.2000
   702.08         4.1912
   702.22         4.1849
   702.36         4.1810
   702.50         4.1791
   702.64         4.1787
   702.78         4.1800
   702.92         4.1836
   703.06         4.1893
   703.20         4.1967
   703.34         4.2051
   703.48         4.2138
   703.62         4.2221
   703.76         4.2299
   703.90         4.2373
   704.04         4.2446
   704.18         4.2519
   704.32         4.2593
   704.46         4.2666
   704.60         4.2725
   704.74         4.2752
   704.88         4.2736
   705.02         4.2673
   705.16         4.2570
   705.30         4.2444
   705.44         4.2306
   705.58         4.2167
   705.72         4.2032
   705.86         4.1901
   706.00         4.1780
   706.14         4.1672
   706.28         4.1578
   706.42         4.1499
   706.56         4.1428
   706.70         4.1365
   706.84         4.1309
   706.98         4.1261
   707.12         4.1214
   707.26         4.1162
   707.40         4.1111
   707.54         4.1070
   707.68         4.1047
   707.82         4.1047
   707.96         4.1074
   708.10         4.1126
   708.24         4.1197
   708.38         4.1276
   708.52         4.1350
   708.66         4.1415
   708.80         4.1477
   708.94         4.1542
   709.08         4.1610
   709.22         4.1680
   709.36         4.1754
   709.50         4.1830
   709.64         4.1901
   709.78         4.1959
   709.92         4.2002
   710.06         4.2032
   710.20         4.2048
   710.34         4.2047
   710.48         4.2030
   710.62         4.1994
   710.76         4.1933
   710.90         4.1844
   711.04         4.1731
   711.18         4.1609
   711.32         4.1497
   711.46         4.1418
   711.60         4.1386
   711.74         4.1404
   711.88         4.1468
   712.02         4.1559
   712.16         4.1651
   712.30         4.1728
   712.44         4.1783
   712.58         4.1816
   712.72         4.1834
   712.86         4.1839
   713.00         4.1834
   713.14         4.1817
   713.28         4.1781
   713.42         4.1719
   713.56         4.1633
   713.70         4.1533
   713.84         4.1430
   713.98         4.1332
   714.12         4.1249
   714.26         4.1182
   714.40         4.1132
   714.54         4.1099
   714.68         4.1087
   714.82         4.1101
   714.96         4.1144
   715.10         4.1205
   715.24         4.1263
   715.38         4.1300
   715.52         4.1294
   715.66         4.1230
   715.80         4.1102
   715.94         4.0916
   716.08         4.0685
   716.22         4.0424
   716.36         4.0151
   716.50         3.9880
   716.64         3.9626
   716.78         3.9397
   716.92         3.9199
   717.06         3.9022
   717.20         3.8854
   717.34         3.8685
   717.48         3.8499
   717.62         3.8281
   717.76         3.8030
   717.90         3.7758
   718.04         3.7478
   718.18         3.7201
   718.32         3.6941
   718.46         3.6720
   718.60         3.6557
   718.74         3.6460
   718.88         3.6430
   719.02         3.6462
   719.16         3.6544
   719.30         3.6659
   719.44         3.6789
   719.58         3.6916
   719.72         3.7036
   719.86         3.7152
   720.00         3.7266
   720.14         3.7381
   720.28         3.7506
   720.42         3.7650
   720.56         3.7817
   720.70         3.8011
   720.84         3.8241
   720.98         3.8505
   721.12         3.8788
   721.26         3.9066
   721.40         3.9311
   721.54         3.9507
   721.68         3.9649
   721.82         3.9740
   721.96         3.9786
   722.10         3.9790
   722.24         3.9756
   722.38         3.9683
   722.52         3.9573
   722.66         3.9435
   722.80         3.9281
   722.94         3.9122
   723.08         3.8967
   723.22         3.8834
   723.36         3.8729
   723.50         3.8644
   723.64         3.8565
   723.78         3.8489
   723.92         3.8419
   724.06         3.8356
   724.20         3.8298
   724.34         3.8239
   724.48         3.8179
   724.62         3.8127
   724.76         3.8090
   724.90         3.8077
   725.04         3.8095
   725.18         3.8151
   725.32         3.8243
   725.46         3.8360
   725.60         3.8492
   725.74         3.8629
   725.88         3.8756
   726.02         3.8855
   726.16         3.8913
   726.30         3.8931
   726.44         3.8912
   726.58         3.8854
   726.72         3.8755
   726.86         3.8622
   727.00         3.8471
   727.14         3.8324
   727.28         3.8201
   727.42         3.8104
   727.56         3.8033
   727.70         3.7990
   727.84         3.7972
   727.98         3.7966
   728.12         3.7959
   728.26         3.7939
   728.40         3.7899
   728.54         3.7841
   728.68         3.7767
   728.82         3.7674
   728.96         3.7560
   729.10         3.7427
   729.24         3.7281
   729.38         3.7138
   729.52         3.7013
   729.66         3.6926
   729.80         3.6885
   729.94         3.6886
   730.08         3.6920
   730.22         3.6978
   730.36         3.7050
   730.50         3.7126
   730.64         3.7196
   730.78         3.7257
   730.92         3.7302
   731.06         3.7324
   731.20         3.7318
   731.34         3.7277
   731.48         3.7200
   731.62         3.7102
   731.76         3.6999
   731.90         3.6908
   732.04         3.6842
   732.18         3.6813
   732.32         3.6830
   732.46         3.6893
   732.60         3.6994
   732.74         3.7125
   732.88         3.7271
   733.02         3.7412
   733.16         3.7526
   733.30         3.7597
   733.44         3.7616
   733.58         3.7585
   733.72         3.7514
   733.86         3.7421
   734.00         3.7325
   734.14         3.7238
   734.28         3.7168
   734.42         3.7121
   734.56         3.7097
   734.70         3.7092
   734.84         3.7102
   734.98         3.7126
   735.12         3.7157
   735.26         3.7186
   735.40         3.7206
   735.54         3.7214
   735.68         3.7207
   735.82         3.7184
   735.96         3.7145
   736.10         3.7086
   736.24         3.7008
   736.38         3.6916
   736.52         3.6812
   736.66         3.6695
   736.80         3.6563
   736.94         3.6417
   737.08         3.6266
   737.22         3.6115
   737.36         3.5969
   737.50         3.5835
   737.64         3.5716
   737.78         3.5610
   737.92         3.5507
   738.06         3.5402
   738.20         3.5296
   738.34         3.5199
   738.48         3.5120
   738.62         3.5066
   738.76         3.5046
   738.90         3.5065
   739.04         3.5125
   739.18         3.5226
   739.32         3.5365
   739.46         3.5525
   739.60         3.5690
   739.74         3.5843
   739.88         3.5970
   740.02         3.6058
   740.16         3.6096
   740.30         3.6073
   740.44         3.5982
   740.58         3.5831
   740.72         3.5639
   740.86         3.5429
   741.00         3.5214
   741.14         3.5005
   741.28         3.4807
   741.42         3.4628
   741.56         3.4479
   741.70         3.4368
   741.84         3.4296
   741.98         3.4251
   742.12         3.4224
   742.26         3.4210
   742.40         3.4207
   742.54         3.4211
   742.68         3.4217
   742.82         3.4221
   742.96         3.4221
   743.10         3.4217
   743.24         3.4211
   743.38         3.4207
   743.52         3.4210
   743.66         3.4224
   743.80         3.4251
   743.94         3.4296
   744.08         3.4368
   744.22         3.4479
