# File HD12727
# Wavelength [nm]    Normalized Amplitude
   349.70         102.3028
   349.84         102.4769
   349.98         102.6178
   350.12         102.7328
   350.26         102.8253
   350.40         102.9000
   350.54         102.9655
   350.68         103.0288
   350.82         103.0881
   350.96         103.1314
   351.10         103.1469
   351.24         103.1314
   351.38         103.0881
   351.52         103.0288
   351.66         102.9655
   351.80         102.9000
   351.94         102.8253
   352.08         102.7328
   352.22         102.6178
   352.36         102.4769
   352.50         102.3028
   352.64         102.0882
   352.78         101.8355
   352.92         101.5619
   353.06         101.2985
   353.20         101.0803
   353.34         100.9319
   353.48         100.8592
   353.62         100.8561
   353.76         100.9112
   353.90         101.0080
   354.04         101.1254
   354.18         101.2390
   354.32         101.3201
   354.46         101.3404
   354.60         101.2797
   354.74         101.1298
   354.88         100.8952
   355.02         100.5879
   355.16         100.2248
   355.30         99.8284
   355.44         99.4231
   355.58         99.0261
   355.72         98.6405
   355.86         98.2587
   356.00         97.8670
   356.14         97.4538
   356.28         97.0147
   356.42         96.5505
   356.56         96.0650
   356.70         95.5627
   356.84         95.0482
   356.98         94.5283
   357.12         94.0101
   357.26         93.4997
   357.40         92.9980
   357.54         92.4981
   357.68         91.9879
   357.82         91.4587
   357.96         90.9139
   358.10         90.3693
   358.24         89.8490
   358.38         89.3788
   358.52         88.9839
   358.66         88.6831
   358.80         88.4800
   358.94         88.3696
   359.08         88.3485
   359.22         88.4133
   359.36         88.5570
   359.50         88.7668
   359.64         89.0212
   359.78         89.2957
   359.92         89.5667
   360.06         89.8100
   360.20         90.0067
   360.34         90.1506
   360.48         90.2493
   360.62         90.3155
   360.76         90.3566
   360.90         90.3747
   361.04         90.3680
   361.18         90.3305
   361.32         90.2566
   361.46         90.1492
   361.60         90.0243
   361.74         89.9018
   361.88         89.7944
   362.02         89.6987
   362.16         89.5972
   362.30         89.4688
   362.44         89.2959
   362.58         89.0637
   362.72         88.7628
   362.86         88.3993
   363.00         87.9942
   363.14         87.5789
   363.28         87.1941
   363.42         86.8852
   363.56         86.6949
   363.70         86.6493
   363.84         86.7532
   363.98         86.9951
   364.12         87.3504
   364.26         87.7812
   364.40         88.2384
   364.54         88.6665
   364.68         89.0185
   364.82         89.2738
   364.96         89.4328
   365.10         89.5000
   365.24         89.4809
   365.38         89.3846
   365.52         89.2274
   365.66         89.0283
   365.80         88.8030
   365.94         88.5644
   366.08         88.3188
   366.22         88.0646
   366.36         87.7964
   366.50         87.5103
   366.64         87.2085
   366.78         86.9003
   366.92         86.6024
   367.06         86.3334
   367.20         86.1103
   367.34         85.9489
   367.48         85.8532
   367.62         85.8107
   367.76         85.8071
   367.90         85.8355
   368.04         85.8940
   368.18         85.9813
   368.32         86.0899
   368.46         86.2008
   368.60         86.2916
   368.74         86.3391
   368.88         86.3231
   369.02         86.2333
   369.16         86.0658
   369.30         85.8149
   369.44         85.4791
   369.58         85.0697
   369.72         84.6052
   369.86         84.1075
   370.00         83.6006
   370.14         83.1077
   370.28         82.6561
   370.42         82.2785
   370.56         82.0021
   370.70         81.8364
   370.84         81.7706
   370.98         81.7771
   371.12         81.8230
   371.26         81.8842
   371.40         81.9482
   371.54         82.0095
   371.68         82.0643
   371.82         82.1052
   371.96         82.1244
   372.10         82.1189
   372.24         82.0849
   372.38         82.0170
   372.52         81.9208
   372.66         81.8204
   372.80         81.7512
   372.94         81.7475
   373.08         81.8336
   373.22         82.0164
   373.36         82.2810
   373.50         82.5933
   373.64         82.9012
   373.78         83.1394
   373.92         83.2395
   374.06         83.1435
   374.20         82.8233
   374.34         82.2974
   374.48         81.6263
   374.62         80.8977
   374.76         80.2151
   374.90         79.6898
   375.04         79.4228
   375.18         79.4817
   375.32         79.8787
   375.46         80.5570
   375.60         81.3944
   375.74         82.2266
   375.88         82.8787
   376.02         83.2006
   376.16         83.1027
   376.30         82.5808
   376.44         81.7218
   376.58         80.6862
   376.72         79.6767
   376.86         78.8990
   377.00         78.5234
   377.14         78.6560
   377.28         79.3265
   377.42         80.4949
   377.56         82.0637
   377.70         83.8906
   377.84         85.8049
   377.98         87.6252
   378.12         89.1705
   378.26         90.2776
   378.40         90.8240
   378.54         90.7467
   378.68         90.0545
   378.82         88.8291
   378.96         87.2134
   379.10         85.3870
   379.24         83.5428
   379.38         81.8699
   379.52         80.5377
   379.66         79.6840
   379.80         79.4020
   379.94         79.7266
   380.08         80.6336
   380.22         82.0421
   380.36         83.8124
   380.50         85.7530
   380.64         87.6450
   380.78         89.2809
   380.92         90.5113
   381.06         91.2749
   381.20         91.5991
   381.34         91.5737
   381.48         91.3132
   381.62         90.9214
   381.76         90.4673
   381.90         89.9757
   382.04         89.4278
   382.18         88.7702
   382.32         87.9375
   382.46         86.8788
   382.60         85.5823
   382.74         84.0906
   382.88         82.4926
   383.02         80.9075
   383.16         79.4760
   383.30         78.3547
   383.44         77.6965
   383.58         77.6165
   383.72         78.1572
   383.86         79.2766
   384.00         80.8614
   384.14         82.7543
   384.28         84.7812
   384.42         86.7725
   384.56         88.5828
   384.70         90.1088
   384.84         91.3030
   384.98         92.1732
   385.12         92.7654
   385.26         93.1416
   385.40         93.3568
   385.54         93.4455
   385.68         93.4266
   385.82         93.3127
   385.96         93.1155
   386.10         92.8429
   386.24         92.4976
   386.38         92.0818
   386.52         91.6040
   386.66         91.0775
   386.80         90.5130
   386.94         89.9093
   387.08         89.2473
   387.22         88.4885
   387.36         87.5779
   387.50         86.4509
   387.64         85.0506
   387.78         83.3512
   387.92         81.3785
   388.06         79.2182
   388.20         77.0070
   388.34         74.9084
   388.48         73.0883
   388.62         71.6968
   388.76         70.8507
   388.90         70.6223
   389.04         71.0332
   389.18         72.0499
   389.32         73.5837
   389.46         75.4968
   389.60         77.6195
   389.74         79.7745
   389.88         81.7982
   390.02         83.5621
   390.16         84.9917
   390.30         86.0735
   390.44         86.8373
   390.58         87.3287
   390.72         87.5942
   390.86         87.6730
   391.00         87.5975
   391.14         87.3968
   391.28         87.0965
   391.42         86.7179
   391.56         86.2808
   391.70         85.8081
   391.84         85.3233
   391.98         84.8389
   392.12         84.3566
   392.26         83.8802
   392.40         83.4253
   392.54         83.0160
   392.68         82.6773
   392.82         82.4287
   392.96         82.2774
   393.10         82.2197
   393.24         82.2479
   393.38         82.3562
   393.52         82.5380
   393.66         82.7794
   393.80         83.0546
   393.94         83.3321
   394.08         83.5829
   394.22         83.7797
   394.36         83.8954
   394.50         83.9036
   394.64         83.7853
   394.78         83.5389
   394.92         83.1768
   395.06         82.7079
   395.20         82.1235
   395.34         81.3949
   395.48         80.4766
   395.62         79.3137
   395.76         77.8633
   395.90         76.1147
   396.04         74.1042
   396.18         71.9188
   396.32         69.6897
   396.46         67.5764
   396.60         65.7431
   396.74         64.3348
   396.88         63.4628
   397.02         63.1979
   397.16         63.5623
   397.30         64.5186
   397.44         65.9705
   397.58         67.7770
   397.72         69.7750
   397.86         71.7995
   398.00         73.7008
   398.14         75.3613
   398.28         76.7133
   398.42         77.7441
   398.56         78.4834
   398.70         78.9845
   398.84         79.3079
   398.98         79.5091
   399.12         79.6295
   399.26         79.6918
   399.40         79.7046
   399.54         79.6676
   399.68         79.5725
   399.82         79.4085
   399.96         79.1733
   400.10         78.8807
   400.24         78.5584
   400.38         78.2374
   400.52         77.9437
   400.66         77.6964
   400.80         77.5078
   400.94         77.3777
   401.08         77.2866
   401.22         77.1931
   401.36         77.0437
   401.50         76.7898
   401.64         76.4059
   401.78         75.8948
   401.92         75.2823
   402.06         74.6125
   402.20         73.9435
   402.34         73.3416
   402.48         72.8764
   402.62         72.6070
   402.76         72.5654
   402.90         72.7497
   403.04         73.1266
   403.18         73.6400
   403.32         74.2226
   403.46         74.8048
   403.60         75.3221
   403.74         75.7242
   403.88         75.9860
   404.02         76.1143
   404.16         76.1420
   404.30         76.1131
   404.44         76.0665
   404.58         76.0272
   404.72         76.0079
   404.86         76.0114
   405.00         76.0344
   405.14         76.0705
   405.28         76.1104
   405.42         76.1422
   405.56         76.1525
   405.70         76.1288
   405.84         76.0617
   405.98         75.9445
   406.12         75.7710
   406.26         75.5354
   406.40         75.2356
   406.54         74.8771
   406.68         74.4751
   406.82         74.0527
   406.96         73.6357
   407.10         73.2456
   407.24         72.8954
   407.38         72.5903
   407.52         72.3313
   407.66         72.1155
   407.80         71.9336
   407.94         71.7686
   408.08         71.5946
   408.22         71.3793
   408.36         71.0862
   408.50         70.6753
   408.64         70.1026
   408.78         69.3253
   408.92         68.3123
   409.06         67.0569
   409.20         65.5884
   409.34         63.9737
   409.48         62.3085
   409.62         60.7057
   409.76         59.2827
   409.90         58.1482
   410.04         57.3901
   410.18         57.0659
   410.32         57.1958
   410.46         57.7582
   410.60         58.6874
   410.74         59.8792
   410.88         61.2069
   411.02         62.5422
   411.16         63.7750
   411.30         64.8273
   411.44         65.6612
   411.58         66.2779
   411.72         66.7091
   411.86         67.0039
   412.00         67.2137
   412.14         67.3812
   412.28         67.5379
   412.42         67.7017
   412.56         67.8746
   412.70         68.0453
   412.84         68.1915
   412.98         68.2824
   413.12         68.2842
   413.26         68.1699
   413.40         67.9341
   413.54         67.5988
   413.68         67.2046
   413.82         66.7972
   413.96         66.4185
   414.10         66.1035
   414.24         65.8801
   414.38         65.7685
   414.52         65.7788
   414.66         65.9097
   414.80         66.1480
   414.94         66.4684
   415.08         66.8356
   415.22         67.2087
   415.36         67.5467
   415.50         67.8149
   415.64         67.9901
   415.78         68.0667
   415.92         68.0567
   416.06         67.9814
   416.20         67.8619
   416.34         67.7152
   416.48         67.5558
   416.62         67.3967
   416.76         67.2493
   416.90         67.1232
   417.04         67.0240
   417.18         66.9518
   417.32         66.9036
   417.46         66.8746
   417.60         66.8557
   417.74         66.8354
   417.88         66.8022
   418.02         66.7469
   418.16         66.6643
   418.30         66.5540
   418.44         66.4204
   418.58         66.2713
   418.72         66.1157
   418.86         65.9636
   419.00         65.8239
   419.14         65.7023
   419.28         65.6019
   419.42         65.5244
   419.56         65.4701
   419.70         65.4369
   419.84         65.4218
   419.98         65.4229
   420.12         65.4351
   420.26         65.4474
   420.40         65.4480
   420.54         65.4293
   420.68         65.3883
   420.82         65.3254
   420.96         65.2448
   421.10         65.1546
   421.24         65.0651
   421.38         64.9850
   421.52         64.9182
   421.66         64.8650
   421.80         64.8243
   421.94         64.7928
   422.08         64.7648
   422.22         64.7327
   422.36         64.6875
   422.50         64.6185
   422.64         64.5135
   422.78         64.3629
   422.92         64.1649
   423.06         63.9256
   423.20         63.6566
   423.34         63.3745
   423.48         63.1009
   423.62         62.8563
   423.76         62.6576
   423.90         62.5138
   424.04         62.4245
   424.18         62.3803
   424.32         62.3674
   424.46         62.3724
   424.60         62.3849
   424.74         62.3971
   424.88         62.4012
   425.02         62.3885
   425.16         62.3508
   425.30         62.2828
   425.44         62.1824
   425.58         62.0505
   425.72         61.8949
   425.86         61.7304
   426.00         61.5742
   426.14         61.4360
   426.28         61.3162
   426.42         61.2107
   426.56         61.1147
   426.70         61.0251
   426.84         60.9413
   426.98         60.8641
   427.12         60.7944
   427.26         60.7327
   427.40         60.6790
   427.54         60.6334
   427.68         60.5972
   427.82         60.5726
   427.96         60.5619
   428.10         60.5674
   428.24         60.5926
   428.38         60.6407
   428.52         60.7098
   428.66         60.7932
   428.80         60.8807
   428.94         60.9615
   429.08         61.0244
   429.22         61.0592
   429.36         61.0574
   429.50         61.0142
   429.64         60.9278
   429.78         60.8007
   429.92         60.6398
   430.06         60.4550
   430.20         60.2564
   430.34         60.0509
   430.48         59.8415
   430.62         59.6298
   430.76         59.4202
   430.90         59.2198
   431.04         59.0373
   431.18         58.8786
   431.32         58.7425
   431.46         58.6205
   431.60         58.4983
   431.74         58.3600
   431.88         58.1915
   432.02         57.9792
   432.16         57.7083
   432.30         57.3597
   432.44         56.9089
   432.58         56.3265
   432.72         55.5817
   432.86         54.6516
   433.00         53.5344
   433.14         52.2608
   433.28         50.8936
   433.42         49.5170
   433.56         48.2230
   433.70         47.0994
   433.84         46.2204
   433.98         45.6431
   434.12         45.4060
   434.26         45.5236
   434.40         45.9835
   434.54         46.7478
   434.68         47.7554
   434.82         48.9260
   434.96         50.1686
   435.10         51.3916
   435.24         52.5176
   435.38         53.4936
   435.52         54.2966
   435.66         54.9280
   435.80         55.4025
   435.94         55.7387
   436.08         55.9583
   436.22         56.0859
   436.36         56.1480
   436.50         56.1710
   436.64         56.1796
   436.78         56.1936
   436.92         56.2247
   437.06         56.2764
   437.20         56.3415
   437.34         56.3978
   437.48         56.4120
   437.62         56.3528
   437.76         56.2037
   437.90         55.9666
   438.04         55.6573
   438.18         55.3016
   438.32         54.9313
   438.46         54.5814
   438.60         54.2863
   438.74         54.0752
   438.88         53.9663
   439.02         53.9639
   439.16         54.0581
   439.30         54.2281
   439.44         54.4466
   439.58         54.6823
   439.72         54.9036
   439.86         55.0830
   440.00         55.1994
   440.14         55.2417
   440.28         55.2113
   440.42         55.1173
   440.56         54.9692
   440.70         54.7753
   440.84         54.5463
   440.98         54.2958
   441.12         54.0383
   441.26         53.7855
   441.40         53.5462
   441.54         53.3275
   441.68         53.1350
   441.82         52.9715
   441.96         52.8379
   442.10         52.7337
   442.24         52.6550
   442.38         52.5934
   442.52         52.5368
   442.66         52.4726
   442.80         52.3961
   442.94         52.3125
   443.08         52.2333
   443.22         52.1705
   443.36         52.1335
   443.50         52.1268
   443.64         52.1506
   443.78         52.2021
   443.92         52.2759
   444.06         52.3661
   444.20         52.4666
   444.34         52.5710
   444.48         52.6739
   444.62         52.7718
   444.76         52.8630
   444.90         52.9458
   445.04         53.0164
   445.18         53.0698
   445.32         53.1014
   445.46         53.1035
   445.60         53.0590
   445.74         52.9404
   445.88         52.7169
   446.02         52.3689
   446.16         51.9009
   446.30         51.3429
   446.44         50.7408
   446.58         50.1442
   446.72         49.5993
   446.86         49.1458
   447.00         48.8149
   447.14         48.6277
   447.28         48.5938
   447.42         48.7099
   447.56         48.9583
   447.70         49.3085
   447.84         49.7223
   447.98         50.1558
   448.12         50.5634
   448.26         50.9070
   448.40         51.1661
   448.54         51.3435
   448.68         51.4611
   448.82         51.5444
   448.96         51.6103
   449.10         51.6647
   449.24         51.7062
   449.38         51.7329
   449.52         51.7470
   449.66         51.7543
   449.80         51.7599
   449.94         51.7648
   450.08         51.7657
   450.22         51.7585
   450.36         51.7404
   450.50         51.7112
   450.64         51.6725
   450.78         51.6280
   450.92         51.5832
   451.06         51.5428
   451.20         51.5074
   451.34         51.4720
   451.48         51.4279
   451.62         51.3681
   451.76         51.2888
   451.90         51.1883
   452.04         51.0679
   452.18         50.9320
   452.32         50.7873
   452.46         50.6410
   452.60         50.5005
   452.74         50.3736
   452.88         50.2677
   453.02         50.1875
   453.16         50.1345
   453.30         50.1079
   453.44         50.1049
   453.58         50.1196
   453.72         50.1409
   453.86         50.1541
   454.00         50.1447
   454.14         50.1043
   454.28         50.0333
   454.42         49.9375
   454.56         49.8256
   454.70         49.7086
   454.84         49.5988
   454.98         49.5074
   455.12         49.4426
   455.26         49.4103
   455.40         49.4110
   455.54         49.4385
   455.68         49.4833
   455.82         49.5347
   455.96         49.5821
   456.10         49.6127
   456.24         49.6111
   456.38         49.5656
   456.52         49.4746
   456.66         49.3475
   456.80         49.2000
   456.94         49.0471
   457.08         48.9008
   457.22         48.7705
   457.36         48.6621
   457.50         48.5765
   457.64         48.5105
   457.78         48.4583
   457.92         48.4127
   458.06         48.3657
   458.20         48.3114
   458.34         48.2486
   458.48         48.1776
   458.62         48.0985
   458.76         48.0099
   458.90         47.9123
   459.04         47.8095
   459.18         47.7063
   459.32         47.6030
   459.46         47.4952
   459.60         47.3798
   459.74         47.2594
   459.88         47.1395
   460.02         47.0255
   460.16         46.9224
   460.30         46.8352
   460.44         46.7675
   460.58         46.7223
   460.72         46.6996
   460.86         46.6962
   461.00         46.7053
   461.14         46.7181
   461.28         46.7251
   461.42         46.7185
   461.56         46.6935
   461.70         46.6472
   461.84         46.5772
   461.98         46.4839
   462.12         46.3756
   462.26         46.2665
   462.40         46.1684
   462.54         46.0849
   462.68         46.0131
   462.82         45.9482
   462.96         45.8854
   463.10         45.8208
   463.24         45.7511
   463.38         45.6719
   463.52         45.5777
   463.66         45.4637
   463.80         45.3283
   463.94         45.1753
   464.08         45.0141
   464.22         44.8566
   464.36         44.7133
   464.50         44.5933
   464.64         44.5045
   464.78         44.4520
   464.92         44.4362
   465.06         44.4534
   465.20         44.4996
   465.34         44.5728
   465.48         44.6711
   465.62         44.7909
   465.76         44.9261
   465.90         45.0668
   466.04         45.2001
   466.18         45.3120
   466.32         45.3924
   466.46         45.4383
   466.60         45.4524
   466.74         45.4388
   466.88         45.3997
   467.02         45.3376
   467.16         45.2568
   467.30         45.1621
   467.44         45.0591
   467.58         44.9546
   467.72         44.8567
   467.86         44.7718
   468.00         44.7043
   468.14         44.6565
   468.28         44.6292
   468.42         44.6210
   468.56         44.6259
   468.70         44.6326
   468.84         44.6298
   468.98         44.6101
   469.12         44.5700
   469.26         44.5052
   469.40         44.4099
   469.54         44.2820
   469.68         44.1239
   469.82         43.9400
   469.96         43.7335
   470.10         43.5106
   470.24         43.2840
   470.38         43.0698
   470.52         42.8838
   470.66         42.7392
   470.80         42.6460
   470.94         42.6080
   471.08         42.6215
   471.22         42.6757
   471.36         42.7588
   471.50         42.8622
   471.64         42.9801
   471.78         43.1054
   471.92         43.2268
   472.06         43.3317
   472.20         43.4102
   472.34         43.4538
   472.48         43.4568
   472.62         43.4198
   472.76         43.3534
   472.90         43.2732
   473.04         43.1920
   473.18         43.1177
   473.32         43.0544
   473.46         43.0025
   473.60         42.9581
   473.74         42.9150
   473.88         42.8671
   474.02         42.8095
   474.16         42.7386
   474.30         42.6531
   474.44         42.5536
   474.58         42.4437
   474.72         42.3302
   474.86         42.2215
   475.00         42.1264
   475.14         42.0525
   475.28         42.0046
   475.42         41.9848
   475.56         41.9911
   475.70         42.0158
   475.84         42.0491
   475.98         42.0834
   476.12         42.1109
   476.26         42.1236
   476.40         42.1175
   476.54         42.0927
   476.68         42.0508
   476.82         41.9934
   476.96         41.9219
   477.10         41.8373
   477.24         41.7414
   477.38         41.6358
   477.52         41.5243
   477.66         41.4133
   477.80         41.3086
   477.94         41.2137
   478.08         41.1336
   478.22         41.0742
   478.36         41.0406
   478.50         41.0369
   478.64         41.0656
   478.78         41.1233
   478.92         41.2033
   479.06         41.2983
   479.20         41.3988
   479.34         41.4930
   479.48         41.5693
   479.62         41.6187
   479.76         41.6361
   479.90         41.6194
   480.04         41.5710
   480.18         41.4978
   480.32         41.4069
   480.46         41.3032
   480.60         41.1927
   480.74         41.0836
   480.88         40.9810
   481.02         40.8844
   481.16         40.7914
   481.30         40.6990
   481.44         40.6052
   481.58         40.5101
   481.72         40.4160
   481.86         40.3258
   482.00         40.2408
   482.14         40.1602
   482.28         40.0852
   482.42         40.0194
   482.56         39.9658
   482.70         39.9270
   482.84         39.9023
   482.98         39.8852
   483.12         39.8662
   483.26         39.8393
   483.40         39.8015
   483.54         39.7489
   483.68         39.6769
   483.82         39.5804
   483.96         39.4522
   484.10         39.2844
   484.24         39.0687
   484.38         38.7945
   484.52         38.4490
   484.66         38.0175
   484.80         37.4852
   484.94         36.8419
   485.08         36.0888
   485.22         35.2450
   485.36         34.3473
   485.50         33.4446
   485.64         32.5908
   485.78         31.8436
   485.92         31.2603
   486.06         30.8853
   486.20         30.7404
   486.34         30.8240
   486.48         31.1180
   486.62         31.5908
   486.76         32.1988
   486.90         32.8889
   487.04         33.6027
   487.18         34.2860
   487.32         34.8956
   487.46         35.4047
   487.60         35.8065
   487.74         36.1112
   487.88         36.3382
   488.02         36.5081
   488.16         36.6385
   488.30         36.7459
   488.44         36.8471
   488.58         36.9534
   488.72         37.0663
   488.86         37.1821
   489.00         37.2973
   489.14         37.4087
   489.28         37.5109
   489.42         37.5979
   489.56         37.6660
   489.70         37.7148
   489.84         37.7456
   489.98         37.7592
   490.12         37.7563
   490.26         37.7379
   490.40         37.7061
   490.54         37.6626
   490.68         37.6042
   490.82         37.5192
   490.96         37.3933
   491.10         37.2165
   491.24         36.9867
   491.38         36.7128
   491.52         36.4157
   491.66         36.1238
   491.80         35.8676
   491.94         35.6764
   492.08         35.5724
   492.22         35.5653
   492.36         35.6503
   492.50         35.8113
   492.64         36.0262
   492.78         36.2713
   492.92         36.5222
   493.06         36.7552
   493.20         36.9506
   493.34         37.0993
   493.48         37.2059
   493.62         37.2870
   493.76         37.3633
   493.90         37.4502
   494.04         37.5536
   494.18         37.6700
   494.32         37.7888
   494.46         37.8969
   494.60         37.9824
   494.74         38.0365
   494.88         38.0545
   495.02         38.0377
   495.16         37.9915
   495.30         37.9210
   495.44         37.8314
   495.58         37.7296
   495.72         37.6220
   495.86         37.5147
   496.00         37.4135
   496.14         37.3189
   496.28         37.2260
   496.42         37.1297
   496.56         37.0289
   496.70         36.9249
   496.84         36.8204
   496.98         36.7181
   497.12         36.6216
   497.26         36.5339
   497.40         36.4562
   497.54         36.3885
   497.68         36.3301
   497.82         36.2793
   497.96         36.2356
   498.10         36.2020
   498.24         36.1813
   498.38         36.1713
   498.52         36.1682
   498.66         36.1676
   498.80         36.1635
   498.94         36.1495
   499.08         36.1205
   499.22         36.0730
   499.36         36.0040
   499.50         35.9136
   499.64         35.8064
   499.78         35.6888
   499.92         35.5664
   500.06         35.4421
   500.20         35.3158
   500.34         35.1850
   500.48         35.0488
   500.62         34.9103
   500.76         34.7750
   500.90         34.6485
   501.04         34.5364
   501.18         34.4442
   501.32         34.3766
   501.46         34.3353
   501.60         34.3198
   501.74         34.3286
   501.88         34.3583
   502.02         34.4039
   502.16         34.4589
   502.30         34.5174
   502.44         34.5730
   502.58         34.6186
   502.72         34.6477
   502.86         34.6564
   503.00         34.6456
   503.14         34.6197
   503.28         34.5824
   503.42         34.5346
   503.56         34.4773
   503.70         34.4147
   503.84         34.3546
   503.98         34.3040
   504.12         34.2656
   504.26         34.2375
   504.40         34.2160
   504.54         34.1965
   504.68         34.1748
   504.82         34.1467
   504.96         34.1106
   505.10         34.0664
   505.24         34.0139
   505.38         33.9532
   505.52         33.8858
   505.66         33.8141
   505.80         33.7403
   505.94         33.6697
   506.08         33.6132
   506.22         33.5819
   506.36         33.5803
   506.50         33.6041
   506.64         33.6430
   506.78         33.6859
   506.92         33.7241
   507.06         33.7533
   507.20         33.7718
   507.34         33.7794
   507.48         33.7770
   507.62         33.7652
   507.76         33.7420
   507.90         33.7053
   508.04         33.6581
   508.18         33.6047
   508.32         33.5472
   508.46         33.4866
   508.60         33.4248
   508.74         33.3615
   508.88         33.2922
   509.02         33.2132
   509.16         33.1250
   509.30         33.0329
   509.44         32.9448
   509.58         32.8702
   509.72         32.8167
   509.86         32.7872
   510.00         32.7811
   510.14         32.7951
   510.28         32.8232
   510.42         32.8576
   510.56         32.8901
   510.70         32.9121
   510.84         32.9142
   510.98         32.8915
   511.12         32.8470
   511.26         32.7882
   511.40         32.7219
   511.54         32.6539
   511.68         32.5883
   511.82         32.5283
   511.96         32.4777
   512.10         32.4405
   512.24         32.4182
   512.38         32.4092
   512.52         32.4118
   512.66         32.4234
   512.80         32.4386
   512.94         32.4495
   513.08         32.4474
   513.22         32.4268
   513.36         32.3874
   513.50         32.3326
   513.64         32.2673
   513.78         32.1943
   513.92         32.1133
   514.06         32.0233
   514.20         31.9243
   514.34         31.8173
   514.48         31.7056
   514.62         31.5943
   514.76         31.4884
   514.90         31.3933
   515.04         31.3146
   515.18         31.2559
   515.32         31.2184
   515.46         31.2015
   515.60         31.2029
   515.74         31.2198
   515.88         31.2504
   516.02         31.2939
   516.16         31.3482
   516.30         31.4088
   516.44         31.4706
   516.58         31.5280
   516.72         31.5745
   516.86         31.6034
   517.00         31.6116
   517.14         31.5995
   517.28         31.5701
   517.42         31.5270
   517.56         31.4732
   517.70         31.4104
   517.84         31.3378
   517.98         31.2540
   518.12         31.1589
   518.26         31.0549
   518.40         30.9482
   518.54         30.8469
   518.68         30.7578
   518.82         30.6845
   518.96         30.6285
   519.10         30.5893
   519.24         30.5646
   519.38         30.5523
   519.52         30.5526
   519.66         30.5666
   519.80         30.5946
   519.94         30.6333
   520.08         30.6756
   520.22         30.7134
   520.36         30.7407
   520.50         30.7539
   520.64         30.7528
   520.78         30.7403
   520.92         30.7204
   521.06         30.6979
   521.20         30.6763
   521.34         30.6559
   521.48         30.6372
   521.62         30.6199
   521.76         30.6031
   521.90         30.5876
   522.04         30.5747
   522.18         30.5634
   522.32         30.5512
   522.46         30.5352
   522.60         30.5108
   522.74         30.4735
   522.88         30.4205
   523.02         30.3502
   523.16         30.2612
   523.30         30.1539
   523.44         30.0325
   523.58         29.9028
   523.72         29.7718
   523.86         29.6456
   524.00         29.5300
   524.14         29.4320
   524.28         29.3567
   524.42         29.3075
   524.56         29.2838
   524.70         29.2800
   524.84         29.2901
   524.98         29.3120
   525.12         29.3446
   525.26         29.3843
   525.40         29.4255
   525.54         29.4637
   525.68         29.4960
   525.82         29.5206
   525.96         29.5350
   526.10         29.5353
   526.24         29.5176
   526.38         29.4803
   526.52         29.4250
   526.66         29.3564
   526.80         29.2805
   526.94         29.2018
   527.08         29.1229
   527.22         29.0468
   527.36         28.9764
   527.50         28.9146
   527.64         28.8633
   527.78         28.8223
   527.92         28.7900
   528.06         28.7646
   528.20         28.7440
   528.34         28.7245
   528.48         28.7010
   528.62         28.6680
   528.76         28.6227
   528.90         28.5641
   529.04         28.4911
   529.18         28.4029
   529.32         28.3002
   529.46         28.1858
   529.60         28.0655
   529.74         27.9479
   529.88         27.8422
   530.02         27.7563
   530.16         27.6976
   530.30         27.6720
   530.44         27.6818
   530.58         27.7240
   530.72         27.7911
   530.86         27.8727
   531.00         27.9586
   531.14         28.0397
   531.28         28.1102
   531.42         28.1677
   531.56         28.2109
   531.70         28.2389
   531.84         28.2529
   531.98         28.2559
   532.12         28.2507
   532.26         28.2372
   532.40         28.2129
   532.54         28.1755
   532.68         28.1244
   532.82         28.0619
   532.96         27.9924
   533.10         27.9207
   533.24         27.8517
   533.38         27.7902
   533.52         27.7418
   533.66         27.7125
   533.80         27.7076
   533.94         27.7286
   534.08         27.7727
   534.22         27.8335
   534.36         27.9034
   534.50         27.9752
   534.64         28.0416
   534.78         28.0942
   534.92         28.1237
   535.06         28.1237
   535.20         28.0918
   535.34         28.0299
   535.48         27.9428
   535.62         27.8357
   535.76         27.7126
   535.90         27.5776
   536.04         27.4364
   536.18         27.2964
   536.32         27.1656
   536.46         27.0516
   536.60         26.9605
   536.74         26.8966
   536.88         26.8617
   537.02         26.8551
   537.16         26.8722
   537.30         26.9047
   537.44         26.9418
   537.58         26.9739
   537.72         26.9971
   537.86         27.0109
   538.00         27.0159
   538.14         27.0127
   538.28         27.0010
   538.42         26.9805
   538.56         26.9531
   538.70         26.9226
   538.84         26.8929
   538.98         26.8666
   539.12         26.8438
   539.26         26.8221
   539.40         26.7983
   539.54         26.7710
   539.68         26.7410
   539.82         26.7103
   539.96         26.6822
   540.10         26.6608
   540.24         26.6519
   540.38         26.6590
   540.52         26.6804
   540.66         26.7128
   540.80         26.7505
   540.94         26.7853
   541.08         26.8094
   541.22         26.8174
   541.36         26.8064
   541.50         26.7749
   541.64         26.7222
   541.78         26.6491
   541.92         26.5587
   542.06         26.4589
   542.20         26.3600
   542.34         26.2707
   542.48         26.1967
   542.62         26.1410
   542.76         26.1042
   542.90         26.0843
   543.04         26.0764
   543.18         26.0761
   543.32         26.0790
   543.46         26.0784
   543.60         26.0680
   543.74         26.0448
   543.88         26.0068
   544.02         25.9523
   544.16         25.8802
   544.30         25.7901
   544.44         25.6833
   544.58         25.5634
   544.72         25.4369
   544.86         25.3099
   545.00         25.1875
   545.14         25.0750
   545.28         24.9791
   545.42         24.9060
   545.56         24.8600
   545.70         24.8433
   545.84         24.8551
   545.98         24.8898
   546.12         24.9386
   546.26         24.9936
   546.40         25.0461
   546.54         25.0860
   546.68         25.1061
   546.82         25.1038
   546.96         25.0801
   547.10         25.0389
   547.24         24.9868
   547.38         24.9310
   547.52         24.8781
   547.66         24.8340
   547.80         24.8026
   547.94         24.7854
   548.08         24.7805
   548.22         24.7834
   548.36         24.7890
   548.50         24.7932
   548.64         24.7937
   548.78         24.7911
   548.92         24.7875
   549.06         24.7842
   549.20         24.7839
   549.34         24.7905
   549.48         24.8064
   549.62         24.8311
   549.76         24.8627
   549.90         24.8990
   550.04         24.9380
   550.18         24.9777
   550.32         25.0163
   550.46         25.0520
   550.60         25.0842
   550.74         25.1136
   550.88         25.1422
   551.02         25.1726
   551.16         25.2060
   551.30         25.2390
   551.44         25.2648
   551.58         25.2761
   551.72         25.2670
   551.86         25.2340
   552.00         25.1769
   552.14         25.0985
   552.28         25.0035
   552.42         24.8978
   552.56         24.7880
   552.70         24.6800
   552.84         24.5787
   552.98         24.4870
   553.12         24.4063
   553.26         24.3373
   553.40         24.2805
   553.54         24.2348
   553.68         24.1977
   553.82         24.1653
   553.96         24.1348
   554.10         24.1071
   554.24         24.0849
   554.38         24.0688
   554.52         24.0579
   554.66         24.0506
   554.80         24.0447
   554.94         24.0377
   555.08         24.0276
   555.22         24.0135
   555.36         23.9952
   555.50         23.9723
   555.64         23.9458
   555.78         23.9180
   555.92         23.8911
   556.06         23.8664
   556.20         23.8437
   556.34         23.8225
   556.48         23.8022
   556.62         23.7831
   556.76         23.7653
   556.90         23.7473
   557.04         23.7283
   557.18         23.7099
   557.32         23.6938
   557.46         23.6796
   557.60         23.6652
   557.74         23.6490
   557.88         23.6307
   558.02         23.6103
   558.16         23.5871
   558.30         23.5597
   558.44         23.5264
   558.58         23.4869
   558.72         23.4434
   558.86         23.3992
   559.00         23.3567
   559.14         23.3174
   559.28         23.2826
   559.42         23.2520
   559.56         23.2237
   559.70         23.1957
   559.84         23.1666
   559.98         23.1351
   560.12         23.1006
   560.26         23.0639
   560.40         23.0271
   560.54         22.9933
   560.68         22.9655
   560.82         22.9467
   560.96         22.9404
   561.10         22.9477
   561.24         22.9671
   561.38         22.9934
   561.52         23.0185
   561.66         23.0340
   561.80         23.0348
   561.94         23.0197
   562.08         22.9907
   562.22         22.9510
   562.36         22.9054
   562.50         22.8586
   562.64         22.8137
   562.78         22.7720
   562.92         22.7338
   563.06         22.7004
   563.20         22.6731
   563.34         22.6526
   563.48         22.6391
   563.62         22.6317
   563.76         22.6285
   563.90         22.6271
   564.04         22.6246
   564.18         22.6199
   564.32         22.6128
   564.46         22.6026
   564.60         22.5875
   564.74         22.5649
   564.88         22.5309
   565.02         22.4829
   565.16         22.4207
   565.30         22.3462
   565.44         22.2622
   565.58         22.1731
   565.72         22.0854
   565.86         22.0054
   566.00         21.9389
   566.14         21.8886
   566.28         21.8535
   566.42         21.8317
   566.56         21.8199
   566.70         21.8148
   566.84         21.8134
   566.98         21.8128
   567.12         21.8114
   567.26         21.8097
   567.40         21.8090
   567.54         21.8111
   567.68         21.8182
   567.82         21.8312
   567.96         21.8503
   568.10         21.8755
   568.24         21.9066
   568.38         21.9414
   568.52         21.9755
   568.66         22.0035
   568.80         22.0207
   568.94         22.0242
   569.08         22.0130
   569.22         21.9846
   569.36         21.9378
   569.50         21.8751
   569.64         21.8032
   569.78         21.7306
   569.92         21.6643
   570.06         21.6097
   570.20         21.5694
   570.34         21.5426
   570.48         21.5270
   570.62         21.5196
   570.76         21.5156
   570.90         21.5089
   571.04         21.4936
   571.18         21.4662
   571.32         21.4250
   571.46         21.3699
   571.60         21.3022
   571.74         21.2243
   571.88         21.1406
   572.02         21.0572
   572.16         20.9808
   572.30         20.9159
   572.44         20.8637
   572.58         20.8217
   572.72         20.7858
   572.86         20.7527
   573.00         20.7218
   573.14         20.6942
   573.28         20.6700
   573.42         20.6469
   573.56         20.6221
   573.70         20.5923
   573.84         20.5544
   573.98         20.5079
   574.12         20.4553
   574.26         20.4010
   574.40         20.3491
   574.54         20.3034
   574.68         20.2669
   574.82         20.2418
   574.96         20.2303
   575.10         20.2336
   575.24         20.2531
   575.38         20.2906
   575.52         20.3479
   575.66         20.4248
   575.80         20.5156
   575.94         20.6103
   576.08         20.6993
   576.22         20.7752
   576.36         20.8332
   576.50         20.8709
   576.64         20.8855
   576.78         20.8720
   576.92         20.8243
   577.06         20.7411
   577.20         20.6281
   577.34         20.4959
   577.48         20.3584
   577.62         20.2306
   577.76         20.1261
   577.90         20.0536
   578.04         20.0160
   578.18         20.0105
   578.32         20.0303
   578.46         20.0663
   578.60         20.1101
   578.74         20.1559
   578.88         20.1989
   579.02         20.2335
   579.16         20.2556
   579.30         20.2629
   579.44         20.2563
   579.58         20.2408
   579.72         20.2234
   579.86         20.2087
   580.00         20.1972
   580.14         20.1876
   580.28         20.1775
   580.42         20.1633
   580.56         20.1415
   580.70         20.1120
   580.84         20.0782
   580.98         20.0466
   581.12         20.0240
   581.26         20.0165
   581.40         20.0277
   581.54         20.0571
   581.68         20.0995
   581.82         20.1489
   581.96         20.1989
   582.10         20.2422
   582.24         20.2729
   582.38         20.2865
   582.52         20.2811
   582.66         20.2569
   582.80         20.2158
   582.94         20.1616
   583.08         20.0988
   583.22         20.0341
   583.36         19.9764
   583.50         19.9338
   583.64         19.9130
   583.78         19.9164
   583.92         19.9410
   584.06         19.9787
   584.20         20.0197
   584.34         20.0549
   584.48         20.0777
   584.62         20.0843
   584.76         20.0745
   584.90         20.0525
   585.04         20.0244
   585.18         19.9959
   585.32         19.9716
   585.46         19.9555
   585.60         19.9495
   585.74         19.9531
   585.88         19.9620
   586.02         19.9664
   586.16         19.9528
   586.30         19.9077
   586.44         19.8215
   586.58         19.6924
   586.72         19.5272
   586.86         19.3391
   587.00         19.1444
   587.14         18.9597
   587.28         18.8008
   587.42         18.6786
   587.56         18.5946
   587.70         18.5369
   587.84         18.4874
   587.98         18.4313
   588.12         18.3576
   588.26         18.2555
   588.40         18.1154
   588.54         17.9350
   588.68         17.7226
   588.82         17.4969
   588.96         17.2822
   589.10         17.1035
   589.24         16.9818
   589.38         16.9317
   589.52         16.9598
   589.66         17.0641
   589.80         17.2339
   589.94         17.4512
   590.08         17.6938
   590.22         17.9379
   590.36         18.1634
   590.50         18.3580
   590.64         18.5152
   590.78         18.6298
   590.92         18.7001
   591.06         18.7324
   591.20         18.7407
   591.34         18.7405
   591.48         18.7428
   591.62         18.7519
   591.76         18.7679
   591.90         18.7895
   592.04         18.8134
   592.18         18.8332
   592.32         18.8428
   592.46         18.8381
   592.60         18.8182
   592.74         18.7847
   592.88         18.7410
   593.02         18.6914
   593.16         18.6409
   593.30         18.5947
   593.44         18.5582
   593.58         18.5357
   593.72         18.5291
   593.86         18.5368
   594.00         18.5531
   594.14         18.5710
   594.28         18.5843
   594.42         18.5909
   594.56         18.5911
   594.70         18.5858
   594.84         18.5767
   594.98         18.5671
   595.12         18.5599
   595.26         18.5559
   595.40         18.5548
   595.54         18.5569
   595.68         18.5622
   595.82         18.5687
   595.96         18.5729
   596.10         18.5723
   596.24         18.5655
   596.38         18.5526
   596.52         18.5332
   596.66         18.5076
   596.80         18.4776
   596.94         18.4468
   597.08         18.4180
   597.22         18.3905
   597.36         18.3620
   597.50         18.3313
   597.64         18.2983
   597.78         18.2633
   597.92         18.2254
   598.06         18.1841
   598.20         18.1395
   598.34         18.0917
   598.48         18.0428
   598.62         17.9979
   598.76         17.9623
   598.90         17.9386
   599.04         17.9260
   599.18         17.9221
   599.32         17.9238
   599.46         17.9282
   599.60         17.9315
   599.74         17.9263
   599.88         17.9055
   600.02         17.8664
   600.16         17.8105
   600.30         17.7414
   600.44         17.6624
   600.58         17.5777
   600.72         17.4929
   600.86         17.4138
   601.00         17.3466
   601.14         17.2965
   601.28         17.2649
   601.42         17.2486
   601.56         17.2442
   601.70         17.2506
   601.84         17.2678
   601.98         17.2940
   602.12         17.3265
   602.26         17.3610
   602.40         17.3914
   602.54         17.4137
   602.68         17.4285
   602.82         17.4367
   602.96         17.4381
   603.10         17.4342
   603.24         17.4267
   603.38         17.4169
   603.52         17.4045
   603.66         17.3883
   603.80         17.3661
   603.94         17.3355
   604.08         17.2965
   604.22         17.2522
   604.36         17.2075
   604.50         17.1663
   604.64         17.1314
   604.78         17.1046
   604.92         17.0869
   605.06         17.0782
   605.20         17.0786
   605.34         17.0875
   605.48         17.1020
   605.62         17.1194
   605.76         17.1371
   605.90         17.1523
   606.04         17.1629
   606.18         17.1671
   606.32         17.1644
   606.46         17.1555
   606.60         17.1428
   606.74         17.1306
   606.88         17.1223
   607.02         17.1193
   607.16         17.1203
   607.30         17.1224
   607.44         17.1239
   607.58         17.1233
   607.72         17.1199
   607.86         17.1144
   608.00         17.1075
   608.14         17.0982
   608.28         17.0843
   608.42         17.0661
   608.56         17.0445
   608.70         17.0198
   608.84         16.9923
   608.98         16.9633
   609.12         16.9357
   609.26         16.9135
   609.40         16.9008
   609.54         16.8992
   609.68         16.9076
   609.82         16.9232
   609.96         16.9432
   610.10         16.9654
   610.24         16.9870
   610.38         17.0047
   610.52         17.0151
   610.66         17.0150
   610.80         17.0026
   610.94         16.9787
   611.08         16.9441
   611.22         16.8989
   611.36         16.8456
   611.50         16.7884
   611.64         16.7306
   611.78         16.6753
   611.92         16.6249
   612.06         16.5812
   612.20         16.5443
   612.34         16.5126
   612.48         16.4849
   612.62         16.4607
   612.76         16.4399
   612.90         16.4210
   613.04         16.4038
   613.18         16.3894
   613.32         16.3780
   613.46         16.3680
   613.60         16.3560
   613.74         16.3398
   613.88         16.3192
   614.02         16.2959
   614.16         16.2712
   614.30         16.2481
   614.44         16.2303
   614.58         16.2191
   614.72         16.2135
   614.86         16.2111
   615.00         16.2098
   615.14         16.2070
   615.28         16.2009
   615.42         16.1910
   615.56         16.1767
   615.70         16.1577
   615.84         16.1325
   615.98         16.0991
   616.12         16.0575
   616.26         16.0111
   616.40         15.9656
   616.54         15.9273
   616.68         15.9007
   616.82         15.8868
   616.96         15.8819
   617.10         15.8801
   617.24         15.8762
   617.38         15.8683
   617.52         15.8561
   617.66         15.8392
   617.80         15.8176
   617.94         15.7924
   618.08         15.7654
   618.22         15.7380
   618.36         15.7130
   618.50         15.6938
   618.64         15.6829
   618.78         15.6822
   618.92         15.6912
   619.06         15.7066
   619.20         15.7235
   619.34         15.7371
   619.48         15.7443
   619.62         15.7441
   619.76         15.7376
   619.90         15.7266
   620.04         15.7122
   620.18         15.6948
   620.32         15.6753
   620.46         15.6541
   620.60         15.6309
   620.74         15.6061
   620.88         15.5823
   621.02         15.5615
   621.16         15.5445
   621.30         15.5314
   621.44         15.5215
   621.58         15.5138
   621.72         15.5087
   621.86         15.5085
   622.00         15.5148
   622.14         15.5275
   622.28         15.5458
   622.42         15.5685
   622.56         15.5932
   622.70         15.6159
   622.84         15.6328
   622.98         15.6422
   623.12         15.6447
   623.26         15.6435
   623.40         15.6431
   623.54         15.6472
   623.68         15.6564
   623.82         15.6687
   623.96         15.6813
   624.10         15.6907
   624.24         15.6949
   624.38         15.6931
   624.52         15.6850
   624.66         15.6721
   624.80         15.6584
   624.94         15.6489
   625.08         15.6458
   625.22         15.6492
   625.36         15.6600
   625.50         15.6787
   625.64         15.7039
   625.78         15.7311
   625.92         15.7536
   626.06         15.7642
   626.20         15.7581
   626.34         15.7316
   626.48         15.6819
   626.62         15.6069
   626.76         15.5074
   626.90         15.3867
   627.04         15.2497
   627.18         15.1026
   627.32         14.9527
   627.46         14.8076
   627.60         14.6753
   627.74         14.5628
   627.88         14.4766
   628.02         14.4227
   628.16         14.4042
   628.30         14.4211
   628.44         14.4709
   628.58         14.5497
   628.72         14.6518
   628.86         14.7688
   629.00         14.8885
   629.14         14.9968
   629.28         15.0837
   629.42         15.1450
   629.56         15.1807
   629.70         15.1944
   629.84         15.1912
   629.98         15.1766
   630.12         15.1555
   630.26         15.1300
   630.40         15.1005
   630.54         15.0683
   630.68         15.0366
   630.82         15.0078
   630.96         14.9832
   631.10         14.9640
   631.24         14.9513
   631.38         14.9448
   631.52         14.9434
   631.66         14.9471
   631.80         14.9565
   631.94         14.9723
   632.08         14.9943
   632.22         15.0210
   632.36         15.0487
   632.50         15.0718
   632.64         15.0844
   632.78         15.0831
   632.92         15.0677
   633.06         15.0402
   633.20         15.0025
   633.34         14.9552
   633.48         14.8979
   633.62         14.8305
   633.76         14.7541
   633.90         14.6710
   634.04         14.5846
   634.18         14.4995
   634.32         14.4198
   634.46         14.3488
   634.60         14.2906
   634.74         14.2487
   634.88         14.2242
   635.02         14.2157
   635.16         14.2205
   635.30         14.2345
   635.44         14.2542
   635.58         14.2767
   635.72         14.2991
   635.86         14.3184
   636.00         14.3314
   636.14         14.3356
   636.28         14.3297
   636.42         14.3134
   636.56         14.2864
   636.70         14.2497
   636.84         14.2055
   636.98         14.1574
   637.12         14.1092
   637.26         14.0636
   637.40         14.0226
   637.54         13.9885
   637.68         13.9638
   637.82         13.9502
   637.96         13.9486
   638.10         13.9591
   638.24         13.9790
   638.38         14.0028
   638.52         14.0238
   638.66         14.0370
   638.80         14.0409
   638.94         14.0362
   639.08         14.0238
   639.22         14.0053
   639.36         13.9836
   639.50         13.9625
   639.64         13.9457
   639.78         13.9370
   639.92         13.9394
   640.06         13.9543
   640.20         13.9799
   640.34         14.0124
   640.48         14.0469
   640.62         14.0783
   640.76         14.1014
   640.90         14.1124
   641.04         14.1111
   641.18         14.0998
   641.32         14.0822
   641.46         14.0614
   641.60         14.0388
   641.74         14.0161
   641.88         13.9961
   642.02         13.9819
   642.16         13.9750
   642.30         13.9745
   642.44         13.9777
   642.58         13.9806
   642.72         13.9804
   642.86         13.9741
   643.00         13.9587
   643.14         13.9320
   643.28         13.8935
   643.42         13.8427
   643.56         13.7796
   643.70         13.7069
   643.84         13.6289
   643.98         13.5504
   644.12         13.4768
   644.26         13.4144
   644.40         13.3682
   644.54         13.3399
   644.68         13.3280
   644.82         13.3306
   644.96         13.3463
   645.10         13.3733
   645.24         13.4078
   645.38         13.4435
   645.52         13.4735
   645.66         13.4941
   645.80         13.5046
   645.94         13.5060
   646.08         13.4984
   646.22         13.4839
   646.36         13.4662
   646.50         13.4481
   646.64         13.4310
   646.78         13.4161
   646.92         13.4045
   647.06         13.3970
   647.20         13.3945
   647.34         13.3973
   647.48         13.4053
   647.62         13.4172
   647.76         13.4305
   647.90         13.4421
   648.04         13.4495
   648.18         13.4518
   648.32         13.4494
   648.46         13.4426
   648.60         13.4314
   648.74         13.4169
   648.88         13.4014
   649.02         13.3870
   649.16         13.3748
   649.30         13.3660
   649.44         13.3624
   649.58         13.3636
   649.72         13.3667
   649.86         13.3673
   650.00         13.3624
   650.14         13.3510
   650.28         13.3330
   650.42         13.3084
   650.56         13.2769
   650.70         13.2395
   650.84         13.2001
   650.98         13.1640
   651.12         13.1375
   651.26         13.1254
   651.40         13.1294
   651.54         13.1481
   651.68         13.1781
   651.82         13.2151
   651.96         13.2547
   652.10         13.2920
   652.24         13.3219
   652.38         13.3402
   652.52         13.3449
   652.66         13.3357
   652.80         13.3135
   652.94         13.2806
   653.08         13.2393
   653.22         13.1931
   653.36         13.1467
   653.50         13.1041
   653.64         13.0671
   653.78         13.0348
   653.92         13.0031
   654.06         12.9676
   654.20         12.9250
   654.34         12.8742
   654.48         12.8144
   654.62         12.7427
   654.76         12.6543
   654.90         12.5434
   655.04         12.4050
   655.18         12.2378
   655.32         12.0462
   655.46         11.8415
   655.60         11.6380
   655.74         11.4508
   655.88         11.2940
   656.02         11.1803
   656.16         11.1183
   656.30         11.1116
   656.44         11.1591
   656.58         11.2556
   656.72         11.3927
   656.86         11.5590
   657.00         11.7417
   657.14         11.9258
   657.28         12.0970
   657.42         12.2450
   657.56         12.3650
   657.70         12.4584
   657.84         12.5319
   657.98         12.5942
   658.12         12.6522
   658.26         12.7082
   658.40         12.7617
   658.54         12.8115
   658.68         12.8555
   658.82         12.8912
   658.96         12.9167
   659.10         12.9315
   659.24         12.9370
   659.38         12.9351
   659.52         12.9279
   659.66         12.9168
   659.80         12.9014
   659.94         12.8811
   660.08         12.8555
   660.22         12.8251
   660.36         12.7927
   660.50         12.7613
   660.64         12.7324
   660.78         12.7060
   660.92         12.6821
   661.06         12.6611
   661.20         12.6441
   661.34         12.6326
   661.48         12.6289
   661.62         12.6341
   661.76         12.6477
   661.90         12.6670
   662.04         12.6874
   662.18         12.7043
   662.32         12.7142
   662.46         12.7159
   662.60         12.7104
   662.74         12.6981
   662.88         12.6799
   663.02         12.6570
   663.16         12.6288
   663.30         12.5949
   663.44         12.5558
   663.58         12.5131
   663.72         12.4692
   663.86         12.4266
   664.00         12.3877
   664.14         12.3536
   664.28         12.3236
   664.42         12.2973
   664.56         12.2752
   664.70         12.2569
   664.84         12.2421
   664.98         12.2297
   665.12         12.2182
   665.26         12.2047
   665.40         12.1864
   665.54         12.1632
   665.68         12.1375
   665.82         12.1118
   665.96         12.0886
   666.10         12.0688
   666.24         12.0509
   666.38         12.0316
   666.52         12.0061
   666.66         11.9705
   666.80         11.9220
   666.94         11.8614
   667.08         11.7932
   667.22         11.7230
   667.36         11.6558
   667.50         11.5972
   667.64         11.5524
   667.78         11.5243
   667.92         11.5143
   668.06         11.5226
   668.20         11.5489
   668.34         11.5906
   668.48         11.6426
   668.62         11.6977
   668.76         11.7494
   668.90         11.7934
   669.04         11.8277
   669.18         11.8532
   669.32         11.8724
   669.46         11.8890
   669.60         11.9064
   669.74         11.9264
   669.88         11.9483
   670.02         11.9701
   670.16         11.9900
   670.30         12.0059
   670.44         12.0154
   670.58         12.0167
   670.72         12.0086
   670.86         11.9893
   671.00         11.9577
   671.14         11.9145
   671.28         11.8633
   671.42         11.8090
   671.56         11.7560
   671.70         11.7076
   671.84         11.6662
   671.98         11.6333
   672.12         11.6108
   672.26         11.5995
   672.40         11.5983
   672.54         11.6049
   672.68         11.6176
   672.82         11.6352
   672.96         11.6569
   673.10         11.6827
   673.24         11.7123
   673.38         11.7436
   673.52         11.7738
   673.66         11.8018
   673.80         11.8266
   673.94         11.8470
   674.08         11.8611
   674.22         11.8693
   674.36         11.8730
   674.50         11.8750
   674.64         11.8769
   674.78         11.8787
   674.92         11.8792
   675.06         11.8779
   675.20         11.8755
   675.34         11.8718
   675.48         11.8655
   675.62         11.8547
   675.76         11.8370
   675.90         11.8096
   676.04         11.7717
   676.18         11.7249
   676.32         11.6723
   676.46         11.6163
   676.60         11.5594
   676.74         11.5049
   676.88         11.4568
   677.02         11.4184
   677.16         11.3917
   677.30         11.3780
   677.44         11.3778
   677.58         11.3909
   677.72         11.4152
   677.86         11.4458
   678.00         11.4767
   678.14         11.5027
   678.28         11.5205
   678.42         11.5281
   678.56         11.5249
   678.70         11.5125
   678.84         11.4935
   678.98         11.4722
   679.12         11.4533
   679.26         11.4411
   679.40         11.4385
   679.54         11.4461
   679.68         11.4615
   679.82         11.4810
   679.96         11.5002
   680.10         11.5150
   680.24         11.5222
   680.38         11.5199
   680.52         11.5083
   680.66         11.4902
   680.80         11.4692
   680.94         11.4476
   681.08         11.4263
   681.22         11.4051
   681.36         11.3843
   681.50         11.3650
   681.64         11.3488
   681.78         11.3362
   681.92         11.3261
   682.06         11.3170
   682.20         11.3077
   682.34         11.2971
   682.48         11.2850
   682.62         11.2720
   682.76         11.2589
   682.90         11.2446
   683.04         11.2278
   683.18         11.2078
   683.32         11.1843
   683.46         11.1568
   683.60         11.1256
   683.74         11.0929
   683.88         11.0628
   684.02         11.0407
   684.16         11.0304
   684.30         11.0332
   684.44         11.0475
   684.58         11.0701
   684.72         11.0971
   684.86         11.1250
   685.00         11.1508
   685.14         11.1722
   685.28         11.1864
   685.42         11.1867
   685.56         11.1630
   685.70         11.1044
   685.84         11.0025
   685.98         10.8533
   686.12         10.6582
   686.26         10.4237
   686.40         10.1615
   686.54         9.8873
   686.68         9.6188
   686.82         9.3745
   686.96         9.1724
   687.10         9.0275
   687.24         8.9480
   687.38         8.9341
   687.52         8.9778
   687.66         9.0658
   687.80         9.1805
   687.94         9.3028
   688.08         9.4140
   688.22         9.5005
   688.36         9.5558
   688.50         9.5807
   688.64         9.5810
   688.78         9.5656
   688.92         9.5445
   689.06         9.5267
   689.20         9.5186
   689.34         9.5231
   689.48         9.5406
   689.62         9.5690
   689.76         9.6044
   689.90         9.6428
   690.04         9.6814
   690.18         9.7197
   690.32         9.7599
   690.46         9.8054
   690.60         9.8585
   690.74         9.9198
   690.88         9.9880
   691.02         10.0602
   691.16         10.1328
   691.30         10.2034
   691.44         10.2697
   691.58         10.3284
   691.72         10.3753
   691.86         10.4065
   692.00         10.4208
   692.14         10.4190
   692.28         10.4038
   692.42         10.3790
   692.56         10.3489
   692.70         10.3176
   692.84         10.2890
   692.98         10.2659
   693.12         10.2501
   693.26         10.2420
   693.40         10.2405
   693.54         10.2432
   693.68         10.2475
   693.82         10.2525
   693.96         10.2590
   694.10         10.2667
   694.24         10.2740
   694.38         10.2790
   694.52         10.2822
   694.66         10.2870
   694.80         10.2989
   694.94         10.3226
   695.08         10.3606
   695.22         10.4120
   695.36         10.4748
   695.50         10.5462
   695.64         10.6236
   695.78         10.7033
   695.92         10.7814
   696.06         10.8534
   696.20         10.9168
   696.34         10.9718
   696.48         11.0203
   696.62         11.0638
   696.76         11.1027
   696.90         11.1364
   697.04         11.1643
   697.18         11.1867
   697.32         11.2029
   697.46         11.2099
   697.60         11.2036
   697.74         11.1812
   697.88         11.1426
   698.02         11.0907
   698.16         11.0286
   698.30         10.9592
   698.44         10.8871
   698.58         10.8177
   698.72         10.7562
   698.86         10.7069
   699.00         10.6720
   699.14         10.6500
   699.28         10.6365
   699.42         10.6270
   699.56         10.6179
   699.70         10.6063
   699.84         10.5895
   699.98         10.5659
   700.12         10.5347
   700.26         10.4967
   700.40         10.4538
   700.54         10.4082
   700.68         10.3621
   700.82         10.3172
   700.96         10.2753
   701.10         10.2372
   701.24         10.2021
   701.38         10.1683
   701.52         10.1340
   701.66         10.0986
   701.80         10.0628
   701.94         10.0286
   702.08         9.9987
   702.22         9.9742
   702.36         9.9541
   702.50         9.9367
   702.64         9.9214
   702.78         9.9085
   702.92         9.8984
   703.06         9.8915
   703.20         9.8885
   703.34         9.8901
   703.48         9.8964
   703.62         9.9065
   703.76         9.9182
   703.90         9.9296
   704.04         9.9408
   704.18         9.9541
   704.32         9.9715
   704.46         9.9936
   704.60         10.0191
   704.74         10.0460
   704.88         10.0726
   705.02         10.0972
   705.16         10.1169
   705.30         10.1291
   705.44         10.1312
   705.58         10.1228
   705.72         10.1058
   705.86         10.0837
   706.00         10.0601
   706.14         10.0378
   706.28         10.0192
   706.42         10.0058
   706.56         9.9995
   706.70         10.0019
   706.84         10.0126
   706.98         10.0281
   707.12         10.0434
   707.26         10.0530
   707.40         10.0524
   707.54         10.0395
   707.68         10.0142
   707.82         9.9782
   707.96         9.9359
   708.10         9.8934
   708.24         9.8560
   708.38         9.8273
   708.52         9.8088
   708.66         9.7984
   708.80         9.7914
   708.94         9.7822
   709.08         9.7669
   709.22         9.7433
   709.36         9.7103
   709.50         9.6670
   709.64         9.6137
   709.78         9.5534
   709.92         9.4908
   710.06         9.4325
   710.20         9.3851
   710.34         9.3525
   710.48         9.3348
   710.62         9.3303
   710.76         9.3366
   710.90         9.3530
   711.04         9.3799
   711.18         9.4170
   711.32         9.4626
   711.46         9.5146
   711.60         9.5715
   711.74         9.6327
   711.88         9.6984
   712.02         9.7689
   712.16         9.8450
   712.30         9.9261
   712.44         10.0104
   712.58         10.0950
   712.72         10.1771
   712.86         10.2531
   713.00         10.3182
   713.14         10.3683
   713.28         10.4014
   713.42         10.4175
   713.56         10.4178
   713.70         10.4035
   713.84         10.3755
   713.98         10.3364
   714.12         10.2889
   714.26         10.2367
   714.40         10.1846
   714.54         10.1370
   714.68         10.0953
   714.82         10.0590
   714.96         10.0274
   715.10         9.9994
   715.24         9.9738
   715.38         9.9481
   715.52         9.9179
   715.66         9.8780
   715.80         9.8254
   715.94         9.7594
   716.08         9.6805
   716.22         9.5914
   716.36         9.4970
   716.50         9.4021
   716.64         9.3104
   716.78         9.2243
   716.92         9.1454
   717.06         9.0743
   717.20         9.0107
   717.34         8.9528
   717.48         8.8984
   717.62         8.8473
   717.76         8.8014
   717.90         8.7609
   718.04         8.7237
   718.18         8.6882
   718.32         8.6556
   718.46         8.6286
   718.60         8.6094
   718.74         8.5974
   718.88         8.5904
   719.02         8.5859
   719.16         8.5826
   719.30         8.5810
   719.44         8.5831
   719.58         8.5911
   719.72         8.6081
   719.86         8.6392
   720.00         8.6910
   720.14         8.7699
   720.28         8.8796
   720.42         9.0169
   720.56         9.1731
   720.70         9.3384
   720.84         9.5044
   720.98         9.6605
   721.12         9.7937
   721.26         9.8922
   721.40         9.9479
   721.54         9.9600
   721.68         9.9341
   721.82         9.8779
   721.96         9.7989
   722.10         9.7028
   722.24         9.5949
   722.38         9.4818
   722.52         9.3720
   722.66         9.2718
   722.80         9.1842
   722.94         9.1104
   723.08         9.0510
   723.22         9.0062
   723.36         8.9761
   723.50         8.9610
   723.64         8.9614
   723.78         8.9778
   723.92         9.0087
   724.06         9.0493
   724.20         9.0932
   724.34         9.1337
   724.48         9.1633
   724.62         9.1748
   724.76         9.1638
   724.90         9.1313
   725.04         9.0825
   725.18         9.0248
   725.32         8.9667
   725.46         8.9168
   725.60         8.8828
   725.74         8.8688
   725.88         8.8758
   726.02         8.9030
   726.16         8.9472
   726.30         9.0022
   726.44         9.0577
   726.58         9.1038
   726.72         9.1352
   726.86         9.1526
   727.00         9.1603
   727.14         9.1638
   727.28         9.1707
   727.42         9.1880
   727.56         9.2192
   727.70         9.2640
   727.84         9.3180
   727.98         9.3733
   728.12         9.4211
   728.26         9.4542
   728.40         9.4682
   728.54         9.4623
   728.68         9.4381
   728.82         9.3991
   728.96         9.3504
   729.10         9.2992
   729.24         9.2542
   729.38         9.2239
   729.52         9.2145
   729.66         9.2274
   729.80         9.2585
   729.94         9.2992
   730.08         9.3402
   730.22         9.3741
   730.36         9.3965
   730.50         9.4044
   730.64         9.3971
   730.78         9.3775
   730.92         9.3495
   731.06         9.3163
   731.20         9.2803
   731.34         9.2439
   731.48         9.2107
   731.62         9.1844
   731.76         9.1671
   731.90         9.1592
   732.04         9.1588
   732.18         9.1634
   732.32         9.1701
   732.46         9.1769
   732.60         9.1840
   732.74         9.1937
   732.88         9.2081
   733.02         9.2269
   733.16         9.2485
   733.30         9.2710
   733.44         9.2929
   733.58         9.3121
   733.72         9.3256
   733.86         9.3304
   734.00         9.3249
   734.14         9.3097
   734.28         9.2878
   734.42         9.2632
   734.56         9.2395
   734.70         9.2205
   734.84         9.2096
   734.98         9.2082
   735.12         9.2163
   735.26         9.2330
   735.40         9.2558
   735.54         9.2811
   735.68         9.3048
   735.82         9.3246
   735.96         9.3408
   736.10         9.3554
   736.24         9.3704
   736.38         9.3870
   736.52         9.4057
   736.66         9.4253
   736.80         9.4428
   736.94         9.4527
   737.08         9.4484
   737.22         9.4255
   737.36         9.3824
   737.50         9.3198
   737.64         9.2419
   737.78         9.1553
   737.92         9.0673
   738.06         8.9847
   738.20         8.9138
   738.34         8.8601
   738.48         8.8268
   738.62         8.8136
   738.76         8.8158
   738.90         8.8264
   739.04         8.8379
   739.18         8.8430
   739.32         8.8362
   739.46         8.8154
   739.60         8.7814
   739.74         8.7373
   739.88         8.6858
   740.02         8.6288
   740.16         8.5690
   740.30         8.5102
   740.44         8.4575
   740.58         8.4162
   740.72         8.3925
   740.86         8.3925
   741.00         8.4186
   741.14         8.4692
   741.28         8.5394
   741.42         8.6224
   741.56         8.7118
   741.70         8.8013
   741.84         8.8848
   741.98         8.9571
   742.12         9.0142
   742.26         9.0543
   742.40         9.0781
   742.54         9.0892
   742.68         9.0930
   742.82         9.0933
   742.96         9.0933
   743.10         9.0930
   743.24         9.0892
   743.38         9.0781
   743.52         9.0543
   743.66         9.0142
   743.80         8.9571
   743.94         8.8848
   744.08         8.8013
   744.22         8.7118
