# File HD12161
# Wavelength [nm]    Normalized Amplitude
   349.70         22.3579
   349.84         22.5941
   349.98         22.8446
   350.12         23.0953
   350.26         23.3333
   350.40         23.5471
   350.54         23.7292
   350.68         23.8749
   350.82         23.9819
   350.96         24.0481
   351.10         24.0706
   351.24         24.0481
   351.38         23.9819
   351.52         23.8749
   351.66         23.7292
   351.80         23.5471
   351.94         23.3333
   352.08         23.0953
   352.22         22.8446
   352.36         22.5941
   352.50         22.3579
   352.64         22.1499
   352.78         21.9819
   352.92         21.8638
   353.06         21.8023
   353.20         21.7993
   353.34         21.8460
   353.48         21.9237
   353.62         22.0122
   353.76         22.0957
   353.90         22.1659
   354.04         22.2209
   354.18         22.2630
   354.32         22.2939
   354.46         22.3138
   354.60         22.3241
   354.74         22.3289
   354.88         22.3350
   355.02         22.3495
   355.16         22.3740
   355.30         22.4023
   355.44         22.4223
   355.58         22.4203
   355.72         22.3818
   355.86         22.2930
   356.00         22.1435
   356.14         21.9346
   356.28         21.6809
   356.42         21.4040
   356.56         21.1281
   356.70         20.8757
   356.84         20.6629
   356.98         20.4971
   357.12         20.3799
   357.26         20.3084
   357.40         20.2727
   357.54         20.2572
   357.68         20.2449
   357.82         20.2226
   357.96         20.1840
   358.10         20.1290
   358.24         20.0602
   358.38         19.9832
   358.52         19.9084
   358.66         19.8489
   358.80         19.8168
   358.94         19.8220
   359.08         19.8722
   359.22         19.9691
   359.36         20.1063
   359.50         20.2678
   359.64         20.4291
   359.78         20.5658
   359.92         20.6612
   360.06         20.7101
   360.20         20.7188
   360.34         20.7007
   360.48         20.6676
   360.62         20.6250
   360.76         20.5762
   360.90         20.5274
   361.04         20.4884
   361.18         20.4679
   361.32         20.4704
   361.46         20.4977
   361.60         20.5491
   361.74         20.6173
   361.88         20.6876
   362.02         20.7415
   362.16         20.7635
   362.30         20.7487
   362.44         20.7068
   362.58         20.6550
   362.72         20.6086
   362.86         20.5778
   363.00         20.5690
   363.14         20.5881
   363.28         20.6411
   363.42         20.7304
   363.56         20.8503
   363.70         20.9868
   363.84         21.1236
   363.98         21.2486
   364.12         21.3568
   364.26         21.4479
   364.40         21.5246
   364.54         21.5922
   364.68         21.6578
   364.82         21.7314
   364.96         21.8228
   365.10         21.9353
   365.24         22.0637
   365.38         22.2001
   365.52         22.3397
   365.66         22.4797
   365.80         22.6142
   365.94         22.7302
   366.08         22.8117
   366.22         22.8521
   366.36         22.8578
   366.50         22.8397
   366.64         22.8070
   366.78         22.7624
   366.92         22.7031
   367.06         22.6246
   367.20         22.5242
   367.34         22.4018
   367.48         22.2591
   367.62         22.0991
   367.76         21.9253
   367.90         21.7459
   368.04         21.5747
   368.18         21.4262
   368.32         21.3120
   368.46         21.2353
   368.60         21.1949
   368.74         21.1916
   368.88         21.2281
   369.02         21.2972
   369.16         21.3812
   369.30         21.4621
   369.44         21.5280
   369.58         21.5762
   369.72         21.6082
   369.86         21.6241
   370.00         21.6233
   370.14         21.6100
   370.28         21.5993
   370.42         21.6189
   370.56         21.6975
   370.70         21.8478
   370.84         22.0607
   370.98         22.3118
   371.12         22.5724
   371.26         22.8253
   371.40         23.0671
   371.54         23.2984
   371.68         23.5186
   371.82         23.7279
   371.96         23.9219
   372.10         24.0848
   372.24         24.1925
   372.38         24.2216
   372.52         24.1639
   372.66         24.0337
   372.80         23.8652
   372.94         23.7020
   373.08         23.5813
   373.22         23.5234
   373.36         23.5321
   373.50         23.5994
   373.64         23.7102
   373.78         23.8455
   373.92         23.9886
   374.06         24.1294
   374.20         24.2605
   374.34         24.3754
   374.48         24.4736
   374.62         24.5611
   374.76         24.6546
   374.90         24.7849
   375.04         24.9880
   375.18         25.2931
   375.32         25.7112
   375.46         26.2242
   375.60         26.7809
   375.74         27.3033
   375.88         27.7076
   376.02         27.9284
   376.16         27.9367
   376.30         27.7513
   376.44         27.4361
   376.58         27.0861
   376.72         26.8045
   376.86         26.6811
   377.00         26.7805
   377.14         27.1384
   377.28         27.7564
   377.42         28.6044
   377.56         29.6249
   377.70         30.7373
   377.84         31.8478
   377.98         32.8551
   378.12         33.6545
   378.26         34.1510
   378.40         34.2787
   378.54         34.0151
   378.68         33.3856
   378.82         32.4576
   378.96         31.3316
   379.10         30.1296
   379.24         28.9816
   379.38         28.0116
   379.52         27.3238
   379.66         26.9944
   379.80         27.0656
   379.94         27.5383
   380.08         28.3727
   380.22         29.4978
   380.36         30.8224
   380.50         32.2440
   380.64         33.6579
   380.78         34.9662
   380.92         36.0886
   381.06         36.9739
   381.20         37.5995
   381.34         37.9636
   381.48         38.0796
   381.62         37.9704
   381.76         37.6611
   381.90         37.1703
   382.04         36.5062
   382.18         35.6717
   382.32         34.6706
   382.46         33.5133
   382.60         32.2272
   382.74         30.8708
   382.88         29.5308
   383.02         28.3072
   383.16         27.3018
   383.30         26.6044
   383.44         26.2801
   383.58         26.3644
   383.72         26.8620
   383.86         27.7459
   384.00         28.9657
   384.14         30.4519
   384.28         32.1128
   384.42         33.8374
   384.56         35.5086
   384.70         37.0255
   384.84         38.3205
   384.98         39.3648
   385.12         40.1652
   385.26         40.7574
   385.40         41.1928
   385.54         41.5261
   385.68         41.8058
   385.82         42.0668
   385.96         42.3238
   386.10         42.5725
   386.24         42.7970
   386.38         42.9729
   386.52         43.0683
   386.66         43.0490
   386.80         42.8842
   386.94         42.5506
   387.08         42.0325
   387.22         41.3206
   387.36         40.4112
   387.50         39.3072
   387.64         38.0174
   387.78         36.5625
   387.92         34.9812
   388.06         33.3325
   388.20         31.6911
   388.34         30.1413
   388.48         28.7712
   388.62         27.6652
   388.76         26.8954
   388.90         26.5139
   389.04         26.5442
   389.18         26.9797
   389.32         27.7873
   389.46         28.9066
   389.60         30.2574
   389.74         31.7529
   389.88         33.3091
   390.02         34.8511
   390.16         36.3165
   390.30         37.6582
   390.44         38.8453
   390.58         39.8607
   390.72         40.7003
   390.86         41.3723
   391.00         41.8967
   391.14         42.2964
   391.28         42.5876
   391.42         42.7769
   391.56         42.8628
   391.70         42.8363
   391.84         42.6741
   391.98         42.3312
   392.12         41.7545
   392.26         40.9082
   392.40         39.7927
   392.54         38.4513
   392.68         36.9705
   392.82         35.4705
   392.96         34.0883
   393.10         32.9567
   393.24         32.1865
   393.38         31.8539
   393.52         31.9861
   393.66         32.5535
   393.80         33.4731
   393.94         34.6254
   394.08         35.8754
   394.22         37.0908
   394.36         38.1532
   394.50         38.9683
   394.64         39.4834
   394.78         39.7014
   394.92         39.6656
   395.06         39.4326
   395.20         39.0463
   395.34         38.5217
   395.48         37.8434
   395.62         36.9768
   395.76         35.8863
   395.90         34.5578
   396.04         33.0158
   396.18         31.3242
   396.32         29.5786
   396.46         27.8981
   396.60         26.4116
   396.74         25.2411
   396.88         24.4844
   397.02         24.2053
   397.16         24.4271
   397.30         25.1321
   397.44         26.2624
   397.58         27.7259
   397.72         29.4116
   397.86         31.2060
   398.00         33.0034
   398.14         34.7170
   398.28         36.2863
   398.42         37.6787
   398.56         38.8858
   398.70         39.9171
   398.84         40.7912
   398.98         41.5284
   399.12         42.1500
   399.26         42.6720
   399.40         43.1034
   399.54         43.4538
   399.68         43.7393
   399.82         43.9800
   399.96         44.1977
   400.10         44.4113
   400.24         44.6337
   400.38         44.8737
   400.52         45.1399
   400.66         45.4419
   400.80         45.7842
   400.94         46.1613
   401.08         46.5570
   401.22         46.9485
   401.36         47.3128
   401.50         47.6315
   401.64         47.8883
   401.78         48.0640
   401.92         48.1394
   402.06         48.1061
   402.20         47.9726
   402.34         47.7613
   402.48         47.5051
   402.62         47.2408
   402.76         47.0032
   402.90         46.8222
   403.04         46.7213
   403.18         46.7114
   403.32         46.7819
   403.46         46.9040
   403.60         47.0473
   403.74         47.1890
   403.88         47.3160
   404.02         47.4231
   404.16         47.5060
   404.30         47.5526
   404.44         47.5476
   404.58         47.4834
   404.72         47.3650
   404.86         47.2056
   405.00         47.0197
   405.14         46.8151
   405.28         46.5892
   405.42         46.3367
   405.56         46.0573
   405.70         45.7596
   405.84         45.4581
   405.98         45.1707
   406.12         44.9198
   406.26         44.7250
   406.40         44.5911
   406.54         44.5023
   406.68         44.4284
   406.82         44.3389
   406.96         44.2113
   407.10         44.0325
   407.24         43.7971
   407.38         43.5040
   407.52         43.1537
   407.66         42.7479
   407.80         42.2905
   407.94         41.7894
   408.08         41.2555
   408.22         40.6977
   408.36         40.1144
   408.50         39.4911
   408.64         38.8034
   408.78         38.0202
   408.92         37.1066
   409.06         36.0348
   409.20         34.8018
   409.34         33.4422
   409.48         32.0254
   409.62         30.6381
   409.76         29.3717
   409.90         28.3160
   410.04         27.5534
   410.18         27.1529
   410.32         27.1594
   410.46         27.5859
   410.60         28.4103
   410.74         29.5737
   410.88         30.9888
   411.02         32.5530
   411.16         34.1601
   411.30         35.7117
   411.44         37.1252
   411.58         38.3450
   411.72         39.3485
   411.86         40.1398
   412.00         40.7369
   412.14         41.1645
   412.28         41.4547
   412.42         41.6509
   412.56         41.8029
   412.70         41.9598
   412.84         42.1598
   412.98         42.4219
   413.12         42.7453
   413.26         43.1143
   413.40         43.5065
   413.54         43.8994
   413.68         44.2689
   413.82         44.5897
   413.96         44.8413
   414.10         45.0086
   414.24         45.0824
   414.38         45.0604
   414.52         44.9511
   414.66         44.7777
   414.80         44.5741
   414.94         44.3778
   415.08         44.2198
   415.22         44.1169
   415.36         44.0739
   415.50         44.0849
   415.64         44.1386
   415.78         44.2258
   415.92         44.3390
   416.06         44.4685
   416.20         44.5999
   416.34         44.7153
   416.48         44.7982
   416.62         44.8339
   416.76         44.8119
   416.90         44.7320
   417.04         44.6077
   417.18         44.4598
   417.32         44.3093
   417.46         44.1723
   417.60         44.0588
   417.74         43.9755
   417.88         43.9299
   418.02         43.9316
   418.16         43.9887
   418.30         44.1035
   418.44         44.2646
   418.58         44.4436
   418.72         44.6063
   418.86         44.7274
   419.00         44.7946
   419.14         44.8055
   419.28         44.7659
   419.42         44.6898
   419.56         44.5965
   419.70         44.5051
   419.84         44.4335
   419.98         44.4006
   420.12         44.4227
   420.26         44.5049
   420.40         44.6391
   420.54         44.8068
   420.68         44.9823
   420.82         45.1353
   420.96         45.2364
   421.10         45.2625
   421.24         45.2026
   421.38         45.0589
   421.52         44.8423
   421.66         44.5691
   421.80         44.2628
   421.94         43.9531
   422.08         43.6670
   422.22         43.4227
   422.36         43.2296
   422.50         43.0913
   422.64         43.0068
   422.78         42.9698
   422.92         42.9714
   423.06         43.0053
   423.20         43.0681
   423.34         43.1555
   423.48         43.2591
   423.62         43.3669
   423.76         43.4637
   423.90         43.5349
   424.04         43.5725
   424.18         43.5798
   424.32         43.5687
   424.46         43.5507
   424.60         43.5298
   424.74         43.5024
   424.88         43.4669
   425.02         43.4291
   425.16         43.4000
   425.30         43.3904
   425.44         43.4097
   425.58         43.4614
   425.72         43.5408
   425.86         43.6338
   426.00         43.7204
   426.14         43.7790
   426.28         43.7929
   426.42         43.7560
   426.56         43.6745
   426.70         43.5648
   426.84         43.4484
   426.98         43.3440
   427.12         43.2629
   427.26         43.2091
   427.40         43.1793
   427.54         43.1658
   427.68         43.1542
   427.82         43.1218
   427.96         43.0437
   428.10         42.9014
   428.24         42.6841
   428.38         42.3901
   428.52         42.0261
   428.66         41.6072
   428.80         41.1543
   428.94         40.6911
   429.08         40.2413
   429.22         39.8259
   429.36         39.4593
   429.50         39.1450
   429.64         38.8761
   429.78         38.6417
   429.92         38.4347
   430.06         38.2507
   430.20         38.0849
   430.34         37.9313
   430.48         37.7893
   430.62         37.6691
   430.76         37.5837
   430.90         37.5358
   431.04         37.5171
   431.18         37.5120
   431.32         37.5006
   431.46         37.4639
   431.60         37.3913
   431.74         37.2825
   431.88         37.1391
   432.02         36.9565
   432.16         36.7242
   432.30         36.4289
   432.44         36.0553
   432.58         35.5824
   432.72         34.9818
   432.86         34.2269
   433.00         33.3088
   433.14         32.2469
   433.28         31.0855
   433.42         29.8846
   433.56         28.7165
   433.70         27.6612
   433.84         26.7957
   433.98         26.1848
   434.12         25.8766
   434.26         25.8994
   434.40         26.2548
   434.54         26.9150
   434.68         27.8300
   434.82         28.9359
   434.96         30.1615
   435.10         31.4349
   435.24         32.6933
   435.38         33.8912
   435.52         35.0032
   435.66         36.0191
   435.80         36.9376
   435.94         37.7596
   436.08         38.4842
   436.22         39.1055
   436.36         39.6150
   436.50         40.0117
   436.64         40.3083
   436.78         40.5269
   436.92         40.6922
   437.06         40.8238
   437.20         40.9345
   437.34         41.0319
   437.48         41.1213
   437.62         41.2084
   437.76         41.2974
   437.90         41.3897
   438.04         41.4850
   438.18         41.5786
   438.32         41.6642
   438.46         41.7394
   438.60         41.8049
   438.74         41.8590
   438.88         41.8958
   439.02         41.9131
   439.16         41.9157
   439.30         41.9087
   439.44         41.8924
   439.58         41.8645
   439.72         41.8261
   439.86         41.7858
   440.00         41.7579
   440.14         41.7555
   440.28         41.7830
   440.42         41.8311
   440.56         41.8833
   440.70         41.9256
   440.84         41.9495
   440.98         41.9527
   441.12         41.9368
   441.26         41.9058
   441.40         41.8663
   441.54         41.8296
   441.68         41.8113
   441.82         41.8248
   441.96         41.8743
   442.10         41.9546
   442.24         42.0545
   442.38         42.1603
   442.52         42.2602
   442.66         42.3465
   442.80         42.4151
   442.94         42.4600
   443.08         42.4718
   443.22         42.4464
   443.36         42.3897
   443.50         42.3134
   443.64         42.2265
   443.78         42.1349
   443.92         42.0452
   444.06         41.9618
   444.20         41.8831
   444.34         41.8027
   444.48         41.7111
   444.62         41.6005
   444.76         41.4666
   444.90         41.3119
   445.04         41.1466
   445.18         40.9843
   445.32         40.8356
   445.46         40.7035
   445.60         40.5828
   445.74         40.4690
   445.88         40.3687
   446.02         40.2954
   446.16         40.2597
   446.30         40.2648
   446.44         40.3102
   446.58         40.3934
   446.72         40.5062
   446.86         40.6333
   447.00         40.7540
   447.14         40.8538
   447.28         40.9296
   447.42         40.9856
   447.56         41.0283
   447.70         41.0602
   447.84         41.0772
   447.98         41.0726
   448.12         41.0433
   448.26         40.9907
   448.40         40.9216
   448.54         40.8493
   448.68         40.7878
   448.82         40.7465
   448.96         40.7286
   449.10         40.7348
   449.24         40.7661
   449.38         40.8234
   449.52         40.9055
   449.66         41.0121
   449.80         41.1474
   449.94         41.3122
   450.08         41.4991
   450.22         41.6939
   450.36         41.8770
   450.50         42.0294
   450.64         42.1395
   450.78         42.2001
   450.92         42.2023
   451.06         42.1400
   451.20         42.0145
   451.34         41.8337
   451.48         41.6095
   451.62         41.3537
   451.76         41.0765
   451.90         40.7862
   452.04         40.4898
   452.18         40.1928
   452.32         39.9052
   452.46         39.6461
   452.60         39.4375
   452.74         39.2946
   452.88         39.2221
   453.02         39.2178
   453.16         39.2776
   453.30         39.3937
   453.44         39.5524
   453.58         39.7346
   453.72         39.9190
   453.86         40.0840
   454.00         40.2116
   454.14         40.2880
   454.28         40.3022
   454.42         40.2519
   454.56         40.1486
   454.70         40.0121
   454.84         39.8651
   454.98         39.7314
   455.12         39.6288
   455.26         39.5628
   455.40         39.5322
   455.54         39.5367
   455.68         39.5751
   455.82         39.6395
   455.96         39.7163
   456.10         39.7900
   456.24         39.8475
   456.38         39.8819
   456.52         39.8945
   456.66         39.8910
   456.80         39.8748
   456.94         39.8449
   457.08         39.7982
   457.22         39.7332
   457.36         39.6519
   457.50         39.5608
   457.64         39.4678
   457.78         39.3775
   457.92         39.2933
   458.06         39.2199
   458.20         39.1605
   458.34         39.1151
   458.48         39.0829
   458.62         39.0662
   458.76         39.0681
   458.90         39.0901
   459.04         39.1316
   459.18         39.1889
   459.32         39.2549
   459.46         39.3228
   459.60         39.3881
   459.74         39.4505
   459.88         39.5140
   460.02         39.5828
   460.16         39.6577
   460.30         39.7362
   460.44         39.8152
   460.58         39.8920
   460.72         39.9639
   460.86         40.0283
   461.00         40.0856
   461.14         40.1391
   461.28         40.1922
   461.42         40.2448
   461.56         40.2927
   461.70         40.3284
   461.84         40.3426
   461.98         40.3288
   462.12         40.2837
   462.26         40.2039
   462.40         40.0869
   462.54         39.9347
   462.68         39.7556
   462.82         39.5650
   462.96         39.3816
   463.10         39.2199
   463.24         39.0864
   463.38         38.9808
   463.52         38.8998
   463.66         38.8383
   463.80         38.7918
   463.94         38.7564
   464.08         38.7268
   464.22         38.6963
   464.36         38.6587
   464.50         38.6151
   464.64         38.5738
   464.78         38.5459
   464.92         38.5428
   465.06         38.5749
   465.20         38.6504
   465.34         38.7679
   465.48         38.9125
   465.62         39.0590
   465.76         39.1794
   465.90         39.2514
   466.04         39.2641
   466.18         39.2213
   466.32         39.1381
   466.46         39.0349
   466.60         38.9280
   466.74         38.8238
   466.88         38.7250
   467.02         38.6404
   467.16         38.5834
   467.30         38.5643
   467.44         38.5839
   467.58         38.6333
   467.72         38.6983
   467.86         38.7643
   468.00         38.8175
   468.14         38.8507
   468.28         38.8659
   468.42         38.8705
   468.56         38.8747
   468.70         38.8875
   468.84         38.9124
   468.98         38.9439
   469.12         38.9701
   469.26         38.9783
   469.40         38.9587
   469.54         38.9080
   469.68         38.8276
   469.82         38.7205
   469.96         38.5918
   470.10         38.4477
   470.24         38.2912
   470.38         38.1250
   470.52         37.9552
   470.66         37.7929
   470.80         37.6503
   470.94         37.5356
   471.08         37.4536
   471.22         37.4061
   471.36         37.3894
   471.50         37.3961
   471.64         37.4179
   471.78         37.4493
   471.92         37.4891
   472.06         37.5376
   472.20         37.5950
   472.34         37.6612
   472.48         37.7335
   472.62         37.8060
   472.76         37.8702
   472.90         37.9202
   473.04         37.9556
   473.18         37.9804
   473.32         37.9978
   473.46         38.0074
   473.60         38.0089
   473.74         38.0061
   473.88         38.0061
   474.02         38.0163
   474.16         38.0382
   474.30         38.0670
   474.44         38.0953
   474.58         38.1139
   474.72         38.1140
   474.86         38.0904
   475.00         38.0373
   475.14         37.9484
   475.28         37.8233
   475.42         37.6695
   475.56         37.4993
   475.70         37.3272
   475.84         37.1697
   475.98         37.0401
   476.12         36.9472
   476.26         36.8923
   476.40         36.8698
   476.54         36.8683
   476.68         36.8731
   476.82         36.8719
   476.96         36.8579
   477.10         36.8306
   477.24         36.7932
   477.38         36.7494
   477.52         36.7000
   477.66         36.6438
   477.80         36.5836
   477.94         36.5264
   478.08         36.4786
   478.22         36.4468
   478.36         36.4394
   478.50         36.4607
   478.64         36.5081
   478.78         36.5732
   478.92         36.6436
   479.06         36.7063
   479.20         36.7521
   479.34         36.7744
   479.48         36.7692
   479.62         36.7350
   479.76         36.6724
   479.90         36.5832
   480.04         36.4695
   480.18         36.3373
   480.32         36.1990
   480.46         36.0700
   480.60         35.9644
   480.74         35.8935
   480.88         35.8641
   481.02         35.8716
   481.16         35.8987
   481.30         35.9246
   481.44         35.9332
   481.58         35.9182
   481.72         35.8827
   481.86         35.8335
   482.00         35.7748
   482.14         35.7073
   482.28         35.6291
   482.42         35.5346
   482.56         35.4169
   482.70         35.2725
   482.84         35.1023
   482.98         34.9114
   483.12         34.7044
   483.26         34.4824
   483.40         34.2421
   483.54         33.9777
   483.68         33.6827
   483.82         33.3522
   483.96         32.9846
   484.10         32.5811
   484.24         32.1405
   484.38         31.6550
   484.52         31.1101
   484.66         30.4879
   484.80         29.7718
   484.94         28.9479
   485.08         28.0122
   485.22         26.9800
   485.36         25.8877
   485.50         24.7873
   485.64         23.7400
   485.78         22.8086
   485.92         22.0495
   486.06         21.5078
   486.20         21.2147
   486.34         21.1857
   486.48         21.4181
   486.62         21.8892
   486.76         22.5608
   486.90         23.3814
   487.04         24.2896
   487.18         25.2226
   487.32         26.1247
   487.46         26.9545
   487.60         27.6890
   487.74         28.3237
   487.88         28.8673
   488.02         29.3359
   488.16         29.7496
   488.30         30.1276
   488.44         30.4843
   488.58         30.8294
   488.72         31.1681
   488.86         31.5007
   489.00         31.8216
   489.14         32.1218
   489.28         32.3911
   489.42         32.6231
   489.56         32.8141
   489.70         32.9625
   489.84         33.0725
   489.98         33.1535
   490.12         33.2181
   490.26         33.2812
   490.40         33.3557
   490.54         33.4488
   490.68         33.5607
   490.82         33.6821
   490.96         33.7958
   491.10         33.8822
   491.24         33.9244
   491.38         33.9132
   491.52         33.8499
   491.66         33.7477
   491.80         33.6291
   491.94         33.5172
   492.08         33.4300
   492.22         33.3779
   492.36         33.3667
   492.50         33.3986
   492.64         33.4688
   492.78         33.5680
   492.92         33.6861
   493.06         33.8124
   493.20         33.9380
   493.34         34.0596
   493.48         34.1802
   493.62         34.3056
   493.76         34.4407
   493.90         34.5878
   494.04         34.7473
   494.18         34.9162
   494.32         35.0865
   494.46         35.2414
   494.60         35.3582
   494.74         35.4192
   494.88         35.4210
   495.02         35.3723
   495.16         35.2854
   495.30         35.1744
   495.44         35.0529
   495.58         34.9323
   495.72         34.8208
   495.86         34.7229
   496.00         34.6406
   496.14         34.5744
   496.28         34.5214
   496.42         34.4770
   496.56         34.4385
   496.70         34.4039
   496.84         34.3697
   496.98         34.3280
   497.12         34.2668
   497.26         34.1792
   497.40         34.0682
   497.54         33.9423
   497.68         33.8087
   497.82         33.6722
   497.96         33.5365
   498.10         33.4078
   498.24         33.2972
   498.38         33.2194
   498.52         33.1872
   498.66         33.2058
   498.80         33.2699
   498.94         33.3642
   499.08         33.4678
   499.22         33.5572
   499.36         33.6078
   499.50         33.6016
   499.64         33.5328
   499.78         33.4082
   499.92         33.2418
   500.06         33.0476
   500.20         32.8351
   500.34         32.6110
   500.48         32.3816
   500.62         32.1547
   500.76         31.9415
   500.90         31.7544
   501.04         31.6023
   501.18         31.4884
   501.32         31.4117
   501.46         31.3696
   501.60         31.3590
   501.74         31.3784
   501.88         31.4285
   502.02         31.5114
   502.16         31.6286
   502.30         31.7759
   502.44         31.9396
   502.58         32.1016
   502.72         32.2427
   502.86         32.3468
   503.00         32.4063
   503.14         32.4238
   503.28         32.4125
   503.42         32.3907
   503.56         32.3721
   503.70         32.3630
   503.84         32.3656
   503.98         32.3819
   504.12         32.4144
   504.26         32.4645
   504.40         32.5318
   504.54         32.6137
   504.68         32.7056
   504.82         32.8002
   504.96         32.8888
   505.10         32.9608
   505.24         33.0070
   505.38         33.0228
   505.52         33.0115
   505.66         32.9838
   505.80         32.9511
   505.94         32.9188
   506.08         32.8830
   506.22         32.8372
   506.36         32.7779
   506.50         32.7038
   506.64         32.6149
   506.78         32.5121
   506.92         32.3989
   507.06         32.2834
   507.20         32.1760
   507.34         32.0854
   507.48         32.0173
   507.62         31.9736
   507.76         31.9556
   507.90         31.9665
   508.04         32.0100
   508.18         32.0851
   508.32         32.1833
   508.46         32.2896
   508.60         32.3853
   508.74         32.4559
   508.88         32.4967
   509.02         32.5103
   509.16         32.5024
   509.30         32.4809
   509.44         32.4543
   509.58         32.4296
   509.72         32.4099
   509.86         32.3972
   510.00         32.3943
   510.14         32.4049
   510.28         32.4313
   510.42         32.4749
   510.56         32.5335
   510.70         32.6007
   510.84         32.6655
   510.98         32.7153
   511.12         32.7396
   511.26         32.7328
   511.40         32.6951
   511.54         32.6298
   511.68         32.5387
   511.82         32.4222
   511.96         32.2799
   512.10         32.1154
   512.24         31.9368
   512.38         31.7550
   512.52         31.5811
   512.66         31.4218
   512.80         31.2807
   512.94         31.1597
   513.08         31.0593
   513.22         30.9787
   513.36         30.9168
   513.50         30.8736
   513.64         30.8506
   513.78         30.8505
   513.92         30.8765
   514.06         30.9303
   514.20         31.0093
   514.34         31.1070
   514.48         31.2148
   514.62         31.3240
   514.76         31.4272
   514.90         31.5179
   515.04         31.5880
   515.18         31.6265
   515.32         31.6224
   515.46         31.5656
   515.60         31.4489
   515.74         31.2698
   515.88         31.0335
   516.02         30.7534
   516.16         30.4499
   516.30         30.1480
   516.44         29.8734
   516.58         29.6499
   516.72         29.4973
   516.86         29.4259
   517.00         29.4350
   517.14         29.5112
   517.28         29.6337
   517.42         29.7805
   517.56         29.9291
   517.70         30.0576
   517.84         30.1480
   517.98         30.1916
   518.12         30.1893
   518.26         30.1511
   518.40         30.0921
   518.54         30.0286
   518.68         29.9768
   518.82         29.9497
   518.96         29.9542
   519.10         29.9909
   519.24         30.0533
   519.38         30.1286
   519.52         30.2024
   519.66         30.2641
   519.80         30.3108
   519.94         30.3489
   520.08         30.3869
   520.22         30.4275
   520.36         30.4702
   520.50         30.5145
   520.64         30.5632
   520.78         30.6189
   520.92         30.6804
   521.06         30.7432
   521.20         30.8001
   521.34         30.8399
   521.48         30.8493
   521.62         30.8193
   521.76         30.7474
   521.90         30.6364
   522.04         30.4947
   522.18         30.3339
   522.32         30.1672
   522.46         30.0082
   522.60         29.8706
   522.74         29.7652
   522.88         29.6994
   523.02         29.6782
   523.16         29.7056
   523.30         29.7824
   523.44         29.9030
   523.58         30.0555
   523.72         30.2247
   523.86         30.3945
   524.00         30.5505
   524.14         30.6849
   524.28         30.7950
   524.42         30.8785
   524.56         30.9340
   524.70         30.9624
   524.84         30.9660
   524.98         30.9446
   525.12         30.8955
   525.26         30.8135
   525.40         30.6941
   525.54         30.5353
   525.68         30.3391
   525.82         30.1128
   525.96         29.8665
   526.10         29.6124
   526.24         29.3637
   526.38         29.1338
   526.52         28.9355
   526.66         28.7812
   526.80         28.6817
   526.94         28.6422
   527.08         28.6608
   527.22         28.7293
   527.36         28.8350
   527.50         28.9642
   527.64         29.1051
   527.78         29.2506
   527.92         29.3983
   528.06         29.5477
   528.20         29.6978
   528.34         29.8449
   528.48         29.9824
   528.62         30.1021
   528.76         30.1964
   528.90         30.2599
   529.04         30.2908
   529.18         30.2915
   529.32         30.2690
   529.46         30.2324
   529.60         30.1907
   529.74         30.1530
   529.88         30.1287
   530.02         30.1254
   530.16         30.1455
   530.30         30.1829
   530.44         30.2251
   530.58         30.2584
   530.72         30.2725
   530.86         30.2623
   531.00         30.2260
   531.14         30.1635
   531.28         30.0769
   531.42         29.9702
   531.56         29.8472
   531.70         29.7106
   531.84         29.5641
   531.98         29.4150
   532.12         29.2722
   532.26         29.1447
   532.40         29.0392
   532.54         28.9586
   532.68         28.9031
   532.82         28.8707
   532.96         28.8598
   533.10         28.8715
   533.24         28.9100
   533.38         28.9759
   533.52         29.0631
   533.66         29.1594
   533.80         29.2520
   533.94         29.3325
   534.08         29.3987
   534.22         29.4525
   534.36         29.4995
   534.50         29.5480
   534.64         29.6054
   534.78         29.6736
   534.92         29.7485
   535.06         29.8211
   535.20         29.8798
   535.34         29.9147
   535.48         29.9199
   535.62         29.8923
   535.76         29.8313
   535.90         29.7367
   536.04         29.6109
   536.18         29.4632
   536.32         29.3105
   536.46         29.1739
   536.60         29.0727
   536.74         29.0196
   536.88         29.0185
   537.02         29.0655
   537.16         29.1493
   537.30         29.2535
   537.44         29.3601
   537.58         29.4536
   537.72         29.5233
   537.86         29.5632
   538.00         29.5730
   538.14         29.5554
   538.28         29.5151
   538.42         29.4594
   538.56         29.3965
   538.70         29.3339
   538.84         29.2773
   538.98         29.2294
   539.12         29.1875
   539.26         29.1437
   539.40         29.0893
   539.54         29.0181
   539.68         28.9298
   539.82         28.8286
   539.96         28.7209
   540.10         28.6137
   540.24         28.5139
   540.38         28.4261
   540.52         28.3531
   540.66         28.2975
   540.80         28.2623
   540.94         28.2500
   541.08         28.2601
   541.22         28.2877
   541.36         28.3238
   541.50         28.3593
   541.64         28.3865
   541.78         28.3997
   541.92         28.3966
   542.06         28.3789
   542.20         28.3513
   542.34         28.3199
   542.48         28.2923
   542.62         28.2771
   542.76         28.2818
   542.90         28.3124
   543.04         28.3711
   543.18         28.4558
   543.32         28.5585
   543.46         28.6657
   543.60         28.7628
   543.74         28.8381
   543.88         28.8857
   544.02         28.9060
   544.16         28.9028
   544.30         28.8797
   544.44         28.8387
   544.58         28.7820
   544.72         28.7151
   544.86         28.6469
   545.00         28.5866
   545.14         28.5385
   545.28         28.5009
   545.42         28.4694
   545.56         28.4405
   545.70         28.4133
   545.84         28.3878
   545.98         28.3643
   546.12         28.3444
   546.26         28.3315
   546.40         28.3267
   546.54         28.3261
   546.68         28.3226
   546.82         28.3104
   546.96         28.2886
   547.10         28.2626
   547.24         28.2419
   547.38         28.2336
   547.52         28.2383
   547.66         28.2521
   547.80         28.2711
   547.94         28.2945
   548.08         28.3220
   548.22         28.3512
   548.36         28.3778
   548.50         28.3961
   548.64         28.4005
   548.78         28.3873
   548.92         28.3551
   549.06         28.3058
   549.20         28.2462
   549.34         28.1874
   549.48         28.1391
   549.62         28.1072
   549.76         28.0925
   549.90         28.0922
   550.04         28.1012
   550.18         28.1163
   550.32         28.1363
   550.46         28.1593
   550.60         28.1814
   550.74         28.1982
   550.88         28.2081
   551.02         28.2130
   551.16         28.2161
   551.30         28.2194
   551.44         28.2218
   551.58         28.2174
   551.72         28.1992
   551.86         28.1625
   552.00         28.1048
   552.14         28.0254
   552.28         27.9264
   552.42         27.8140
   552.56         27.6987
   552.70         27.5914
   552.84         27.5012
   552.98         27.4339
   553.12         27.3929
   553.26         27.3800
   553.40         27.3946
   553.54         27.4346
   553.68         27.4940
   553.82         27.5632
   553.96         27.6310
   554.10         27.6887
   554.24         27.7311
   554.38         27.7589
   554.52         27.7770
   554.66         27.7900
   554.80         27.8000
   554.94         27.8081
   555.08         27.8151
   555.22         27.8206
   555.36         27.8219
   555.50         27.8165
   555.64         27.8037
   555.78         27.7835
   555.92         27.7558
   556.06         27.7194
   556.20         27.6729
   556.34         27.6159
   556.48         27.5498
   556.62         27.4782
   556.76         27.4055
   556.90         27.3352
   557.04         27.2719
   557.18         27.2212
   557.32         27.1852
   557.46         27.1618
   557.60         27.1442
   557.74         27.1242
   557.88         27.0947
   558.02         27.0509
   558.16         26.9909
   558.30         26.9152
   558.44         26.8255
   558.58         26.7244
   558.72         26.6168
   558.86         26.5097
   559.00         26.4110
   559.14         26.3280
   559.28         26.2680
   559.42         26.2369
   559.56         26.2374
   559.70         26.2691
   559.84         26.3284
   559.98         26.4089
   560.12         26.5018
   560.26         26.5972
   560.40         26.6868
   560.54         26.7647
   560.68         26.8268
   560.82         26.8710
   560.96         26.8973
   561.10         26.9065
   561.24         26.8997
   561.38         26.8800
   561.52         26.8529
   561.66         26.8252
   561.80         26.8046
   561.94         26.7974
   562.08         26.8057
   562.22         26.8291
   562.36         26.8655
   562.50         26.9112
   562.64         26.9599
   562.78         27.0036
   562.92         27.0357
   563.06         27.0546
   563.20         27.0624
   563.34         27.0619
   563.48         27.0562
   563.62         27.0469
   563.76         27.0347
   563.90         27.0201
   564.04         27.0040
   564.18         26.9868
   564.32         26.9650
   564.46         26.9337
   564.60         26.8893
   564.74         26.8292
   564.88         26.7524
   565.02         26.6589
   565.16         26.5507
   565.30         26.4328
   565.44         26.3113
   565.58         26.1928
   565.72         26.0839
   565.86         25.9905
   566.00         25.9177
   566.14         25.8700
   566.28         25.8498
   566.42         25.8576
   566.56         25.8915
   566.70         25.9469
   566.84         26.0160
   566.98         26.0892
   567.12         26.1605
   567.26         26.2264
   567.40         26.2824
   567.54         26.3249
   567.68         26.3525
   567.82         26.3661
   567.96         26.3666
   568.10         26.3530
   568.24         26.3249
   568.38         26.2863
   568.52         26.2433
   568.66         26.2002
   568.80         26.1589
   568.94         26.1188
   569.08         26.0781
   569.22         26.0340
   569.36         25.9840
   569.50         25.9265
   569.64         25.8626
   569.78         25.7954
   569.92         25.7280
   570.06         25.6636
   570.20         25.6065
   570.34         25.5610
   570.48         25.5304
   570.62         25.5160
   570.76         25.5180
   570.90         25.5378
   571.04         25.5766
   571.18         25.6328
   571.32         25.7008
   571.46         25.7743
   571.60         25.8464
   571.74         25.9094
   571.88         25.9565
   572.02         25.9840
   572.16         25.9912
   572.30         25.9810
   572.44         25.9564
   572.58         25.9202
   572.72         25.8765
   572.86         25.8289
   573.00         25.7822
   573.14         25.7404
   573.28         25.7046
   573.42         25.6741
   573.56         25.6485
   573.70         25.6276
   573.84         25.6095
   573.98         25.5897
   574.12         25.5636
   574.26         25.5285
   574.40         25.4843
   574.54         25.4350
   574.68         25.3863
   574.82         25.3441
   574.96         25.3119
   575.10         25.2905
   575.24         25.2810
   575.38         25.2839
   575.52         25.2989
   575.66         25.3240
   575.80         25.3551
   575.94         25.3883
   576.08         25.4215
   576.22         25.4534
   576.36         25.4839
   576.50         25.5122
   576.64         25.5382
   576.78         25.5620
   576.92         25.5830
   577.06         25.5990
   577.20         25.6060
   577.34         25.6004
   577.48         25.5801
   577.62         25.5452
   577.76         25.4986
   577.90         25.4441
   578.04         25.3859
   578.18         25.3289
   578.32         25.2768
   578.46         25.2315
   578.60         25.1944
   578.74         25.1660
   578.88         25.1454
   579.02         25.1307
   579.16         25.1193
   579.30         25.1079
   579.44         25.0944
   579.58         25.0795
   579.72         25.0670
   579.86         25.0610
   580.00         25.0654
   580.14         25.0831
   580.28         25.1132
   580.42         25.1528
   580.56         25.1985
   580.70         25.2482
   580.84         25.2994
   580.98         25.3465
   581.12         25.3839
   581.26         25.4086
   581.40         25.4189
   581.54         25.4137
   581.68         25.3935
   581.82         25.3609
   581.96         25.3188
   582.10         25.2704
   582.24         25.2189
   582.38         25.1659
   582.52         25.1129
   582.66         25.0626
   582.80         25.0184
   582.94         24.9829
   583.08         24.9581
   583.22         24.9442
   583.36         24.9380
   583.50         24.9348
   583.64         24.9324
   583.78         24.9322
   583.92         24.9363
   584.06         24.9438
   584.20         24.9518
   584.34         24.9581
   584.48         24.9604
   584.62         24.9572
   584.76         24.9495
   584.90         24.9403
   585.04         24.9329
   585.18         24.9305
   585.32         24.9357
   585.46         24.9498
   585.60         24.9736
   585.74         25.0081
   585.88         25.0538
   586.02         25.1099
   586.16         25.1739
   586.30         25.2407
   586.44         25.3007
   586.58         25.3443
   586.72         25.3661
   586.86         25.3658
   587.00         25.3464
   587.14         25.3124
   587.28         25.2679
   587.42         25.2155
   587.56         25.1543
   587.70         25.0792
   587.84         24.9848
   587.98         24.8683
   588.12         24.7293
   588.26         24.5687
   588.40         24.3855
   588.54         24.1782
   588.68         23.9484
   588.82         23.7040
   588.96         23.4583
   589.10         23.2274
   589.24         23.0281
   589.38         22.8763
   589.52         22.7841
   589.66         22.7575
   589.80         22.7959
   589.94         22.8922
   590.08         23.0349
   590.22         23.2095
   590.36         23.4007
   590.50         23.5954
   590.64         23.7818
   590.78         23.9488
   590.92         24.0883
   591.06         24.1958
   591.20         24.2736
   591.34         24.3285
   591.48         24.3682
   591.62         24.3981
   591.76         24.4196
   591.90         24.4332
   592.04         24.4402
   592.18         24.4409
   592.32         24.4332
   592.46         24.4147
   592.60         24.3842
   592.74         24.3425
   592.88         24.2922
   593.02         24.2365
   593.16         24.1795
   593.30         24.1252
   593.44         24.0773
   593.58         24.0380
   593.72         24.0076
   593.86         23.9856
   594.00         23.9706
   594.14         23.9603
   594.28         23.9518
   594.42         23.9430
   594.56         23.9335
   594.70         23.9236
   594.84         23.9133
   594.98         23.9020
   595.12         23.8896
   595.26         23.8766
   595.40         23.8633
   595.54         23.8500
   595.68         23.8367
   595.82         23.8233
   595.96         23.8100
   596.10         23.7967
   596.24         23.7833
   596.38         23.7700
   596.52         23.7566
   596.66         23.7432
   596.80         23.7298
   596.94         23.7163
   597.08         23.7027
   597.22         23.6891
   597.36         23.6755
   597.50         23.6618
   597.64         23.6481
   597.78         23.6344
   597.92         23.6206
   598.06         23.6068
   598.20         23.5929
   598.34         23.5789
   598.48         23.5647
   598.62         23.5499
   598.76         23.5344
   598.90         23.5177
   599.04         23.4993
   599.18         23.4785
   599.32         23.4551
   599.46         23.4289
   599.60         23.4006
   599.74         23.3719
   599.88         23.3454
   600.02         23.3227
   600.16         23.3044
   600.30         23.2901
   600.44         23.2789
   600.58         23.2683
   600.72         23.2533
   600.86         23.2289
   601.00         23.1932
   601.14         23.1475
   601.28         23.0953
   601.42         23.0410
   601.56         22.9898
   601.70         22.9465
   601.84         22.9146
   601.98         22.8950
   602.12         22.8880
   602.26         22.8946
   602.40         22.9142
   602.54         22.9437
   602.68         22.9779
   602.82         23.0102
   602.96         23.0330
   603.10         23.0395
   603.24         23.0260
   603.38         22.9922
   603.52         22.9416
   603.66         22.8804
   603.80         22.8139
   603.94         22.7460
   604.08         22.6807
   604.22         22.6213
   604.36         22.5696
   604.50         22.5280
   604.64         22.4998
   604.78         22.4880
   604.92         22.4927
   605.06         22.5110
   605.20         22.5384
   605.34         22.5693
   605.48         22.5975
   605.62         22.6187
   605.76         22.6326
   605.90         22.6403
   606.04         22.6419
   606.18         22.6381
   606.32         22.6308
   606.46         22.6213
   606.60         22.6093
   606.74         22.5941
   606.88         22.5741
   607.02         22.5497
   607.16         22.5216
   607.30         22.4897
   607.44         22.4531
   607.58         22.4126
   607.72         22.3714
   607.86         22.3324
   608.00         22.2965
   608.14         22.2629
   608.28         22.2289
   608.42         22.1908
   608.56         22.1469
   608.70         22.0973
   608.84         22.0420
   608.98         21.9805
   609.12         21.9128
   609.26         21.8411
   609.40         21.7722
   609.54         21.7151
   609.68         21.6771
   609.82         21.6625
   609.96         21.6725
   610.10         21.7059
   610.24         21.7582
   610.38         21.8218
   610.52         21.8878
   610.66         21.9475
   610.80         21.9931
   610.94         22.0211
   611.08         22.0327
   611.22         22.0313
   611.36         22.0195
   611.50         21.9993
   611.64         21.9741
   611.78         21.9488
   611.92         21.9279
   612.06         21.9146
   612.20         21.9077
   612.34         21.9042
   612.48         21.8992
   612.62         21.8860
   612.76         21.8586
   612.90         21.8138
   613.04         21.7519
   613.18         21.6760
   613.32         21.5908
   613.46         21.5026
   613.60         21.4181
   613.74         21.3439
   613.88         21.2861
   614.02         21.2493
   614.16         21.2362
   614.30         21.2462
   614.44         21.2770
   614.58         21.3234
   614.72         21.3784
   614.86         21.4347
   615.00         21.4845
   615.14         21.5195
   615.28         21.5350
   615.42         21.5331
   615.56         21.5202
   615.70         21.5021
   615.84         21.4825
   615.98         21.4642
   616.12         21.4487
   616.26         21.4363
   616.40         21.4279
   616.54         21.4235
   616.68         21.4217
   616.82         21.4213
   616.96         21.4229
   617.10         21.4294
   617.24         21.4438
   617.38         21.4668
   617.52         21.4974
   617.66         21.5331
   617.80         21.5712
   617.94         21.6091
   618.08         21.6439
   618.22         21.6707
   618.36         21.6840
   618.50         21.6817
   618.64         21.6657
   618.78         21.6403
   618.92         21.6110
   619.06         21.5839
   619.20         21.5641
   619.34         21.5552
   619.48         21.5600
   619.62         21.5792
   619.76         21.6099
   619.90         21.6458
   620.04         21.6793
   620.18         21.7030
   620.32         21.7118
   620.46         21.7034
   620.60         21.6793
   620.74         21.6430
   620.88         21.5979
   621.02         21.5466
   621.16         21.4921
   621.30         21.4378
   621.44         21.3873
   621.58         21.3433
   621.72         21.3075
   621.86         21.2785
   622.00         21.2532
   622.14         21.2282
   622.28         21.2004
   622.42         21.1669
   622.56         21.1237
   622.70         21.0665
   622.84         20.9939
   622.98         20.9103
   623.12         20.8231
   623.26         20.7394
   623.40         20.6630
   623.54         20.5950
   623.68         20.5381
   623.82         20.4960
   623.96         20.4716
   624.10         20.4647
   624.24         20.4725
   624.38         20.4918
   624.52         20.5187
   624.66         20.5503
   624.80         20.5848
   624.94         20.6202
   625.08         20.6546
   625.22         20.6863
   625.36         20.7159
   625.50         20.7455
   625.64         20.7761
   625.78         20.8051
   625.92         20.8271
   626.06         20.8380
   626.20         20.8380
   626.34         20.8297
   626.48         20.8146
   626.62         20.7917
   626.76         20.7584
   626.90         20.7141
   627.04         20.6607
   627.18         20.6009
   627.32         20.5392
   627.46         20.4823
   627.60         20.4388
   627.74         20.4160
   627.88         20.4177
   628.02         20.4436
   628.16         20.4899
   628.30         20.5510
   628.44         20.6197
   628.58         20.6872
   628.72         20.7455
   628.86         20.7874
   629.00         20.8045
   629.14         20.7912
   629.28         20.7469
   629.42         20.6764
   629.56         20.5891
   629.70         20.4953
   629.84         20.4040
   629.98         20.3237
   630.12         20.2618
   630.26         20.2219
   630.40         20.2028
   630.54         20.2007
   630.68         20.2107
   630.82         20.2283
   630.96         20.2491
   631.10         20.2687
   631.24         20.2839
   631.38         20.2935
   631.52         20.2971
   631.66         20.2949
   631.80         20.2886
   631.94         20.2811
   632.08         20.2744
   632.22         20.2689
   632.36         20.2640
   632.50         20.2596
   632.64         20.2551
   632.78         20.2498
   632.92         20.2432
   633.06         20.2353
   633.20         20.2252
   633.34         20.2111
   633.48         20.1918
   633.62         20.1667
   633.76         20.1364
   633.90         20.1038
   634.04         20.0725
   634.18         20.0459
   634.32         20.0284
   634.46         20.0237
   634.60         20.0318
   634.74         20.0510
   634.88         20.0790
   635.02         20.1138
   635.16         20.1524
   635.30         20.1912
   635.44         20.2271
   635.58         20.2561
   635.72         20.2735
   635.86         20.2742
   636.00         20.2554
   636.14         20.2182
   636.28         20.1674
   636.42         20.1094
   636.56         20.0515
   636.70         19.9995
   636.84         19.9574
   636.98         19.9271
   637.12         19.9085
   637.26         19.8999
   637.40         19.9012
   637.54         19.9126
   637.68         19.9323
   637.82         19.9574
   637.96         19.9842
   638.10         20.0092
   638.24         20.0289
   638.38         20.0415
   638.52         20.0463
   638.66         20.0438
   638.80         20.0350
   638.94         20.0216
   639.08         20.0061
   639.22         19.9912
   639.36         19.9773
   639.50         19.9628
   639.64         19.9462
   639.78         19.9273
   639.92         19.9070
   640.06         19.8861
   640.20         19.8642
   640.34         19.8404
   640.48         19.8148
   640.62         19.7877
   640.76         19.7604
   640.90         19.7341
   641.04         19.7095
   641.18         19.6866
   641.32         19.6662
   641.46         19.6498
   641.60         19.6400
   641.74         19.6381
   641.88         19.6423
   642.02         19.6492
   642.16         19.6565
   642.30         19.6642
   642.44         19.6732
   642.58         19.6831
   642.72         19.6908
   642.86         19.6931
   643.00         19.6897
   643.14         19.6811
   643.28         19.6697
   643.42         19.6586
   643.56         19.6509
   643.70         19.6494
   643.84         19.6559
   643.98         19.6705
   644.12         19.6923
   644.26         19.7189
   644.40         19.7461
   644.54         19.7683
   644.68         19.7818
   644.82         19.7850
   644.96         19.7773
   645.10         19.7566
   645.24         19.7201
   645.38         19.6687
   645.52         19.6080
   645.66         19.5441
   645.80         19.4811
   645.94         19.4216
   646.08         19.3671
   646.22         19.3177
   646.36         19.2729
   646.50         19.2327
   646.64         19.1983
   646.78         19.1709
   646.92         19.1514
   647.06         19.1402
   647.20         19.1383
   647.34         19.1459
   647.48         19.1615
   647.62         19.1823
   647.76         19.2052
   647.90         19.2279
   648.04         19.2492
   648.18         19.2664
   648.32         19.2754
   648.46         19.2727
   648.60         19.2568
   648.74         19.2294
   648.88         19.1957
   649.02         19.1636
   649.16         19.1421
   649.30         19.1375
   649.44         19.1518
   649.58         19.1840
   649.72         19.2320
   649.86         19.2928
   650.00         19.3628
   650.14         19.4374
   650.28         19.5103
   650.42         19.5740
   650.56         19.6225
   650.70         19.6528
   650.84         19.6647
   650.98         19.6597
   651.12         19.6420
   651.26         19.6184
   651.40         19.5962
   651.54         19.5805
   651.68         19.5735
   651.82         19.5747
   651.96         19.5812
   652.10         19.5901
   652.24         19.5990
   652.38         19.6060
   652.52         19.6086
   652.66         19.6025
   652.80         19.5835
   652.94         19.5494
   653.08         19.5004
   653.22         19.4376
   653.36         19.3603
   653.50         19.2674
   653.64         19.1590
   653.78         19.0360
   653.92         18.9001
   654.06         18.7514
   654.20         18.5887
   654.34         18.4102
   654.48         18.2128
   654.62         17.9913
   654.76         17.7387
   654.90         17.4467
   655.04         17.1060
   655.18         16.7098
   655.32         16.2601
   655.46         15.7715
   655.60         15.2694
   655.74         14.7847
   655.88         14.3494
   656.02         13.9940
   656.16         13.7462
   656.30         13.6274
   656.44         13.6486
   656.58         13.8080
   656.72         14.0901
   656.86         14.4701
   657.00         14.9173
   657.14         15.3969
   657.28         15.8739
   657.42         16.3174
   657.56         16.7049
   657.70         17.0259
   657.84         17.2831
   657.98         17.4872
   658.12         17.6501
   658.26         17.7802
   658.40         17.8838
   658.54         17.9669
   658.68         18.0351
   658.82         18.0936
   658.96         18.1462
   659.10         18.1946
   659.24         18.2391
   659.38         18.2799
   659.52         18.3176
   659.66         18.3524
   659.80         18.3839
   659.94         18.4126
   660.08         18.4403
   660.22         18.4681
   660.36         18.4971
   660.50         18.5265
   660.64         18.5549
   660.78         18.5810
   660.92         18.6045
   661.06         18.6264
   661.20         18.6474
   661.34         18.6677
   661.48         18.6883
   661.62         18.7097
   661.76         18.7313
   661.90         18.7519
   662.04         18.7689
   662.18         18.7807
   662.32         18.7865
   662.46         18.7861
   662.60         18.7800
   662.74         18.7685
   662.88         18.7521
   663.02         18.7318
   663.16         18.7087
   663.30         18.6841
   663.44         18.6591
   663.58         18.6348
   663.72         18.6118
   663.86         18.5908
   664.00         18.5733
   664.14         18.5599
   664.28         18.5500
   664.42         18.5432
   664.56         18.5389
   664.70         18.5357
   664.84         18.5330
   664.98         18.5289
   665.12         18.5213
   665.26         18.5089
   665.40         18.4901
   665.54         18.4642
   665.68         18.4312
   665.82         18.3928
   665.96         18.3513
   666.10         18.3095
   666.24         18.2690
   666.38         18.2304
   666.52         18.1940
   666.66         18.1595
   666.80         18.1266
   666.94         18.0950
   667.08         18.0655
   667.22         18.0394
   667.36         18.0172
   667.50         17.9987
   667.64         17.9836
   667.78         17.9716
   667.92         17.9626
   668.06         17.9554
   668.20         17.9496
   668.34         17.9446
   668.48         17.9398
   668.62         17.9348
   668.76         17.9293
   668.90         17.9242
   669.04         17.9215
   669.18         17.9254
   669.32         17.9398
   669.46         17.9668
   669.60         18.0059
   669.74         18.0548
   669.88         18.1095
   670.02         18.1648
   670.16         18.2154
   670.30         18.2569
   670.44         18.2864
   670.58         18.3016
   670.72         18.3018
   670.86         18.2874
   671.00         18.2613
   671.14         18.2275
   671.28         18.1907
   671.42         18.1547
   671.56         18.1214
   671.70         18.0917
   671.84         18.0656
   671.98         18.0422
   672.12         18.0199
   672.26         17.9981
   672.40         17.9774
   672.54         17.9583
   672.68         17.9408
   672.82         17.9253
   672.96         17.9119
   673.10         17.8988
   673.24         17.8838
   673.38         17.8666
   673.52         17.8490
   673.66         17.8327
   673.80         17.8185
   673.94         17.8055
   674.08         17.7926
   674.22         17.7792
   674.36         17.7654
   674.50         17.7524
   674.64         17.7406
   674.78         17.7297
   674.92         17.7196
   675.06         17.7106
   675.20         17.7021
   675.34         17.6940
   675.48         17.6863
   675.62         17.6784
   675.76         17.6705
   675.90         17.6648
   676.04         17.6630
   676.18         17.6649
   676.32         17.6688
   676.46         17.6734
   676.60         17.6774
   676.74         17.6796
   676.88         17.6787
   677.02         17.6740
   677.16         17.6652
   677.30         17.6530
   677.44         17.6397
   677.58         17.6295
   677.72         17.6257
   677.86         17.6297
   678.00         17.6410
   678.14         17.6575
   678.28         17.6763
   678.42         17.6944
   678.56         17.7099
   678.70         17.7221
   678.84         17.7301
   678.98         17.7328
   679.12         17.7289
   679.26         17.7170
   679.40         17.6964
   679.54         17.6675
   679.68         17.6318
   679.82         17.5926
   679.96         17.5535
   680.10         17.5176
   680.24         17.4869
   680.38         17.4625
   680.52         17.4449
   680.66         17.4332
   680.80         17.4254
   680.94         17.4204
   681.08         17.4177
   681.22         17.4160
   681.36         17.4128
   681.50         17.4031
   681.64         17.3839
   681.78         17.3551
   681.92         17.3182
   682.06         17.2757
   682.20         17.2313
   682.34         17.1885
   682.48         17.1498
   682.62         17.1167
   682.76         17.0904
   682.90         17.0707
   683.04         17.0556
   683.18         17.0421
   683.32         17.0287
   683.46         17.0164
   683.60         17.0068
   683.74         16.9999
   683.88         16.9952
   684.02         16.9920
   684.16         16.9890
   684.30         16.9852
   684.44         16.9799
   684.58         16.9729
   684.72         16.9650
   684.86         16.9553
   685.00         16.9421
   685.14         16.9251
   685.28         16.9037
   685.42         16.8747
   685.56         16.8285
   685.70         16.7502
   685.84         16.6244
   685.98         16.4396
   686.12         16.1909
   686.26         15.8802
   686.40         15.5181
   686.54         15.1232
   686.68         14.7198
   686.82         14.3360
   686.96         14.0016
   687.10         13.7438
   687.24         13.5820
   687.38         13.5231
   687.52         13.5621
   687.66         13.6848
   687.80         13.8689
   687.94         14.0859
   688.08         14.3056
   688.22         14.5015
   688.36         14.6566
   688.50         14.7663
   688.64         14.8356
   688.78         14.8742
   688.92         14.8923
   689.06         14.9000
   689.20         14.9056
   689.34         14.9150
   689.48         14.9315
   689.62         14.9560
   689.76         14.9870
   689.90         15.0224
   690.04         15.0602
   690.18         15.1000
   690.32         15.1424
   690.46         15.1890
   690.60         15.2412
   690.74         15.2993
   690.88         15.3629
   691.02         15.4317
   691.16         15.5052
   691.30         15.5821
   691.44         15.6609
   691.58         15.7397
   691.72         15.8163
   691.86         15.8882
   692.00         15.9542
   692.14         16.0142
   692.28         16.0679
   692.42         16.1140
   692.56         16.1514
   692.70         16.1795
   692.84         16.1980
   692.98         16.2079
   693.12         16.2117
   693.26         16.2132
   693.40         16.2165
   693.54         16.2261
   693.68         16.2459
   693.82         16.2773
   693.96         16.3184
   694.10         16.3653
   694.24         16.4125
   694.38         16.4548
   694.52         16.4900
   694.66         16.5181
   694.80         16.5402
   694.94         16.5564
   695.08         16.5662
   695.22         16.5699
   695.36         16.5688
   695.50         16.5642
   695.64         16.5577
   695.78         16.5514
   695.92         16.5469
   696.06         16.5447
   696.20         16.5448
   696.34         16.5469
   696.48         16.5511
   696.62         16.5575
   696.76         16.5667
   696.90         16.5790
   697.04         16.5948
   697.18         16.6137
   697.32         16.6336
   697.46         16.6503
   697.60         16.6587
   697.74         16.6550
   697.88         16.6386
   698.02         16.6101
   698.16         16.5704
   698.30         16.5207
   698.44         16.4644
   698.58         16.4050
   698.72         16.3454
   698.86         16.2876
   699.00         16.2333
   699.14         16.1834
   699.28         16.1364
   699.42         16.0906
   699.56         16.0466
   699.70         16.0064
   699.84         15.9716
   699.98         15.9431
   700.12         15.9212
   700.26         15.9056
   700.40         15.8949
   700.54         15.8885
   700.68         15.8863
   700.82         15.8886
   700.96         15.8950
   701.10         15.9038
   701.24         15.9111
   701.38         15.9119
   701.52         15.9023
   701.66         15.8814
   701.80         15.8508
   701.94         15.8133
   702.08         15.7740
   702.22         15.7380
   702.36         15.7080
   702.50         15.6847
   702.64         15.6683
   702.78         15.6595
   702.92         15.6594
   703.06         15.6704
   703.20         15.6944
   703.34         15.7299
   703.48         15.7719
   703.62         15.8147
   703.76         15.8536
   703.90         15.8860
   704.04         15.9109
   704.18         15.9286
   704.32         15.9407
   704.46         15.9491
   704.60         15.9556
   704.74         15.9619
   704.88         15.9690
   705.02         15.9785
   705.16         15.9917
   705.30         16.0085
   705.44         16.0277
   705.58         16.0476
   705.72         16.0659
   705.86         16.0801
   706.00         16.0887
   706.14         16.0926
   706.28         16.0938
   706.42         16.0945
   706.56         16.0967
   706.70         16.1010
   706.84         16.1076
   706.98         16.1164
   707.12         16.1252
   707.26         16.1307
   707.40         16.1303
   707.54         16.1238
   707.68         16.1118
   707.82         16.0956
   707.96         16.0787
   708.10         16.0659
   708.24         16.0614
   708.38         16.0681
   708.52         16.0867
   708.66         16.1147
   708.80         16.1471
   708.94         16.1781
   709.08         16.2020
   709.22         16.2133
   709.36         16.2077
   709.50         16.1833
   709.64         16.1400
   709.78         16.0804
   709.92         16.0100
   710.06         15.9367
   710.20         15.8677
   710.34         15.8079
   710.48         15.7596
   710.62         15.7222
   710.76         15.6928
   710.90         15.6674
   711.04         15.6431
   711.18         15.6180
   711.32         15.5917
   711.46         15.5658
   711.60         15.5424
   711.74         15.5251
   711.88         15.5179
   712.02         15.5241
   712.16         15.5446
   712.30         15.5785
   712.44         15.6244
   712.58         15.6800
   712.72         15.7417
   712.86         15.8048
   713.00         15.8638
   713.14         15.9132
   713.28         15.9490
   713.42         15.9679
   713.56         15.9678
   713.70         15.9485
   713.84         15.9133
   713.98         15.8667
   714.12         15.8126
   714.26         15.7551
   714.40         15.6999
   714.54         15.6529
   714.68         15.6186
   714.82         15.5987
   714.96         15.5936
   715.10         15.6011
   715.24         15.6155
   715.38         15.6293
   715.52         15.6357
   715.66         15.6310
   715.80         15.6136
   715.94         15.5836
   716.08         15.5413
   716.22         15.4883
   716.36         15.4290
   716.50         15.3686
   716.64         15.3098
   716.78         15.2549
   716.92         15.2057
   717.06         15.1633
   717.20         15.1265
   717.34         15.0892
   717.48         15.0441
   717.62         14.9874
   717.76         14.9209
   717.90         14.8486
   718.04         14.7749
   718.18         14.7042
   718.32         14.6395
   718.46         14.5823
   718.60         14.5330
   718.74         14.4915
   718.88         14.4581
   719.02         14.4340
   719.16         14.4201
   719.30         14.4153
   719.44         14.4161
   719.58         14.4185
   719.72         14.4198
   719.86         14.4187
   720.00         14.4169
   720.14         14.4203
   720.28         14.4364
   720.42         14.4706
   720.56         14.5240
   720.70         14.5951
   720.84         14.6819
   720.98         14.7815
   721.12         14.8884
   721.26         14.9956
   721.40         15.0970
   721.54         15.1873
   721.68         15.2618
   721.82         15.3162
   721.96         15.3474
   722.10         15.3544
   722.24         15.3387
   722.38         15.3039
   722.52         15.2554
   722.66         15.2001
   722.80         15.1428
   722.94         15.0846
   723.08         15.0260
   723.22         14.9670
   723.36         14.9079
   723.50         14.8499
   723.64         14.7955
   723.78         14.7466
   723.92         14.7038
   724.06         14.6656
   724.20         14.6272
   724.34         14.5844
   724.48         14.5368
   724.62         14.4863
   724.76         14.4344
   724.90         14.3828
   725.04         14.3353
   725.18         14.2959
   725.32         14.2662
   725.46         14.2458
   725.60         14.2361
   725.74         14.2414
   725.88         14.2648
   726.02         14.3055
   726.16         14.3593
   726.30         14.4195
   726.44         14.4773
   726.58         14.5247
   726.72         14.5573
   726.86         14.5757
   727.00         14.5835
   727.14         14.5836
   727.28         14.5753
   727.42         14.5561
   727.56         14.5247
   727.70         14.4806
   727.84         14.4238
   727.98         14.3553
   728.12         14.2786
   728.26         14.1983
   728.40         14.1189
   728.54         14.0440
   728.68         13.9785
   728.82         13.9290
   728.96         13.9021
   729.10         13.9014
   729.24         13.9266
   729.38         13.9756
   729.52         14.0433
   729.66         14.1208
   729.80         14.1965
   729.94         14.2611
   730.08         14.3103
   730.22         14.3431
   730.36         14.3592
   730.50         14.3583
   730.64         14.3426
   730.78         14.3167
   730.92         14.2870
   731.06         14.2589
   731.20         14.2354
   731.34         14.2171
   731.48         14.2027
   731.62         14.1897
   731.76         14.1755
   731.90         14.1584
   732.04         14.1386
   732.18         14.1171
   732.32         14.0942
   732.46         14.0705
   732.60         14.0482
   732.74         14.0293
   732.88         14.0158
   733.02         14.0093
   733.16         14.0112
   733.30         14.0224
   733.44         14.0408
   733.58         14.0622
   733.72         14.0807
   733.86         14.0903
   734.00         14.0883
   734.14         14.0759
   734.28         14.0552
   734.42         14.0273
   734.56         13.9921
   734.70         13.9513
   734.84         13.9084
   734.98         13.8679
   735.12         13.8334
   735.26         13.8077
   735.40         13.7922
   735.54         13.7864
   735.68         13.7860
   735.82         13.7861
   735.96         13.7834
   736.10         13.7763
   736.24         13.7652
   736.38         13.7515
   736.52         13.7381
   736.66         13.7286
   736.80         13.7250
   736.94         13.7277
   737.08         13.7362
   737.22         13.7499
   737.36         13.7684
   737.50         13.7894
   737.64         13.8092
   737.78         13.8244
   737.92         13.8346
   738.06         13.8405
   738.20         13.8424
   738.34         13.8397
   738.48         13.8320
   738.62         13.8183
   738.76         13.7980
   738.90         13.7731
   739.04         13.7479
   739.18         13.7284
   739.32         13.7196
   739.46         13.7256
   739.60         13.7481
   739.74         13.7844
   739.88         13.8288
   740.02         13.8752
   740.16         13.9186
   740.30         13.9555
   740.44         13.9844
   740.58         14.0044
   740.72         14.0152
   740.86         14.0179
   741.00         14.0155
   741.14         14.0124
   741.28         14.0137
   741.42         14.0224
   741.56         14.0393
   741.70         14.0637
   741.84         14.0917
   741.98         14.1181
   742.12         14.1387
   742.26         14.1508
   742.40         14.1538
   742.54         14.1504
   742.68         14.1447
   742.82         14.1407
   742.96         14.1407
   743.10         14.1447
   743.24         14.1504
   743.38         14.1538
   743.52         14.1508
   743.66         14.1387
   743.80         14.1181
   743.94         14.0917
   744.08         14.0637
   744.22         14.0393
