# File HD12993
# Wavelength [nm]    Normalized Amplitude
   349.70         214.8091
   349.84         215.3836
   349.98         216.0903
   350.12         216.9381
   350.26         217.8940
   350.40         218.9058
   350.54         219.9104
   350.68         220.8284
   350.82         221.5774
   350.96         222.0810
   351.10         222.2619
   351.24         222.0810
   351.38         221.5774
   351.52         220.8284
   351.66         219.9104
   351.80         218.9058
   351.94         217.8940
   352.08         216.9381
   352.22         216.0903
   352.36         215.3836
   352.50         214.8091
   352.64         214.3204
   352.78         213.8572
   352.92         213.3576
   353.06         212.7721
   353.20         212.0689
   353.34         211.2449
   353.48         210.3343
   353.62         209.3909
   353.76         208.4681
   353.90         207.6017
   354.04         206.7936
   354.18         206.0341
   354.32         205.3418
   354.46         204.7589
   354.60         204.3188
   354.74         204.0242
   354.88         203.8527
   355.02         203.7887
   355.16         203.8342
   355.30         203.9840
   355.44         204.2171
   355.58         204.5097
   355.72         204.8454
   355.86         205.2153
   356.00         205.5933
   356.14         205.9211
   356.28         206.1320
   356.42         206.1733
   356.56         206.0230
   356.70         205.7194
   356.84         205.3540
   356.98         205.0232
   357.12         204.7936
   357.26         204.6797
   357.40         204.6566
   357.54         204.6942
   357.68         204.7579
   357.82         204.7849
   357.96         204.6997
   358.10         204.4597
   358.24         204.0656
   358.38         203.5289
   358.52         202.8431
   358.66         201.9860
   358.80         200.9542
   358.94         199.7990
   359.08         198.6166
   359.22         197.5159
   359.36         196.5925
   359.50         195.9023
   359.64         195.4625
   359.78         195.2578
   359.92         195.2577
   360.06         195.4485
   360.20         195.8263
   360.34         196.3818
   360.48         197.0929
   360.62         197.9204
   360.76         198.7974
   360.90         199.6247
   361.04         200.2893
   361.18         200.7041
   361.32         200.8419
   361.46         200.7202
   361.60         200.3706
   361.74         199.8184
   361.88         199.0764
   362.02         198.1654
   362.16         197.1195
   362.30         195.9819
   362.44         194.8023
   362.58         193.6227
   362.72         192.4754
   362.86         191.4029
   363.00         190.4628
   363.14         189.7084
   363.28         189.1643
   363.42         188.8276
   363.56         188.6847
   363.70         188.7181
   363.84         188.9053
   363.98         189.2077
   364.12         189.5694
   364.26         189.9379
   364.40         190.2802
   364.54         190.5929
   364.68         190.8985
   364.82         191.2164
   364.96         191.5506
   365.10         191.8892
   365.24         192.2111
   365.38         192.5081
   365.52         192.7814
   365.66         193.0196
   365.80         193.1884
   365.94         193.2406
   366.08         193.1454
   366.22         192.9065
   366.36         192.5569
   366.50         192.1471
   366.64         191.7259
   366.78         191.3266
   366.92         190.9672
   367.06         190.6427
   367.20         190.3137
   367.34         189.9210
   367.48         189.4127
   367.62         188.7675
   367.76         188.0084
   367.90         187.1962
   368.04         186.4055
   368.18         185.6941
   368.32         185.0940
   368.46         184.6196
   368.60         184.2745
   368.74         184.0498
   368.88         183.9176
   369.02         183.8282
   369.16         183.7126
   369.30         183.4969
   369.44         183.1224
   369.58         182.5585
   369.72         181.8083
   369.86         180.9205
   370.00         179.9861
   370.14         179.1062
   370.28         178.3708
   370.42         177.8482
   370.56         177.5747
   370.70         177.5471
   370.84         177.7210
   370.98         178.0311
   371.12         178.4118
   371.26         178.7994
   371.40         179.1414
   371.54         179.4009
   371.68         179.5522
   371.82         179.5817
   371.96         179.4800
   372.10         179.2377
   372.24         178.8588
   372.38         178.3777
   372.52         177.8601
   372.66         177.3785
   372.80         176.9989
   372.94         176.7833
   373.08         176.7734
   373.22         176.9739
   373.36         177.3502
   373.50         177.8379
   373.64         178.3558
   373.78         178.8187
   373.92         179.1538
   374.06         179.3149
   374.20         179.2761
   374.34         179.0394
   374.48         178.6344
   374.62         178.0936
   374.76         177.4632
   374.90         176.8303
   375.04         176.3108
   375.18         175.9937
   375.32         175.8984
   375.46         175.9822
   375.60         176.1597
   375.74         176.3130
   375.88         176.3202
   376.02         176.0973
   376.16         175.6241
   376.30         174.9542
   376.44         174.2078
   376.58         173.5299
   376.72         173.0478
   376.86         172.8618
   377.00         173.0404
   377.14         173.6015
   377.28         174.5212
   377.42         175.7501
   377.56         177.2035
   377.70         178.7489
   377.84         180.2142
   377.98         181.4337
   378.12         182.2742
   378.26         182.6329
   378.40         182.4388
   378.54         181.6658
   378.68         180.3536
   378.82         178.6118
   378.96         176.6016
   379.10         174.5027
   379.24         172.4924
   379.38         170.7505
   379.52         169.4478
   379.66         168.7060
   379.80         168.5771
   379.94         169.0471
   380.08         170.0384
   380.22         171.4341
   380.36         173.0910
   380.50         174.8300
   380.64         176.4506
   380.78         177.7591
   380.92         178.6209
   381.06         179.0012
   381.20         178.9597
   381.34         178.6173
   381.48         178.1046
   381.62         177.5305
   381.76         176.9668
   381.90         176.4297
   382.04         175.8779
   382.18         175.2226
   382.32         174.3585
   382.46         173.2234
   382.60         171.8303
   382.74         170.2541
   382.88         168.6083
   383.02         167.0228
   383.16         165.6380
   383.30         164.6043
   383.44         164.0647
   383.58         164.1206
   383.72         164.7943
   383.86         166.0185
   384.00         167.6583
   384.14         169.5406
   384.28         171.4747
   384.42         173.2637
   384.56         174.7328
   384.70         175.7750
   384.84         176.3691
   384.98         176.5625
   385.12         176.4395
   385.26         176.0806
   385.40         175.5477
   385.54         174.9029
   385.68         174.2123
   385.82         173.5281
   385.96         172.8837
   386.10         172.3009
   386.24         171.7865
   386.38         171.3348
   386.52         170.9434
   386.66         170.6138
   386.80         170.3367
   386.94         170.0881
   387.08         169.8325
   387.22         169.5121
   387.36         169.0305
   387.50         168.2625
   387.64         167.0873
   387.78         165.4359
   387.92         163.3319
   388.06         160.8961
   388.20         158.3125
   388.34         155.7839
   388.48         153.5143
   388.62         151.7092
   388.76         150.5506
   388.90         150.1544
   389.04         150.5553
   389.18         151.7134
   389.32         153.5157
   389.46         155.7824
   389.60         158.2977
   389.74         160.8402
   389.88         163.2023
   390.02         165.2214
   390.16         166.8088
   390.30         167.9574
   390.44         168.7232
   390.58         169.1904
   390.72         169.4298
   390.86         169.4775
   391.00         169.3520
   391.14         169.0777
   391.28         168.6845
   391.42         168.1944
   391.56         167.6259
   391.70         167.0068
   391.84         166.3689
   391.98         165.7222
   392.12         165.0499
   392.26         164.3357
   392.40         163.5817
   392.54         162.8094
   392.68         162.0538
   392.82         161.3566
   392.96         160.7542
   393.10         160.2676
   393.24         159.9073
   393.38         159.6791
   393.52         159.5834
   393.66         159.6159
   393.80         159.7692
   393.94         160.0322
   394.08         160.3860
   394.22         160.7977
   394.36         161.2140
   394.50         161.5683
   394.64         161.8053
   394.78         161.8986
   394.92         161.8405
   395.06         161.6229
   395.20         161.2227
   395.34         160.5899
   395.48         159.6403
   395.62         158.2682
   395.76         156.4015
   395.90         154.0497
   396.04         151.3131
   396.18         148.3732
   396.32         145.4623
   396.46         142.8331
   396.60         140.7201
   396.74         139.2961
   396.88         138.6519
   397.02         138.8045
   397.16         139.7094
   397.30         141.2622
   397.44         143.3020
   397.58         145.6249
   397.72         148.0123
   397.86         150.2579
   398.00         152.1866
   398.14         153.6813
   398.28         154.7153
   398.42         155.3545
   398.56         155.7092
   398.70         155.8841
   398.84         155.9514
   398.98         155.9380
   399.12         155.8424
   399.26         155.6543
   399.40         155.3651
   399.54         154.9747
   399.68         154.4950
   399.82         153.9492
   399.96         153.3611
   400.10         152.7438
   400.24         152.1000
   400.38         151.4414
   400.52         150.7921
   400.66         150.1650
   400.80         149.5524
   400.94         148.9275
   401.08         148.2425
   401.22         147.4336
   401.36         146.4506
   401.50         145.2838
   401.64         143.9720
   401.78         142.5917
   401.92         141.2376
   402.06         140.0079
   402.20         138.9925
   402.34         138.2683
   402.48         137.8921
   402.62         137.8841
   402.76         138.2235
   402.90         138.8589
   403.04         139.7120
   403.18         140.6811
   403.32         141.6560
   403.46         142.5326
   403.60         143.2299
   403.74         143.7030
   403.88         143.9517
   404.02         144.0171
   404.16         143.9480
   404.30         143.7702
   404.44         143.4871
   404.58         143.1003
   404.72         142.6249
   404.86         142.0832
   405.00         141.4991
   405.14         140.8972
   405.28         140.2995
   405.42         139.7207
   405.56         139.1731
   405.70         138.6730
   405.84         138.2350
   405.98         137.8652
   406.12         137.5610
   406.26         137.3160
   406.40         137.1173
   406.54         136.9431
   406.68         136.7696
   406.82         136.5756
   406.96         136.3514
   407.10         136.0977
   407.24         135.8161
   407.38         135.5046
   407.52         135.1549
   407.66         134.7614
   407.80         134.3261
   407.94         133.8541
   408.08         133.3439
   408.22         132.7850
   408.36         132.1513
   408.50         131.3948
   408.64         130.4512
   408.78         129.2461
   408.92         127.7113
   409.06         125.8303
   409.20         123.6671
   409.34         121.3580
   409.48         119.0765
   409.62         117.0028
   409.76         115.3090
   409.90         114.1429
   410.04         113.6098
   410.18         113.7548
   410.32         114.5551
   410.46         115.9256
   410.60         117.7281
   410.74         119.7867
   410.88         121.9109
   411.02         123.9202
   411.16         125.6696
   411.30         127.0715
   411.44         128.1053
   411.58         128.8162
   411.72         129.2926
   411.86         129.6266
   412.00         129.8836
   412.14         130.0930
   412.28         130.2583
   412.42         130.3706
   412.56         130.4193
   412.70         130.4032
   412.84         130.3308
   412.98         130.2135
   413.12         130.0647
   413.26         129.8987
   413.40         129.7251
   413.54         129.5503
   413.68         129.3812
   413.82         129.2246
   413.96         129.0835
   414.10         128.9565
   414.24         128.8408
   414.38         128.7302
   414.52         128.6157
   414.66         128.4857
   414.80         128.3252
   414.94         128.1261
   415.08         127.8961
   415.22         127.6571
   415.36         127.4331
   415.50         127.2408
   415.64         127.0947
   415.78         127.0099
   415.92         126.9943
   416.06         127.0411
   416.20         127.1302
   416.34         127.2306
   416.48         127.3037
   416.62         127.3130
   416.76         127.2321
   416.90         127.0434
   417.04         126.7397
   417.18         126.3310
   417.32         125.8422
   417.46         125.3021
   417.60         124.7370
   417.74         124.1668
   417.88         123.6080
   418.02         123.0748
   418.16         122.5749
   418.30         122.1009
   418.44         121.6203
   418.58         121.0865
   418.72         120.4625
   418.86         119.7326
   419.00         118.9067
   419.14         118.0205
   419.28         117.1293
   419.42         116.2986
   419.56         115.5897
   419.70         115.0482
   419.84         114.7024
   419.98         114.5632
   420.12         114.6250
   420.26         114.8704
   420.40         115.2731
   420.54         115.7971
   420.68         116.3939
   420.82         117.0086
   420.96         117.5867
   421.10         118.0776
   421.24         118.4468
   421.38         118.6835
   421.52         118.7957
   421.66         118.8036
   421.80         118.7314
   421.94         118.6011
   422.08         118.4317
   422.22         118.2416
   422.36         118.0511
   422.50         117.8801
   422.64         117.7382
   422.78         117.6231
   422.92         117.5300
   423.06         117.4548
   423.20         117.3901
   423.34         117.3244
   423.48         117.2417
   423.62         117.1237
   423.76         116.9617
   423.90         116.7617
   424.04         116.5398
   424.18         116.3145
   424.32         116.1001
   424.46         115.9054
   424.60         115.7384
   424.74         115.6003
   424.88         115.4792
   425.02         115.3547
   425.16         115.2087
   425.30         115.0334
   425.44         114.8326
   425.58         114.6157
   425.72         114.3908
   425.86         114.1610
   426.00         113.9326
   426.14         113.7183
   426.28         113.5304
   426.42         113.3747
   426.56         113.2485
   426.70         113.1456
   426.84         113.0603
   426.98         112.9818
   427.12         112.8988
   427.26         112.8004
   427.40         112.6749
   427.54         112.5187
   427.68         112.3355
   427.82         112.1310
   427.96         111.9142
   428.10         111.6930
   428.24         111.4757
   428.38         111.2730
   428.52         111.0959
   428.66         110.9553
   428.80         110.8567
   428.94         110.8007
   429.08         110.7880
   429.22         110.8161
   429.36         110.8730
   429.50         110.9409
   429.64         111.0032
   429.78         111.0477
   429.92         111.0649
   430.06         111.0497
   430.20         110.9975
   430.34         110.8990
   430.48         110.7512
   430.62         110.5612
   430.76         110.3381
   430.90         110.0880
   431.04         109.8131
   431.18         109.5183
   431.32         109.2151
   431.46         108.9191
   431.60         108.6424
   431.74         108.3892
   431.88         108.1540
   432.02         107.9228
   432.16         107.6767
   432.30         107.3838
   432.44         106.9876
   432.58         106.4093
   432.72         105.5698
   432.86         104.4160
   433.00         102.9454
   433.14         101.2217
   433.28         99.3659
   433.42         97.5291
   433.56         95.8648
   433.70         94.5113
   433.84         93.5795
   433.98         93.1384
   434.12         93.2061
   434.26         93.7519
   434.40         94.7037
   434.54         95.9597
   434.68         97.3995
   434.82         98.8926
   434.96         100.3133
   435.10         101.5618
   435.24         102.5857
   435.38         103.3843
   435.52         103.9924
   435.66         104.4631
   435.80         104.8496
   435.94         105.1853
   436.08         105.4790
   436.22         105.7240
   436.36         105.9099
   436.50         106.0283
   436.64         106.0762
   436.78         106.0553
   436.92         105.9709
   437.06         105.8298
   437.20         105.6373
   437.34         105.3913
   437.48         105.0869
   437.62         104.7302
   437.76         104.3392
   437.90         103.9358
   438.04         103.5431
   438.18         103.1883
   438.32         102.9016
   438.46         102.7069
   438.60         102.6132
   438.74         102.6154
   438.88         102.6979
   439.02         102.8400
   439.16         103.0200
   439.30         103.2140
   439.44         103.3929
   439.58         103.5256
   439.72         103.5818
   439.86         103.5376
   440.00         103.3835
   440.14         103.1296
   440.28         102.7978
   440.42         102.4098
   440.56         101.9841
   440.70         101.5391
   440.84         101.0925
   440.98         100.6579
   441.12         100.2410
   441.26         99.8384
   441.40         99.4407
   441.54         99.0367
   441.68         98.6153
   441.82         98.1658
   441.96         97.6769
   442.10         97.1489
   442.24         96.5980
   442.38         96.0480
   442.52         95.5268
   442.66         95.0690
   442.80         94.7109
   442.94         94.4834
   443.08         94.4063
   443.22         94.4870
   443.36         94.7182
   443.50         95.0730
   443.64         95.5081
   443.78         95.9735
   443.92         96.4251
   444.06         96.8289
   444.20         97.1536
   444.34         97.3745
   444.48         97.4798
   444.62         97.4739
   444.76         97.3764
   444.90         97.2140
   445.04         97.0156
   445.18         96.8102
   445.32         96.6222
   445.46         96.4582
   445.60         96.2968
   445.74         96.0953
   445.88         95.8096
   446.02         95.4146
   446.16         94.9145
   446.30         94.3420
   446.44         93.7504
   446.58         93.1955
   446.72         92.7211
   446.86         92.3620
   447.00         92.1500
   447.14         92.1073
   447.28         92.2355
   447.42         92.5166
   447.56         92.9216
   447.70         93.4103
   447.84         93.9302
   447.98         94.4214
   448.12         94.8293
   448.26         95.1154
   448.40         95.2661
   448.54         95.2980
   448.68         95.2469
   448.82         95.1486
   448.96         95.0285
   449.10         94.8966
   449.24         94.7563
   449.38         94.6136
   449.52         94.4732
   449.66         94.3314
   449.80         94.1799
   449.94         94.0125
   450.08         93.8289
   450.22         93.6291
   450.36         93.4093
   450.50         93.1656
   450.64         92.9030
   450.78         92.6339
   450.92         92.3666
   451.06         92.1092
   451.20         91.8786
   451.34         91.6942
   451.48         91.5644
   451.62         91.4837
   451.76         91.4451
   451.90         91.4433
   452.04         91.4665
   452.18         91.4928
   452.32         91.4952
   452.46         91.4449
   452.60         91.3110
   452.74         91.0583
   452.88         90.6584
   453.02         90.1026
   453.16         89.4052
   453.30         88.6018
   453.44         87.7403
   453.58         86.8798
   453.72         86.0911
   453.86         85.4403
   454.00         84.9713
   454.14         84.6995
   454.28         84.6253
   454.42         84.7414
   454.56         85.0209
   454.70         85.4177
   454.84         85.8796
   454.98         86.3563
   455.12         86.8042
   455.26         87.1933
   455.40         87.5079
   455.54         87.7476
   455.68         87.9298
   455.82         88.0818
   455.96         88.2272
   456.10         88.3781
   456.24         88.5368
   456.38         88.7000
   456.52         88.8593
   456.66         89.0040
   456.80         89.1263
   456.94         89.2225
   457.08         89.2870
   457.22         89.3098
   457.36         89.2809
   457.50         89.1932
   457.64         89.0366
   457.78         88.8028
   457.92         88.4965
   458.06         88.1324
   458.20         87.7344
   458.34         87.3319
   458.48         86.9463
   458.62         86.5886
   458.76         86.2694
   458.90         86.0038
   459.04         85.8004
   459.18         85.6538
   459.32         85.5515
   459.46         85.4774
   459.60         85.4151
   459.74         85.3530
   459.88         85.2891
   460.02         85.2306
   460.16         85.1890
   460.30         85.1741
   460.44         85.1955
   460.58         85.2638
   460.72         85.3862
   460.86         85.5609
   461.00         85.7686
   461.14         85.9794
   461.28         86.1690
   461.42         86.3223
   461.56         86.4242
   461.70         86.4570
   461.84         86.4149
   461.98         86.3090
   462.12         86.1558
   462.26         85.9737
   462.40         85.7851
   462.54         85.6107
   462.68         85.4646
   462.82         85.3515
   462.96         85.2697
   463.10         85.2154
   463.24         85.1847
   463.38         85.1720
   463.52         85.1702
   463.66         85.1684
   463.80         85.1562
   463.94         85.1284
   464.08         85.0800
   464.22         85.0013
   464.36         84.8831
   464.50         84.7220
   464.64         84.5229
   464.78         84.2969
   464.92         84.0613
   465.06         83.8383
   465.20         83.6532
   465.34         83.5275
   465.48         83.4734
   465.62         83.4945
   465.76         83.5867
   465.90         83.7376
   466.04         83.9290
   466.18         84.1394
   466.32         84.3401
   466.46         84.5007
   466.60         84.5987
   466.74         84.6157
   466.88         84.5343
   467.02         84.3365
   467.16         84.0062
   467.30         83.5359
   467.44         82.9361
   467.58         82.2392
   467.72         81.4950
   467.86         80.7591
   468.00         80.0791
   468.14         79.5010
   468.28         79.0731
   468.42         78.8249
   468.56         78.7603
   468.70         78.8677
   468.84         79.1221
   468.98         79.4812
   469.12         79.8931
   469.26         80.3085
   469.40         80.6851
   469.54         80.9874
   469.68         81.1893
   469.82         81.2783
   469.96         81.2608
   470.10         81.1579
   470.24         80.9913
   470.38         80.7764
   470.52         80.5268
   470.66         80.2548
   470.80         79.9740
   470.94         79.6927
   471.08         79.4100
   471.22         79.1280
   471.36         78.8540
   471.50         78.5945
   471.64         78.3578
   471.78         78.1540
   471.92         77.9887
   472.06         77.8602
   472.20         77.7621
   472.34         77.6820
   472.48         77.6029
   472.62         77.5121
   472.76         77.4061
   472.90         77.2890
   473.04         77.1679
   473.18         77.0460
   473.32         76.9242
   473.46         76.8079
   473.60         76.7045
   473.74         76.6194
   473.88         76.5582
   474.02         76.5268
   474.16         76.5296
   474.30         76.5677
   474.44         76.6321
   474.58         76.7068
   474.72         76.7760
   474.86         76.8199
   475.00         76.8178
   475.14         76.7584
   475.28         76.6444
   475.42         76.4851
   475.56         76.2922
   475.70         76.0787
   475.84         75.8538
   475.98         75.6271
   476.12         75.4089
   476.26         75.2035
   476.40         75.0105
   476.54         74.8305
   476.68         74.6657
   476.82         74.5173
   476.96         74.3843
   477.10         74.2632
   477.24         74.1485
   477.38         74.0337
   477.52         73.9148
   477.66         73.7929
   477.80         73.6719
   477.94         73.5561
   478.08         73.4480
   478.22         73.3444
   478.36         73.2322
   478.50         73.0971
   478.64         72.9383
   478.78         72.7673
   478.92         72.5956
   479.06         72.4299
   479.20         72.2737
   479.34         72.1297
   479.48         71.9980
   479.62         71.8759
   479.76         71.7636
   479.90         71.6614
   480.04         71.5629
   480.18         71.4605
   480.32         71.3498
   480.46         71.2323
   480.60         71.1142
   480.74         71.0014
   480.88         70.8991
   481.02         70.8190
   481.16         70.7812
   481.30         70.7982
   481.44         70.8628
   481.58         70.9569
   481.72         71.0631
   481.86         71.1721
   482.00         71.2816
   482.14         71.3863
   482.28         71.4767
   482.42         71.5475
   482.56         71.5972
   482.70         71.6285
   482.84         71.6537
   482.98         71.6877
   483.12         71.7392
   483.26         71.8081
   483.40         71.8890
   483.54         71.9707
   483.68         72.0350
   483.82         72.0570
   483.96         72.0139
   484.10         71.8933
   484.24         71.6870
   484.38         71.3801
   484.52         70.9467
   484.66         70.3536
   484.80         69.5667
   484.94         68.5697
   485.08         67.3801
   485.22         66.0499
   485.36         64.6588
   485.50         63.3002
   485.64         62.0659
   485.78         61.0425
   485.92         60.3053
   486.06         59.9018
   486.20         59.8445
   486.34         60.1194
   486.48         60.6898
   486.62         61.4912
   486.76         62.4307
   486.90         63.4053
   487.04         64.3253
   487.18         65.1214
   487.32         65.7500
   487.46         66.2048
   487.60         66.5146
   487.74         66.7286
   487.88         66.8968
   488.02         67.0525
   488.16         67.2095
   488.30         67.3683
   488.44         67.5223
   488.58         67.6599
   488.72         67.7665
   488.86         67.8324
   489.00         67.8605
   489.14         67.8593
   489.28         67.8377
   489.42         67.8123
   489.56         67.8069
   489.70         67.8372
   489.84         67.9030
   489.98         67.9970
   490.12         68.1119
   490.26         68.2371
   490.40         68.3612
   490.54         68.4692
   490.68         68.5395
   490.82         68.5509
   490.96         68.4857
   491.10         68.3339
   491.24         68.1012
   491.38         67.8052
   491.52         67.4713
   491.66         67.1324
   491.80         66.8204
   491.94         66.5601
   492.08         66.3719
   492.22         66.2680
   492.36         66.2469
   492.50         66.2969
   492.64         66.4021
   492.78         66.5435
   492.92         66.6993
   493.06         66.8443
   493.20         66.9480
   493.34         66.9845
   493.48         66.9450
   493.62         66.8356
   493.76         66.6721
   493.90         66.4801
   494.04         66.2891
   494.18         66.1223
   494.32         65.9927
   494.46         65.9016
   494.60         65.8412
   494.74         65.7979
   494.88         65.7547
   495.02         65.6920
   495.16         65.5957
   495.30         65.4645
   495.44         65.3069
   495.58         65.1309
   495.72         64.9401
   495.86         64.7385
   496.00         64.5370
   496.14         64.3492
   496.28         64.1817
   496.42         64.0386
   496.56         63.9251
   496.70         63.8372
   496.84         63.7645
   496.98         63.7017
   497.12         63.6454
   497.26         63.5905
   497.40         63.5369
   497.54         63.4881
   497.68         63.4449
   497.82         63.4096
   497.96         63.3899
   498.10         63.3898
   498.24         63.4044
   498.38         63.4284
   498.52         63.4613
   498.66         63.5044
   498.80         63.5571
   498.94         63.6220
   499.08         63.7080
   499.22         63.8200
   499.36         63.9513
   499.50         64.0888
   499.64         64.2167
   499.78         64.3190
   499.92         64.3835
   500.06         64.3989
   500.20         64.3509
   500.34         64.2253
   500.48         64.0173
   500.62         63.7324
   500.76         63.3811
   500.90         62.9785
   501.04         62.5476
   501.18         62.1173
   501.32         61.7192
   501.46         61.3829
   501.60         61.1300
   501.74         60.9685
   501.88         60.8900
   502.02         60.8760
   502.16         60.9076
   502.30         60.9684
   502.44         61.0439
   502.58         61.1194
   502.72         61.1829
   502.86         61.2280
   503.00         61.2530
   503.14         61.2606
   503.28         61.2539
   503.42         61.2309
   503.56         61.1875
   503.70         61.1229
   503.84         61.0418
   503.98         60.9525
   504.12         60.8607
   504.26         60.7653
   504.40         60.6627
   504.54         60.5500
   504.68         60.4250
   504.82         60.2901
   504.96         60.1539
   505.10         60.0292
   505.24         59.9278
   505.38         59.8556
   505.52         59.8087
   505.66         59.7791
   505.80         59.7614
   505.94         59.7547
   506.08         59.7590
   506.22         59.7726
   506.36         59.7936
   506.50         59.8203
   506.64         59.8501
   506.78         59.8773
   506.92         59.8963
   507.06         59.9077
   507.20         59.9115
   507.34         59.9061
   507.48         59.8903
   507.62         59.8650
   507.76         59.8322
   507.90         59.7920
   508.04         59.7406
   508.18         59.6720
   508.32         59.5840
   508.46         59.4782
   508.60         59.3557
   508.74         59.2185
   508.88         59.0752
   509.02         58.9382
   509.16         58.8173
   509.30         58.7183
   509.44         58.6412
   509.58         58.5838
   509.72         58.5409
   509.86         58.5044
   510.00         58.4682
   510.14         58.4304
   510.28         58.3902
   510.42         58.3449
   510.56         58.2912
   510.70         58.2286
   510.84         58.1572
   510.98         58.0772
   511.12         57.9931
   511.26         57.9127
   511.40         57.8397
   511.54         57.7708
   511.68         57.6987
   511.82         57.6201
   511.96         57.5380
   512.10         57.4565
   512.24         57.3792
   512.38         57.3081
   512.52         57.2452
   512.66         57.1923
   512.80         57.1489
   512.94         57.1125
   513.08         57.0850
   513.22         57.0714
   513.36         57.0717
   513.50         57.0809
   513.64         57.0939
   513.78         57.1095
   513.92         57.1273
   514.06         57.1434
   514.20         57.1518
   514.34         57.1489
   514.48         57.1336
   514.62         57.1037
   514.76         57.0531
   514.90         56.9723
   515.04         56.8526
   515.18         56.6934
   515.32         56.5024
   515.46         56.2908
   515.60         56.0727
   515.74         55.8627
   515.88         55.6700
   516.02         55.5003
   516.16         55.3599
   516.30         55.2558
   516.44         55.1940
   516.58         55.1742
   516.72         55.1873
   516.86         55.2230
   517.00         55.2728
   517.14         55.3305
   517.28         55.3912
   517.42         55.4447
   517.56         55.4774
   517.70         55.4816
   517.84         55.4569
   517.98         55.4061
   518.12         55.3342
   518.26         55.2470
   518.40         55.1522
   518.54         55.0583
   518.68         54.9716
   518.82         54.8969
   518.96         54.8336
   519.10         54.7743
   519.24         54.7087
   519.38         54.6302
   519.52         54.5378
   519.66         54.4364
   519.80         54.3353
   519.94         54.2393
   520.08         54.1470
   520.22         54.0605
   520.36         53.9852
   520.50         53.9254
   520.64         53.8843
   520.78         53.8594
   520.92         53.8401
   521.06         53.8156
   521.20         53.7760
   521.34         53.7130
   521.48         53.6247
   521.62         53.5131
   521.76         53.3828
   521.90         53.2420
   522.04         53.1043
   522.18         52.9850
   522.32         52.8936
   522.46         52.8311
   522.60         52.7931
   522.74         52.7730
   522.88         52.7634
   523.02         52.7594
   523.16         52.7601
   523.30         52.7643
   523.44         52.7673
   523.58         52.7639
   523.72         52.7524
   523.86         52.7310
   524.00         52.6970
   524.14         52.6480
   524.28         52.5810
   524.42         52.4947
   524.56         52.3927
   524.70         52.2829
   524.84         52.1691
   524.98         52.0504
   525.12         51.9272
   525.26         51.8018
   525.40         51.6742
   525.54         51.5418
   525.68         51.4029
   525.82         51.2567
   525.96         51.1015
   526.10         50.9356
   526.24         50.7585
   526.38         50.5754
   526.52         50.3959
   526.66         50.2296
   526.80         50.0831
   526.94         49.9632
   527.08         49.8783
   527.22         49.8346
   527.36         49.8304
   527.50         49.8569
   527.64         49.9036
   527.78         49.9606
   527.92         50.0179
   528.06         50.0664
   528.20         50.1000
   528.34         50.1187
   528.48         50.1256
   528.62         50.1218
   528.76         50.1069
   528.90         50.0832
   529.04         50.0533
   529.18         50.0161
   529.32         49.9696
   529.46         49.9163
   529.60         49.8633
   529.74         49.8136
   529.88         49.7633
   530.02         49.7063
   530.16         49.6411
   530.30         49.5703
   530.44         49.5006
   530.58         49.4390
   530.72         49.3874
   530.86         49.3451
   531.00         49.3141
   531.14         49.2949
   531.28         49.2828
   531.42         49.2725
   531.56         49.2597
   531.70         49.2395
   531.84         49.2085
   531.98         49.1670
   532.12         49.1145
   532.26         49.0476
   532.40         48.9644
   532.54         48.8656
   532.68         48.7541
   532.82         48.6348
   532.96         48.5161
   533.10         48.4060
   533.24         48.3078
   533.38         48.2205
   533.52         48.1431
   533.66         48.0751
   533.80         48.0137
   533.94         47.9552
   534.08         47.8979
   534.22         47.8427
   534.36         47.7937
   534.50         47.7548
   534.64         47.7258
   534.78         47.7021
   534.92         47.6819
   535.06         47.6660
   535.20         47.6527
   535.34         47.6384
   535.48         47.6200
   535.62         47.5949
   535.76         47.5609
   535.90         47.5178
   536.04         47.4654
   536.18         47.4009
   536.32         47.3218
   536.46         47.2297
   536.60         47.1305
   536.74         47.0329
   536.88         46.9481
   537.02         46.8850
   537.16         46.8459
   537.30         46.8262
   537.44         46.8208
   537.58         46.8264
   537.72         46.8367
   537.86         46.8418
   538.00         46.8332
   538.14         46.8084
   538.28         46.7701
   538.42         46.7205
   538.56         46.6566
   538.70         46.5728
   538.84         46.4686
   538.98         46.3499
   539.12         46.2250
   539.26         46.0984
   539.40         45.9690
   539.54         45.8282
   539.68         45.6555
   539.82         45.4227
   539.96         45.1069
   540.10         44.7056
   540.24         44.2385
   540.38         43.7369
   540.52         43.2385
   540.66         42.7855
   540.80         42.4193
   540.94         42.1716
   541.08         42.0594
   541.22         42.0867
   541.36         42.2489
   541.50         42.5308
   541.64         42.9054
   541.78         43.3381
   541.92         43.7904
   542.06         44.2214
   542.20         44.5897
   542.34         44.8635
   542.48         45.0326
   542.62         45.1099
   542.76         45.1207
   542.90         45.0892
   543.04         45.0344
   543.18         44.9707
   543.32         44.9075
   543.46         44.8484
   543.60         44.7918
   543.74         44.7341
   543.88         44.6765
   544.02         44.6231
   544.16         44.5751
   544.30         44.5303
   544.44         44.4850
   544.58         44.4345
   544.72         44.3757
   544.86         44.3096
   545.00         44.2438
   545.14         44.1884
   545.28         44.1493
   545.42         44.1235
   545.56         44.1020
   545.70         44.0751
   545.84         44.0355
   545.98         43.9782
   546.12         43.9017
   546.26         43.8088
   546.40         43.7058
   546.54         43.6006
   546.68         43.4991
   546.82         43.4044
   546.96         43.3185
   547.10         43.2449
   547.24         43.1880
   547.38         43.1483
   547.52         43.1196
   547.66         43.0929
   547.80         43.0586
   547.94         43.0074
   548.08         42.9323
   548.22         42.8339
   548.36         42.7222
   548.50         42.6114
   548.64         42.5140
   548.78         42.4393
   548.92         42.3959
   549.06         42.3905
   549.20         42.4224
   549.34         42.4828
   549.48         42.5566
   549.62         42.6271
   549.76         42.6800
   549.90         42.7035
   550.04         42.6873
   550.18         42.6281
   550.32         42.5329
   550.46         42.4132
   550.60         42.2801
   550.74         42.1459
   550.88         42.0253
   551.02         41.9305
   551.16         41.8655
   551.30         41.8261
   551.44         41.8058
   551.58         41.8004
   551.72         41.8036
   551.86         41.8053
   552.00         41.7969
   552.14         41.7740
   552.28         41.7349
   552.42         41.6789
   552.56         41.6087
   552.70         41.5289
   552.84         41.4450
   552.98         41.3621
   553.12         41.2814
   553.26         41.2017
   553.40         41.1232
   553.54         41.0486
   553.68         40.9815
   553.82         40.9257
   553.96         40.8855
   554.10         40.8625
   554.24         40.8540
   554.38         40.8542
   554.52         40.8570
   554.66         40.8557
   554.80         40.8429
   554.94         40.8128
   555.08         40.7653
   555.22         40.7055
   555.36         40.6409
   555.50         40.5808
   555.64         40.5317
   555.78         40.4946
   555.92         40.4692
   556.06         40.4571
   556.20         40.4599
   556.34         40.4770
   556.48         40.5038
   556.62         40.5347
   556.76         40.5657
   556.90         40.5949
   557.04         40.6200
   557.18         40.6367
   557.32         40.6396
   557.46         40.6269
   557.60         40.5992
   557.74         40.5568
   557.88         40.4967
   558.02         40.4137
   558.16         40.3027
   558.30         40.1626
   558.44         40.0007
   558.58         39.8310
   558.72         39.6670
   558.86         39.5192
   559.00         39.3961
   559.14         39.3027
   559.28         39.2412
   559.42         39.2114
   559.56         39.2104
   559.70         39.2342
   559.84         39.2770
   559.98         39.3311
   560.12         39.3878
   560.26         39.4380
   560.40         39.4724
   560.54         39.4835
   560.68         39.4666
   560.82         39.4212
   560.96         39.3516
   561.10         39.2622
   561.24         39.1557
   561.38         39.0345
   561.52         38.9051
   561.66         38.7758
   561.80         38.6550
   561.94         38.5485
   562.08         38.4594
   562.22         38.3871
   562.36         38.3283
   562.50         38.2775
   562.64         38.2318
   562.78         38.1912
   562.92         38.1547
   563.06         38.1196
   563.20         38.0844
   563.34         38.0505
   563.48         38.0225
   563.62         38.0046
   563.76         37.9963
   563.90         37.9946
   564.04         37.9969
   564.18         38.0013
   564.32         38.0058
   564.46         38.0071
   564.60         38.0018
   564.74         37.9893
   564.88         37.9725
   565.02         37.9547
   565.16         37.9389
   565.30         37.9262
   565.44         37.9135
   565.58         37.8959
   565.72         37.8721
   565.86         37.8436
   566.00         37.8127
   566.14         37.7815
   566.28         37.7507
   566.42         37.7183
   566.56         37.6811
   566.70         37.6375
   566.84         37.5877
   566.98         37.5343
   567.12         37.4812
   567.26         37.4323
   567.40         37.3899
   567.54         37.3532
   567.68         37.3188
   567.82         37.2830
   567.96         37.2436
   568.10         37.2002
   568.24         37.1550
   568.38         37.1100
   568.52         37.0661
   568.66         37.0246
   568.80         36.9862
   568.94         36.9502
   569.08         36.9130
   569.22         36.8721
   569.36         36.8269
   569.50         36.7765
   569.64         36.7181
   569.78         36.6482
   569.92         36.5648
   570.06         36.4705
   570.20         36.3713
   570.34         36.2735
   570.48         36.1822
   570.62         36.1011
   570.76         36.0323
   570.90         35.9754
   571.04         35.9299
   571.18         35.8957
   571.32         35.8707
   571.46         35.8519
   571.60         35.8380
   571.74         35.8273
   571.88         35.8183
   572.02         35.8108
   572.16         35.8070
   572.30         35.8102
   572.44         35.8207
   572.58         35.8357
   572.72         35.8510
   572.86         35.8608
   573.00         35.8583
   573.14         35.8385
   573.28         35.7986
   573.42         35.7365
   573.56         35.6524
   573.70         35.5508
   573.84         35.4384
   573.98         35.3232
   574.12         35.2136
   574.26         35.1141
   574.40         35.0255
   574.54         34.9489
   574.68         34.8855
   574.82         34.8345
   574.96         34.7923
   575.10         34.7555
   575.24         34.7217
   575.38         34.6888
   575.52         34.6530
   575.66         34.6103
   575.80         34.5592
   575.94         34.5002
   576.08         34.4343
   576.22         34.3645
   576.36         34.2949
   576.50         34.2272
   576.64         34.1580
   576.78         34.0806
   576.92         33.9883
   577.06         33.8776
   577.20         33.7475
   577.34         33.5993
   577.48         33.4395
   577.62         33.2789
   577.76         33.1277
   577.90         32.9930
   578.04         32.8797
   578.18         32.7936
   578.32         32.7396
   578.46         32.7185
   578.60         32.7238
   578.74         32.7423
   578.88         32.7579
   579.02         32.7551
   579.16         32.7241
   579.30         32.6630
   579.44         32.5765
   579.58         32.4716
   579.72         32.3579
   579.86         32.2453
   580.00         32.1430
   580.14         32.0590
   580.28         31.9999
   580.42         31.9688
   580.56         31.9651
   580.70         31.9873
   580.84         32.0343
   580.98         32.1036
   581.12         32.1899
   581.26         32.2879
   581.40         32.3932
   581.54         32.5021
   581.68         32.6142
   581.82         32.7325
   581.96         32.8571
   582.10         32.9813
   582.24         33.0968
   582.38         33.1985
   582.52         33.2852
   582.66         33.3593
   582.80         33.4240
   582.94         33.4797
   583.08         33.5226
   583.22         33.5469
   583.36         33.5485
   583.50         33.5249
   583.64         33.4742
   583.78         33.3963
   583.92         33.2938
   584.06         33.1716
   584.20         33.0384
   584.34         32.9067
   584.48         32.7895
   584.62         32.6966
   584.76         32.6325
   584.90         32.5993
   585.04         32.5964
   585.18         32.6179
   585.32         32.6525
   585.46         32.6881
   585.60         32.7161
   585.74         32.7353
   585.88         32.7472
   586.02         32.7463
   586.16         32.7164
   586.30         32.6381
   586.44         32.4978
   586.58         32.2933
   586.72         32.0361
   586.86         31.7472
   587.00         31.4493
   587.14         31.1638
   587.28         30.9095
   587.42         30.7002
   587.56         30.5403
   587.70         30.4157
   587.84         30.2994
   587.98         30.1714
   588.12         30.0269
   588.26         29.8609
   588.40         29.6571
   588.54         29.3981
   588.68         29.0818
   588.82         28.7306
   588.96         28.3874
   589.10         28.1018
   589.24         27.9168
   589.38         27.8604
   589.52         27.9420
   589.66         28.1536
   589.80         28.4739
   589.94         28.8725
   590.08         29.3124
   590.22         29.7537
   590.36         30.1636
   590.50         30.5258
   590.64         30.8371
   590.78         31.0900
   590.92         31.2693
   591.06         31.3683
   591.20         31.3978
   591.34         31.3752
   591.48         31.3133
   591.62         31.2224
   591.76         31.1126
   591.90         30.9927
   592.04         30.8696
   592.18         30.7503
   592.32         30.6416
   592.46         30.5514
   592.60         30.4872
   592.74         30.4518
   592.88         30.4414
   593.02         30.4472
   593.16         30.4597
   593.30         30.4711
   593.44         30.4756
   593.58         30.4666
   593.72         30.4378
   593.86         30.3852
   594.00         30.3099
   594.14         30.2182
   594.28         30.1196
   594.42         30.0221
   594.56         29.9328
   594.70         29.8595
   594.84         29.8096
   594.98         29.7893
   595.12         29.8018
   595.26         29.8436
   595.40         29.9044
   595.54         29.9722
   595.68         30.0369
   595.82         30.0916
   595.96         30.1295
   596.10         30.1407
   596.24         30.1176
   596.38         30.0602
   596.52         29.9738
   596.66         29.8635
   596.80         29.7359
   596.94         29.6019
   597.08         29.4746
   597.22         29.3636
   597.36         29.2721
   597.50         29.2000
   597.64         29.1454
   597.78         29.1045
   597.92         29.0731
   598.06         29.0493
   598.20         29.0344
   598.34         29.0320
   598.48         29.0453
   598.62         29.0729
   598.76         29.1099
   598.90         29.1531
   599.04         29.1991
   599.18         29.2418
   599.32         29.2767
   599.46         29.3022
   599.60         29.3148
   599.74         29.3058
   599.88         29.2655
   600.02         29.1921
   600.16         29.0932
   600.30         28.9801
   600.44         28.8660
   600.58         28.7641
   600.72         28.6824
   600.86         28.6222
   601.00         28.5800
   601.14         28.5500
   601.28         28.5256
   601.42         28.5013
   601.56         28.4718
   601.70         28.4315
   601.84         28.3774
   601.98         28.3096
   602.12         28.2264
   602.26         28.1271
   602.40         28.0162
   602.54         27.9016
   602.68         27.7923
   602.82         27.6957
   602.96         27.6171
   603.10         27.5617
   603.24         27.5321
   603.38         27.5255
   603.52         27.5374
   603.66         27.5666
   603.80         27.6123
   603.94         27.6712
   604.08         27.7386
   604.22         27.8088
   604.36         27.8768
   604.50         27.9387
   604.64         27.9916
   604.78         28.0353
   604.92         28.0723
   605.06         28.1038
   605.20         28.1278
   605.34         28.1417
   605.48         28.1426
   605.62         28.1256
   605.76         28.0865
   605.90         28.0233
   606.04         27.9378
   606.18         27.8361
   606.32         27.7262
   606.46         27.6153
   606.60         27.5094
   606.74         27.4136
   606.88         27.3323
   607.02         27.2693
   607.16         27.2273
   607.30         27.2072
   607.44         27.2060
   607.58         27.2186
   607.72         27.2407
   607.86         27.2693
   608.00         27.3035
   608.14         27.3423
   608.28         27.3836
   608.42         27.4242
   608.56         27.4590
   608.70         27.4830
   608.84         27.4916
   608.98         27.4825
   609.12         27.4557
   609.26         27.4131
   609.40         27.3591
   609.54         27.2989
   609.68         27.2372
   609.82         27.1768
   609.96         27.1190
   610.10         27.0645
   610.24         27.0123
   610.38         26.9599
   610.52         26.9045
   610.66         26.8449
   610.80         26.7822
   610.94         26.7180
   611.08         26.6539
   611.22         26.5924
   611.36         26.5368
   611.50         26.4899
   611.64         26.4533
   611.78         26.4265
   611.92         26.4077
   612.06         26.3954
   612.20         26.3885
   612.34         26.3851
   612.48         26.3825
   612.62         26.3791
   612.76         26.3759
   612.90         26.3756
   613.04         26.3810
   613.18         26.3937
   613.32         26.4137
   613.46         26.4388
   613.60         26.4653
   613.74         26.4898
   613.88         26.5104
   614.02         26.5249
   614.16         26.5310
   614.30         26.5273
   614.44         26.5135
   614.58         26.4918
   614.72         26.4655
   614.86         26.4374
   615.00         26.4087
   615.14         26.3798
   615.28         26.3499
   615.42         26.3164
   615.56         26.2738
   615.70         26.2161
   615.84         26.1403
   615.98         26.0476
   616.12         25.9430
   616.26         25.8330
   616.40         25.7239
   616.54         25.6207
   616.68         25.5272
   616.82         25.4476
   616.96         25.3869
   617.10         25.3479
   617.24         25.3307
   617.38         25.3324
   617.52         25.3488
   617.66         25.3743
   617.80         25.4030
   617.94         25.4304
   618.08         25.4528
   618.22         25.4679
   618.36         25.4758
   618.50         25.4789
   618.64         25.4808
   618.78         25.4838
   618.92         25.4878
   619.06         25.4900
   619.20         25.4868
   619.34         25.4761
   619.48         25.4588
   619.62         25.4372
   619.76         25.4144
   619.90         25.3940
   620.04         25.3803
   620.18         25.3761
   620.32         25.3805
   620.46         25.3917
   620.60         25.4073
   620.74         25.4245
   620.88         25.4409
   621.02         25.4542
   621.16         25.4619
   621.30         25.4608
   621.44         25.4459
   621.58         25.4116
   621.72         25.3551
   621.86         25.2781
   622.00         25.1858
   622.14         25.0858
   622.28         24.9863
   622.42         24.8938
   622.56         24.8127
   622.70         24.7453
   622.84         24.6928
   622.98         24.6571
   623.12         24.6402
   623.26         24.6416
   623.40         24.6588
   623.54         24.6886
   623.68         24.7279
   623.82         24.7736
   623.96         24.8222
   624.10         24.8715
   624.24         24.9216
   624.38         24.9749
   624.52         25.0322
   624.66         25.0910
   624.80         25.1456
   624.94         25.1875
   625.08         25.2071
   625.22         25.1954
   625.36         25.1474
   625.50         25.0648
   625.64         24.9548
   625.78         24.8253
   625.92         24.6844
   626.06         24.5425
   626.20         24.4105
   626.34         24.2969
   626.48         24.2052
   626.62         24.1340
   626.76         24.0782
   626.90         24.0286
   627.04         23.9721
   627.18         23.8937
   627.32         23.7806
   627.46         23.6285
   627.60         23.4447
   627.74         23.2456
   627.88         23.0532
   628.02         22.8915
   628.16         22.7827
   628.30         22.7408
   628.44         22.7695
   628.58         22.8660
   628.72         23.0217
   628.86         23.2209
   629.00         23.4420
   629.14         23.6623
   629.28         23.8608
   629.42         24.0200
   629.56         24.1256
   629.70         24.1685
   629.84         24.1470
   629.98         24.0687
   630.12         23.9473
   630.26         23.7988
   630.40         23.6379
   630.54         23.4783
   630.68         23.3330
   630.82         23.2129
   630.96         23.1256
   631.10         23.0764
   631.24         23.0684
   631.38         23.1006
   631.52         23.1680
   631.66         23.2616
   631.80         23.3694
   631.94         23.4791
   632.08         23.5810
   632.22         23.6680
   632.36         23.7367
   632.50         23.7875
   632.64         23.8223
   632.78         23.8430
   632.92         23.8524
   633.06         23.8550
   633.20         23.8550
   633.34         23.8544
   633.48         23.8534
   633.62         23.8509
   633.76         23.8445
   633.90         23.8306
   634.04         23.8063
   634.18         23.7702
   634.32         23.7229
   634.46         23.6676
   634.60         23.6093
   634.74         23.5514
   634.88         23.4955
   635.02         23.4429
   635.16         23.3942
   635.30         23.3488
   635.44         23.3057
   635.58         23.2636
   635.72         23.2200
   635.86         23.1712
   636.00         23.1143
   636.14         23.0499
   636.28         22.9804
   636.42         22.9087
   636.56         22.8374
   636.70         22.7687
   636.84         22.7042
   636.98         22.6446
   637.12         22.5918
   637.26         22.5474
   637.40         22.5128
   637.54         22.4884
   637.68         22.4738
   637.82         22.4678
   637.96         22.4694
   638.10         22.4775
   638.24         22.4917
   638.38         22.5125
   638.52         22.5410
   638.66         22.5771
   638.80         22.6175
   638.94         22.6560
   639.08         22.6850
   639.22         22.6978
   639.36         22.6919
   639.50         22.6675
   639.64         22.6261
   639.78         22.5693
   639.92         22.4990
   640.06         22.4185
   640.20         22.3325
   640.34         22.2459
   640.48         22.1627
   640.62         22.0870
   640.76         22.0232
   640.90         21.9744
   641.04         21.9417
   641.18         21.9248
   641.32         21.9220
   641.46         21.9311
   641.60         21.9497
   641.74         21.9756
   641.88         22.0065
   642.02         22.0400
   642.16         22.0735
   642.30         22.1046
   642.44         22.1312
   642.58         22.1496
   642.72         22.1566
   642.86         22.1507
   643.00         22.1318
   643.14         22.1014
   643.28         22.0633
   643.42         22.0214
   643.56         21.9795
   643.70         21.9409
   643.84         21.9087
   643.98         21.8842
   644.12         21.8670
   644.26         21.8555
   644.40         21.8477
   644.54         21.8409
   644.68         21.8328
   644.82         21.8220
   644.96         21.8066
   645.10         21.7849
   645.24         21.7570
   645.38         21.7259
   645.52         21.6965
   645.66         21.6726
   645.80         21.6566
   645.94         21.6505
   646.08         21.6561
   646.22         21.6729
   646.36         21.6995
   646.50         21.7344
   646.64         21.7767
   646.78         21.8243
   646.92         21.8742
   647.06         21.9241
   647.20         21.9726
   647.34         22.0186
   647.48         22.0601
   647.62         22.0944
   647.76         22.1183
   647.90         22.1282
   648.04         22.1218
   648.18         22.0987
   648.32         22.0591
   648.46         22.0064
   648.60         21.9471
   648.74         21.8895
   648.88         21.8410
   649.02         21.8070
   649.16         21.7912
   649.30         21.7935
   649.44         21.8105
   649.58         21.8383
   649.72         21.8739
   649.86         21.9126
   650.00         21.9476
   650.14         21.9725
   650.28         21.9820
   650.42         21.9721
   650.56         21.9421
   650.70         21.8954
   650.84         21.8372
   650.98         21.7726
   651.12         21.7050
   651.26         21.6345
   651.40         21.5581
   651.54         21.4734
   651.68         21.3809
   651.82         21.2839
   651.96         21.1871
   652.10         21.0957
   652.24         21.0158
   652.38         20.9530
   652.52         20.9114
   652.66         20.8935
   652.80         20.9005
   652.94         20.9308
   653.08         20.9813
   653.22         21.0473
   653.36         21.1214
   653.50         21.1933
   653.64         21.2515
   653.78         21.2855
   653.92         21.2869
   654.06         21.2528
   654.20         21.1835
   654.34         21.0790
   654.48         20.9353
   654.62         20.7450
   654.76         20.5014
   654.90         20.2033
   655.04         19.8561
   655.18         19.4739
   655.32         19.0787
   655.46         18.6990
   655.60         18.3653
   655.74         18.1049
   655.88         17.9380
   656.02         17.8775
   656.16         17.9291
   656.30         18.0896
   656.44         18.3468
   656.58         18.6813
   656.72         19.0673
   656.86         19.4754
   657.00         19.8755
   657.14         20.2403
   657.28         20.5505
   657.42         20.7974
   657.56         20.9815
   657.70         21.1097
   657.84         21.1934
   657.98         21.2443
   658.12         21.2712
   658.26         21.2788
   658.40         21.2709
   658.54         21.2524
   658.68         21.2297
   658.82         21.2073
   658.96         21.1863
   659.10         21.1667
   659.24         21.1490
   659.38         21.1339
   659.52         21.1205
   659.66         21.1062
   659.80         21.0877
   659.94         21.0614
   660.08         21.0247
   660.22         20.9770
   660.36         20.9197
   660.50         20.8544
   660.64         20.7816
   660.78         20.7022
   660.92         20.6199
   661.06         20.5405
   661.20         20.4706
   661.34         20.4159
   661.48         20.3806
   661.62         20.3687
   661.76         20.3824
   661.90         20.4192
   662.04         20.4713
   662.18         20.5284
   662.32         20.5812
   662.46         20.6227
   662.60         20.6479
   662.74         20.6553
   662.88         20.6458
   663.02         20.6210
   663.16         20.5824
   663.30         20.5331
   663.44         20.4777
   663.58         20.4213
   663.72         20.3679
   663.86         20.3192
   664.00         20.2742
   664.14         20.2298
   664.28         20.1821
   664.42         20.1266
   664.56         20.0608
   664.70         19.9867
   664.84         19.9099
   664.98         19.8369
   665.12         19.7723
   665.26         19.7189
   665.40         19.6787
   665.54         19.6525
   665.68         19.6404
   665.82         19.6410
   665.96         19.6509
   666.10         19.6636
   666.24         19.6690
   666.38         19.6550
   666.52         19.6115
   666.66         19.5327
   666.80         19.4183
   666.94         19.2727
   667.08         19.1037
   667.22         18.9230
   667.36         18.7445
   667.50         18.5823
   667.64         18.4499
   667.78         18.3588
   667.92         18.3174
   668.06         18.3295
   668.20         18.3930
   668.34         18.4996
   668.48         18.6376
   668.62         18.7927
   668.76         18.9500
   668.90         19.0958
   669.04         19.2197
   669.18         19.3159
   669.32         19.3825
   669.46         19.4207
   669.60         19.4348
   669.74         19.4306
   669.88         19.4155
   670.02         19.3963
   670.16         19.3781
   670.30         19.3634
   670.44         19.3525
   670.58         19.3443
   670.72         19.3373
   670.86         19.3293
   671.00         19.3195
   671.14         19.3083
   671.28         19.2960
   671.42         19.2820
   671.56         19.2659
   671.70         19.2481
   671.84         19.2301
   671.98         19.2141
   672.12         19.2025
   672.26         19.1966
   672.40         19.1959
   672.54         19.1986
   672.68         19.2010
   672.82         19.1988
   672.96         19.1888
   673.10         19.1689
   673.24         19.1380
   673.38         19.0964
   673.52         19.0471
   673.66         18.9947
   673.80         18.9432
   673.94         18.8943
   674.08         18.8491
   674.22         18.8092
   674.36         18.7755
   674.50         18.7487
   674.64         18.7298
   674.78         18.7182
   674.92         18.7115
   675.06         18.7063
   675.20         18.6996
   675.34         18.6896
   675.48         18.6763
   675.62         18.6611
   675.76         18.6457
   675.90         18.6319
   676.04         18.6218
   676.18         18.6166
   676.32         18.6152
   676.46         18.6144
   676.60         18.6116
   676.74         18.6055
   676.88         18.5952
   677.02         18.5795
   677.16         18.5581
   677.30         18.5310
   677.44         18.4980
   677.58         18.4601
   677.72         18.4201
   677.86         18.3801
   678.00         18.3414
   678.14         18.3056
   678.28         18.2745
   678.42         18.2496
   678.56         18.2321
   678.70         18.2224
   678.84         18.2200
   678.98         18.2235
   679.12         18.2314
   679.26         18.2414
   679.40         18.2509
   679.54         18.2582
   679.68         18.2631
   679.82         18.2662
   679.96         18.2684
   680.10         18.2717
   680.24         18.2785
   680.38         18.2892
   680.52         18.3010
   680.66         18.3108
   680.80         18.3156
   680.94         18.3122
   681.08         18.2975
   681.22         18.2685
   681.36         18.2239
   681.50         18.1644
   681.64         18.0923
   681.78         18.0114
   681.92         17.9277
   682.06         17.8493
   682.20         17.7843
   682.34         17.7381
   682.48         17.7124
   682.62         17.7059
   682.76         17.7153
   682.90         17.7347
   683.04         17.7566
   683.18         17.7745
   683.32         17.7836
   683.46         17.7798
   683.60         17.7608
   683.74         17.7273
   683.88         17.6824
   684.02         17.6326
   684.16         17.5858
   684.30         17.5492
   684.44         17.5274
   684.58         17.5215
   684.72         17.5294
   684.86         17.5464
   685.00         17.5666
   685.14         17.5838
   685.28         17.5917
   685.42         17.5820
   685.56         17.5416
   685.70         17.4540
   685.84         17.3038
   685.98         17.0810
   686.12         16.7830
   686.26         16.4164
   686.40         15.9968
   686.54         15.5469
   686.68         15.0940
   686.82         14.6672
   686.96         14.2952
   687.10         14.0041
   687.24         13.8133
   687.38         13.7304
   687.52         13.7499
   687.66         13.8545
   687.80         14.0180
   687.94         14.2096
   688.08         14.3983
   688.22         14.5583
   688.36         14.6743
   688.50         14.7433
   688.64         14.7720
   688.78         14.7722
   688.92         14.7573
   689.06         14.7408
   689.20         14.7346
   689.34         14.7487
   689.48         14.7908
   689.62         14.8644
   689.76         14.9664
   689.90         15.0875
   690.04         15.2183
   690.18         15.3517
   690.32         15.4838
   690.46         15.6128
   690.60         15.7377
   690.74         15.8564
   690.88         15.9664
   691.02         16.0654
   691.16         16.1512
   691.30         16.2215
   691.44         16.2740
   691.58         16.3081
   691.72         16.3259
   691.86         16.3320
   692.00         16.3327
   692.14         16.3337
   692.28         16.3383
   692.42         16.3482
   692.56         16.3640
   692.70         16.3850
   692.84         16.4086
   692.98         16.4326
   693.12         16.4551
   693.26         16.4738
   693.40         16.4865
   693.54         16.4911
   693.68         16.4859
   693.82         16.4701
   693.96         16.4444
   694.10         16.4119
   694.24         16.3765
   694.38         16.3424
   694.52         16.3123
   694.66         16.2864
   694.80         16.2632
   694.94         16.2420
   695.08         16.2231
   695.22         16.2084
   695.36         16.2006
   695.50         16.2032
   695.64         16.2188
   695.78         16.2482
   695.92         16.2901
   696.06         16.3427
   696.20         16.4044
   696.34         16.4724
   696.48         16.5417
   696.62         16.6066
   696.76         16.6627
   696.90         16.7073
   697.04         16.7396
   697.18         16.7606
   697.32         16.7737
   697.46         16.7837
   697.60         16.7941
   697.74         16.8053
   697.88         16.8146
   698.02         16.8176
   698.16         16.8094
   698.30         16.7877
   698.44         16.7529
   698.58         16.7077
   698.72         16.6562
   698.86         16.6032
   699.00         16.5528
   699.14         16.5086
   699.28         16.4741
   699.42         16.4518
   699.56         16.4416
   699.70         16.4406
   699.84         16.4432
   699.98         16.4427
   700.12         16.4323
   700.26         16.4064
   700.40         16.3619
   700.54         16.2999
   700.68         16.2252
   700.82         16.1459
   700.96         16.0720
   701.10         16.0119
   701.24         15.9705
   701.38         15.9481
   701.52         15.9414
   701.66         15.9457
   701.80         15.9576
   701.94         15.9750
   702.08         15.9960
   702.22         16.0183
   702.36         16.0381
   702.50         16.0516
   702.64         16.0571
   702.78         16.0548
   702.92         16.0461
   703.06         16.0339
   703.20         16.0215
   703.34         16.0108
   703.48         16.0010
   703.62         15.9900
   703.76         15.9761
   703.90         15.9581
   704.04         15.9357
   704.18         15.9099
   704.32         15.8851
   704.46         15.8660
   704.60         15.8549
   704.74         15.8497
   704.88         15.8447
   705.02         15.8319
   705.16         15.8039
   705.30         15.7571
   705.44         15.6905
   705.58         15.6064
   705.72         15.5093
   705.86         15.4050
   706.00         15.3001
   706.14         15.2046
   706.28         15.1299
   706.42         15.0854
   706.56         15.0741
   706.70         15.0946
   706.84         15.1439
   706.98         15.2171
   707.12         15.3048
   707.26         15.3937
   707.40         15.4704
   707.54         15.5261
   707.68         15.5579
   707.82         15.5682
   707.96         15.5641
   708.10         15.5538
   708.24         15.5440
   708.38         15.5375
   708.52         15.5348
   708.66         15.5353
   708.80         15.5378
   708.94         15.5399
   709.08         15.5385
   709.22         15.5308
   709.36         15.5168
   709.50         15.4984
   709.64         15.4770
   709.78         15.4537
   709.92         15.4300
   710.06         15.4087
   710.20         15.3926
   710.34         15.3841
   710.48         15.3842
   710.62         15.3918
   710.76         15.4039
   710.90         15.4153
   711.04         15.4217
   711.18         15.4204
   711.32         15.4120
   711.46         15.4004
   711.60         15.3903
   711.74         15.3862
   711.88         15.3918
   712.02         15.4091
   712.16         15.4369
   712.30         15.4718
   712.44         15.5089
   712.58         15.5432
   712.72         15.5705
   712.86         15.5871
   713.00         15.5898
   713.14         15.5760
   713.28         15.5451
   713.42         15.4988
   713.56         15.4402
   713.70         15.3732
   713.84         15.3038
   713.98         15.2391
   714.12         15.1857
   714.26         15.1477
   714.40         15.1270
   714.54         15.1233
   714.68         15.1340
   714.82         15.1559
   714.96         15.1868
   715.10         15.2240
   715.24         15.2643
   715.38         15.3027
   715.52         15.3327
   715.66         15.3481
   715.80         15.3435
   715.94         15.3128
   716.08         15.2508
   716.22         15.1546
   716.36         15.0255
   716.50         14.8694
   716.64         14.6952
   716.78         14.5138
   716.92         14.3360
   717.06         14.1722
   717.20         14.0305
   717.34         13.9169
   717.48         13.8357
   717.62         13.7892
   717.76         13.7760
   717.90         13.7908
   718.04         13.8264
   718.18         13.8762
   718.32         13.9344
   718.46         13.9956
   718.60         14.0541
   718.74         14.1062
   718.88         14.1499
   719.02         14.1855
   719.16         14.2145
   719.30         14.2390
   719.44         14.2605
   719.58         14.2807
   719.72         14.3025
   719.86         14.3302
   720.00         14.3680
   720.14         14.4197
   720.28         14.4869
   720.42         14.5678
   720.56         14.6593
   720.70         14.7580
   720.84         14.8583
   720.98         14.9519
   721.12         15.0288
   721.26         15.0815
   721.40         15.1072
   721.54         15.1075
   721.68         15.0878
   721.82         15.0543
   721.96         15.0120
   722.10         14.9641
   722.24         14.9145
   722.38         14.8677
   722.52         14.8263
   722.66         14.7897
   722.80         14.7552
   722.94         14.7192
   723.08         14.6788
   723.22         14.6322
   723.36         14.5793
   723.50         14.5216
   723.64         14.4632
   723.78         14.4099
   723.92         14.3658
   724.06         14.3328
   724.20         14.3111
   724.34         14.2993
   724.48         14.2952
   724.62         14.2965
   724.76         14.3021
   724.90         14.3104
   725.04         14.3180
   725.18         14.3196
   725.32         14.3109
   725.46         14.2921
   725.60         14.2670
   725.74         14.2401
   725.88         14.2144
   726.02         14.1911
   726.16         14.1697
   726.30         14.1477
   726.44         14.1206
   726.58         14.0856
   726.72         14.0441
   726.86         14.0014
   727.00         13.9634
   727.14         13.9351
   727.28         13.9196
   727.42         13.9177
   727.56         13.9278
   727.70         13.9480
   727.84         13.9753
   727.98         14.0067
   728.12         14.0382
   728.26         14.0639
   728.40         14.0781
   728.54         14.0773
   728.68         14.0603
   728.82         14.0280
   728.96         13.9830
   729.10         13.9299
   729.24         13.8767
   729.38         13.8325
   729.52         13.8044
   729.66         13.7946
   729.80         13.8014
   729.94         13.8220
   730.08         13.8528
   730.22         13.8899
   730.36         13.9282
   730.50         13.9609
   730.64         13.9821
   730.78         13.9869
   730.92         13.9734
   731.06         13.9428
   731.20         13.8986
   731.34         13.8462
   731.48         13.7921
   731.62         13.7417
   731.76         13.6989
   731.90         13.6659
   732.04         13.6424
   732.18         13.6265
   732.32         13.6169
   732.46         13.6132
   732.60         13.6150
   732.74         13.6205
   732.88         13.6277
   733.02         13.6340
   733.16         13.6376
   733.30         13.6380
   733.44         13.6356
   733.58         13.6324
   733.72         13.6291
   733.86         13.6248
   734.00         13.6178
   734.14         13.6060
   734.28         13.5884
   734.42         13.5655
   734.56         13.5377
   734.70         13.5059
   734.84         13.4721
   734.98         13.4380
   735.12         13.4039
   735.26         13.3694
   735.40         13.3350
   735.54         13.3011
   735.68         13.2679
   735.82         13.2361
   735.96         13.2071
   736.10         13.1837
   736.24         13.1690
   736.38         13.1646
   736.52         13.1707
   736.66         13.1864
   736.80         13.2098
   736.94         13.2378
   737.08         13.2663
   737.22         13.2910
   737.36         13.3096
   737.50         13.3204
   737.64         13.3212
   737.78         13.3100
   737.92         13.2871
   738.06         13.2560
   738.20         13.2209
   738.34         13.1853
   738.48         13.1522
   738.62         13.1237
   738.76         13.1027
   738.90         13.0911
   739.04         13.0890
   739.18         13.0948
   739.32         13.1064
   739.46         13.1216
   739.60         13.1364
   739.74         13.1461
   739.88         13.1469
   740.02         13.1368
   740.16         13.1142
   740.30         13.0796
   740.44         13.0360
   740.58         12.9879
   740.72         12.9384
   740.86         12.8888
   741.00         12.8398
   741.14         12.7940
   741.28         12.7552
   741.42         12.7272
   741.56         12.7121
   741.70         12.7101
   741.84         12.7206
   741.98         12.7422
   742.12         12.7721
   742.26         12.8053
   742.40         12.8374
   742.54         12.8645
   742.68         12.8838
   742.82         12.8937
   742.96         12.8937
   743.10         12.8838
   743.24         12.8645
   743.38         12.8374
   743.52         12.8053
   743.66         12.7721
   743.80         12.7422
   743.94         12.7206
   744.08         12.7101
   744.22         12.7121
