# File HD124320
# Wavelength [nm]    Normalized Amplitude
   349.70         10.9885
   349.84         11.0036
   349.98         11.0092
   350.12         11.0046
   350.26         10.9900
   350.40         10.9662
   350.54         10.9349
   350.68         10.8986
   350.82         10.8632
   350.96         10.8375
   351.10         10.8281
   351.24         10.8375
   351.38         10.8632
   351.52         10.8986
   351.66         10.9349
   351.80         10.9662
   351.94         10.9900
   352.08         11.0046
   352.22         11.0092
   352.36         11.0036
   352.50         10.9885
   352.64         10.9663
   352.78         10.9410
   352.92         10.9161
   353.06         10.8951
   353.20         10.8823
   353.34         10.8820
   353.48         10.8972
   353.62         10.9262
   353.76         10.9641
   353.90         11.0063
   354.04         11.0492
   354.18         11.0906
   354.32         11.1295
   354.46         11.1652
   354.60         11.1966
   354.74         11.2226
   354.88         11.2437
   355.02         11.2594
   355.16         11.2684
   355.30         11.2695
   355.44         11.2609
   355.58         11.2399
   355.72         11.2057
   355.86         11.1583
   356.00         11.0965
   356.14         11.0199
   356.28         10.9299
   356.42         10.8311
   356.56         10.7311
   356.70         10.6384
   356.84         10.5611
   356.98         10.5042
   357.12         10.4701
   357.26         10.4586
   357.40         10.4656
   357.54         10.4832
   357.68         10.5040
   357.82         10.5239
   357.96         10.5405
   358.10         10.5522
   358.24         10.5594
   358.38         10.5636
   358.52         10.5662
   358.66         10.5702
   358.80         10.5817
   358.94         10.6063
   359.08         10.6459
   359.22         10.6981
   359.36         10.7566
   359.50         10.8129
   359.64         10.8596
   359.78         10.8912
   359.92         10.9040
   360.06         10.8966
   360.20         10.8714
   360.34         10.8342
   360.48         10.7914
   360.62         10.7476
   360.76         10.7060
   360.90         10.6699
   361.04         10.6429
   361.18         10.6284
   361.32         10.6291
   361.46         10.6461
   361.60         10.6785
   361.74         10.7231
   361.88         10.7769
   362.02         10.8373
   362.16         10.9021
   362.30         10.9687
   362.44         11.0343
   362.58         11.0975
   362.72         11.1580
   362.86         11.2156
   363.00         11.2687
   363.14         11.3146
   363.28         11.3508
   363.42         11.3759
   363.56         11.3918
   363.70         11.3999
   363.84         11.4005
   363.98         11.3935
   364.12         11.3803
   364.26         11.3624
   364.40         11.3429
   364.54         11.3258
   364.68         11.3145
   364.82         11.3112
   364.96         11.3160
   365.10         11.3286
   365.24         11.3483
   365.38         11.3717
   365.52         11.3943
   365.66         11.4131
   365.80         11.4263
   365.94         11.4328
   366.08         11.4330
   366.22         11.4282
   366.36         11.4188
   366.50         11.4056
   366.64         11.3893
   366.78         11.3700
   366.92         11.3485
   367.06         11.3268
   367.20         11.3061
   367.34         11.2858
   367.48         11.2647
   367.62         11.2421
   367.76         11.2180
   367.90         11.1934
   368.04         11.1703
   368.18         11.1536
   368.32         11.1492
   368.46         11.1578
   368.60         11.1737
   368.74         11.1907
   368.88         11.2054
   369.02         11.2178
   369.16         11.2279
   369.30         11.2334
   369.44         11.2324
   369.58         11.2257
   369.72         11.2164
   369.86         11.2060
   370.00         11.1922
   370.14         11.1725
   370.28         11.1482
   370.42         11.1268
   370.56         11.1207
   370.70         11.1401
   370.84         11.1881
   370.98         11.2579
   371.12         11.3352
   371.26         11.4090
   371.40         11.4799
   371.54         11.5561
   371.68         11.6452
   371.82         11.7515
   371.96         11.8769
   372.10         12.0176
   372.24         12.1602
   372.38         12.2844
   372.52         12.3709
   372.66         12.4121
   372.80         12.4170
   372.94         12.4056
   373.08         12.4002
   373.22         12.4188
   373.36         12.4698
   373.50         12.5512
   373.64         12.6536
   373.78         12.7640
   373.92         12.8690
   374.06         12.9568
   374.20         13.0193
   374.34         13.0544
   374.48         13.0656
   374.62         13.0610
   374.76         13.0538
   374.90         13.0655
   375.04         13.1240
   375.18         13.2566
   375.32         13.4814
   375.46         13.7959
   375.60         14.1722
   375.74         14.5617
   375.88         14.9046
   376.02         15.1429
   376.16         15.2360
   376.30         15.1724
   376.44         14.9724
   376.58         14.6855
   376.72         14.3827
   376.86         14.1402
   377.00         14.0237
   377.14         14.0784
   377.28         14.3263
   377.42         14.7669
   377.56         15.3775
   377.70         16.1132
   377.84         16.9142
   377.98         17.7124
   378.12         18.4352
   378.26         19.0128
   378.40         19.3884
   378.54         19.5244
   378.68         19.4074
   378.82         19.0518
   378.96         18.4979
   379.10         17.8076
   379.24         17.0581
   379.38         16.3305
   379.52         15.6997
   379.66         15.2306
   379.80         14.9779
   379.94         14.9798
   380.08         15.2490
   380.22         15.7699
   380.36         16.5044
   380.50         17.3998
   380.64         18.3926
   380.78         19.4109
   380.92         20.3832
   381.06         21.2492
   381.20         21.9671
   381.34         22.5144
   381.48         22.8824
   381.62         23.0714
   381.76         23.0871
   381.90         22.9352
   382.04         22.6185
   382.18         22.1395
   382.32         21.5036
   382.46         20.7215
   382.60         19.8125
   382.74         18.8092
   382.88         17.7620
   383.02         16.7378
   383.16         15.8120
   383.30         15.0574
   383.44         14.5352
   383.58         14.2908
   383.72         14.3501
   383.86         14.7146
   384.00         15.3596
   384.14         16.2407
   384.28         17.3025
   384.42         18.4795
   384.56         19.6982
   384.70         20.8877
   384.84         21.9898
   384.98         22.9667
   385.12         23.8031
   385.26         24.5051
   385.40         25.0917
   385.54         25.5867
   385.68         26.0139
   385.82         26.3926
   385.96         26.7319
   386.10         27.0299
   386.24         27.2787
   386.38         27.4673
   386.52         27.5816
   386.66         27.6037
   386.80         27.5139
   386.94         27.2935
   387.08         26.9281
   387.22         26.4114
   387.36         25.7432
   387.50         24.9267
   387.64         23.9684
   387.78         22.8814
   387.92         21.6917
   388.06         20.4405
   388.20         19.1807
   388.34         17.9725
   388.48         16.8773
   388.62         15.9534
   388.76         15.2547
   388.90         14.8250
   389.04         14.6903
   389.18         14.8552
   389.32         15.3015
   389.46         15.9930
   389.60         16.8841
   389.74         17.9248
   389.88         19.0599
   390.02         20.2342
   390.16         21.4007
   390.30         22.5235
   390.44         23.5804
   390.58         24.5593
   390.72         25.4545
   390.86         26.2622
   391.00         26.9775
   391.14         27.5987
   391.28         28.1301
   391.42         28.5763
   391.56         28.9402
   391.70         29.2245
   391.84         29.4264
   391.98         29.5327
   392.12         29.5204
   392.26         29.3671
   392.40         29.0642
   392.54         28.6248
   392.68         28.0883
   392.82         27.5105
   392.96         26.9517
   393.10         26.4697
   393.24         26.1116
   393.38         25.9107
   393.52         25.8816
   393.66         26.0179
   393.80         26.2952
   393.94         26.6710
   394.08         27.0881
   394.22         27.4862
   394.36         27.8078
   394.50         27.9985
   394.64         28.0166
   394.78         27.8466
   394.92         27.5019
   395.06         27.0135
   395.20         26.4131
   395.34         25.7211
   395.48         24.9396
   395.62         24.0567
   395.76         23.0597
   395.90         21.9466
   396.04         20.7361
   396.18         19.4689
   396.32         18.2036
   396.46         17.0096
   396.60         15.9585
   396.74         15.1174
   396.88         14.5415
   397.02         14.2670
   397.16         14.3068
   397.30         14.6544
   397.44         15.2873
   397.58         16.1642
   397.72         17.2294
   397.86         18.4193
   398.00         19.6670
   398.14         20.9098
   398.28         22.0973
   398.42         23.1979
   398.56         24.1984
   398.70         25.0965
   398.84         25.8949
   398.98         26.5981
   399.12         27.2120
   399.26         27.7426
   399.40         28.1963
   399.54         28.5823
   399.68         28.9116
   399.82         29.1946
   399.96         29.4417
   400.10         29.6630
   400.24         29.8650
   400.38         30.0525
   400.52         30.2309
   400.66         30.4051
   400.80         30.5778
   400.94         30.7505
   401.08         30.9220
   401.22         31.0869
   401.36         31.2378
   401.50         31.3678
   401.64         31.4713
   401.78         31.5432
   401.92         31.5771
   402.06         31.5691
   402.20         31.5227
   402.34         31.4458
   402.48         31.3505
   402.62         31.2536
   402.76         31.1726
   402.90         31.1196
   403.04         31.1003
   403.18         31.1143
   403.32         31.1531
   403.46         31.2035
   403.60         31.2527
   403.74         31.2883
   403.88         31.3028
   404.02         31.2949
   404.16         31.2676
   404.30         31.2274
   404.44         31.1790
   404.58         31.1262
   404.72         31.0769
   404.86         31.0390
   405.00         31.0138
   405.14         30.9936
   405.28         30.9669
   405.42         30.9215
   405.56         30.8444
   405.70         30.7261
   405.84         30.5649
   405.98         30.3653
   406.12         30.1368
   406.26         29.8872
   406.40         29.6199
   406.54         29.3356
   406.68         29.0325
   406.82         28.7099
   406.96         28.3704
   407.10         28.0170
   407.24         27.6546
   407.38         27.2867
   407.52         26.9134
   407.66         26.5353
   407.80         26.1542
   407.94         25.7695
   408.08         25.3738
   408.22         24.9545
   408.36         24.4984
   408.50         23.9923
   408.64         23.4203
   408.78         22.7636
   408.92         22.0044
   409.06         21.1354
   409.20         20.1668
   409.34         19.1278
   409.48         18.0652
   409.62         17.0367
   409.76         16.1033
   409.90         15.3233
   410.04         14.7471
   410.18         14.4153
   410.32         14.3545
   410.46         14.5688
   410.60         15.0404
   410.74         15.7369
   410.88         16.6144
   411.02         17.6176
   411.16         18.6836
   411.30         19.7514
   411.44         20.7686
   411.58         21.6961
   411.72         22.5132
   411.86         23.2166
   412.00         23.8143
   412.14         24.3200
   412.28         24.7485
   412.42         25.1158
   412.56         25.4364
   412.70         25.7255
   412.84         26.0018
   412.98         26.2797
   413.12         26.5626
   413.26         26.8460
   413.40         27.1229
   413.54         27.3867
   413.68         27.6297
   413.82         27.8461
   413.96         28.0343
   414.10         28.1949
   414.24         28.3300
   414.38         28.4420
   414.52         28.5294
   414.66         28.5896
   414.80         28.6227
   414.94         28.6313
   415.08         28.6205
   415.22         28.5974
   415.36         28.5720
   415.50         28.5562
   415.64         28.5570
   415.78         28.5761
   415.92         28.6126
   416.06         28.6646
   416.20         28.7274
   416.34         28.7923
   416.48         28.8493
   416.62         28.8863
   416.76         28.8888
   416.90         28.8460
   417.04         28.7542
   417.18         28.6187
   417.32         28.4574
   417.46         28.2920
   417.60         28.1382
   417.74         28.0075
   417.88         27.9118
   418.02         27.8608
   418.16         27.8578
   418.30         27.8978
   418.44         27.9691
   418.58         28.0576
   418.72         28.1488
   418.86         28.2288
   419.00         28.2852
   419.14         28.3100
   419.28         28.3015
   419.42         28.2648
   419.56         28.2118
   419.70         28.1559
   419.84         28.1085
   419.98         28.0768
   420.12         28.0626
   420.26         28.0655
   420.40         28.0879
   420.54         28.1295
   420.68         28.1835
   420.82         28.2405
   420.96         28.2910
   421.10         28.3245
   421.24         28.3331
   421.38         28.3151
   421.52         28.2708
   421.66         28.2025
   421.80         28.1172
   421.94         28.0234
   422.08         27.9279
   422.22         27.8352
   422.36         27.7467
   422.50         27.6617
   422.64         27.5812
   422.78         27.5095
   422.92         27.4524
   423.06         27.4150
   423.20         27.4014
   423.34         27.4146
   423.48         27.4524
   423.62         27.5056
   423.76         27.5613
   423.90         27.6074
   424.04         27.6343
   424.18         27.6351
   424.32         27.6088
   424.46         27.5606
   424.60         27.4972
   424.74         27.4254
   424.88         27.3500
   425.02         27.2744
   425.16         27.2027
   425.30         27.1409
   425.44         27.0964
   425.58         27.0742
   425.72         27.0743
   425.86         27.0911
   426.00         27.1123
   426.14         27.1231
   426.28         27.1102
   426.42         27.0665
   426.56         26.9943
   426.70         26.9038
   426.84         26.8069
   426.98         26.7131
   427.12         26.6282
   427.26         26.5565
   427.40         26.5015
   427.54         26.4652
   427.68         26.4485
   427.82         26.4511
   427.96         26.4687
   428.10         26.4930
   428.24         26.5129
   428.38         26.5170
   428.52         26.4956
   428.66         26.4419
   428.80         26.3543
   428.94         26.2359
   429.08         26.0924
   429.22         25.9297
   429.36         25.7523
   429.50         25.5628
   429.64         25.3628
   429.78         25.1540
   429.92         24.9427
   430.06         24.7387
   430.20         24.5481
   430.34         24.3724
   430.48         24.2112
   430.62         24.0644
   430.76         23.9326
   430.90         23.8129
   431.04         23.6973
   431.18         23.5756
   431.32         23.4404
   431.46         23.2860
   431.60         23.1043
   431.74         22.8893
   431.88         22.6390
   432.02         22.3517
   432.16         22.0233
   432.30         21.6487
   432.44         21.2219
   432.58         20.7364
   432.72         20.1826
   432.86         19.5481
   433.00         18.8256
   433.14         18.0210
   433.28         17.1560
   433.42         16.2651
   433.56         15.3920
   433.70         14.5870
   433.84         13.9023
   433.98         13.3830
   434.12         13.0591
   434.26         12.9479
   434.40         13.0591
   434.54         13.3874
   434.68         13.9094
   434.82         14.5886
   434.96         15.3808
   435.10         16.2389
   435.24         17.1177
   435.38         17.9809
   435.52         18.8049
   435.66         19.5777
   435.80         20.2953
   435.94         20.9575
   436.08         21.5650
   436.22         22.1167
   436.36         22.6073
   436.50         23.0311
   436.64         23.3847
   436.78         23.6708
   436.92         23.8989
   437.06         24.0780
   437.20         24.2113
   437.34         24.3012
   437.48         24.3535
   437.62         24.3772
   437.76         24.3843
   437.90         24.3870
   438.04         24.3972
   438.18         24.4224
   438.32         24.4638
   438.46         24.5186
   438.60         24.5838
   438.74         24.6576
   438.88         24.7367
   439.02         24.8168
   439.16         24.8957
   439.30         24.9718
   439.44         25.0409
   439.58         25.0976
   439.72         25.1389
   439.86         25.1680
   440.00         25.1928
   440.14         25.2216
   440.28         25.2599
   440.42         25.3044
   440.56         25.3467
   440.70         25.3792
   440.84         25.3996
   440.98         25.4085
   441.12         25.4070
   441.26         25.3989
   441.40         25.3902
   441.54         25.3844
   441.68         25.3846
   441.82         25.3946
   441.96         25.4161
   442.10         25.4464
   442.24         25.4825
   442.38         25.5238
   442.52         25.5669
   442.66         25.6050
   442.80         25.6325
   442.94         25.6472
   443.08         25.6504
   443.22         25.6459
   443.36         25.6374
   443.50         25.6273
   443.64         25.6134
   443.78         25.5938
   443.92         25.5722
   444.06         25.5534
   444.20         25.5389
   444.34         25.5283
   444.48         25.5217
   444.62         25.5167
   444.76         25.5099
   444.90         25.5015
   445.04         25.4930
   445.18         25.4838
   445.32         25.4721
   445.46         25.4542
   445.60         25.4244
   445.74         25.3737
   445.88         25.2939
   446.02         25.1861
   446.16         25.0596
   446.30         24.9263
   446.44         24.7980
   446.58         24.6856
   446.72         24.5954
   446.86         24.5265
   447.00         24.4734
   447.14         24.4318
   447.28         24.3997
   447.42         24.3779
   447.56         24.3668
   447.70         24.3635
   447.84         24.3638
   447.98         24.3623
   448.12         24.3546
   448.26         24.3402
   448.40         24.3234
   448.54         24.3128
   448.68         24.3174
   448.82         24.3415
   448.96         24.3848
   449.10         24.4452
   449.24         24.5169
   449.38         24.5907
   449.52         24.6585
   449.66         24.7176
   449.80         24.7691
   449.94         24.8130
   450.08         24.8456
   450.22         24.8597
   450.36         24.8513
   450.50         24.8198
   450.64         24.7665
   450.78         24.6944
   450.92         24.6067
   451.06         24.5068
   451.20         24.3984
   451.34         24.2861
   451.48         24.1763
   451.62         24.0767
   451.76         23.9927
   451.90         23.9251
   452.04         23.8711
   452.18         23.8260
   452.32         23.7852
   452.46         23.7462
   452.60         23.7113
   452.74         23.6837
   452.88         23.6637
   453.02         23.6518
   453.16         23.6504
   453.30         23.6607
   453.44         23.6816
   453.58         23.7086
   453.72         23.7337
   453.86         23.7486
   454.00         23.7477
   454.14         23.7261
   454.28         23.6793
   454.42         23.6049
   454.56         23.5043
   454.70         23.3852
   454.84         23.2642
   454.98         23.1596
   455.12         23.0839
   455.26         23.0443
   455.40         23.0423
   455.54         23.0740
   455.68         23.1349
   455.82         23.2180
   455.96         23.3111
   456.10         23.4004
   456.24         23.4744
   456.38         23.5255
   456.52         23.5513
   456.66         23.5530
   456.80         23.5324
   456.94         23.4929
   457.08         23.4376
   457.22         23.3679
   457.36         23.2873
   457.50         23.2005
   457.64         23.1082
   457.78         23.0115
   457.92         22.9166
   458.06         22.8315
   458.20         22.7620
   458.34         22.7116
   458.48         22.6821
   458.62         22.6749
   458.76         22.6924
   458.90         22.7356
   459.04         22.8022
   459.18         22.8850
   459.32         22.9741
   459.46         23.0587
   459.60         23.1293
   459.74         23.1790
   459.88         23.2040
   460.02         23.2034
   460.16         23.1797
   460.30         23.1386
   460.44         23.0870
   460.58         23.0295
   460.72         22.9682
   460.86         22.9050
   461.00         22.8440
   461.14         22.7906
   461.28         22.7484
   461.42         22.7202
   461.56         22.7051
   461.70         22.6977
   461.84         22.6918
   461.98         22.6841
   462.12         22.6742
   462.26         22.6627
   462.40         22.6476
   462.54         22.6250
   462.68         22.5939
   462.82         22.5583
   462.96         22.5241
   463.10         22.4958
   463.24         22.4765
   463.38         22.4698
   463.52         22.4789
   463.66         22.5037
   463.80         22.5396
   463.94         22.5817
   464.08         22.6255
   464.22         22.6642
   464.36         22.6924
   464.50         22.7083
   464.64         22.7103
   464.78         22.6976
   464.92         22.6716
   465.06         22.6361
   465.20         22.5945
   465.34         22.5483
   465.48         22.5004
   465.62         22.4563
   465.76         22.4182
   465.90         22.3835
   466.04         22.3514
   466.18         22.3228
   466.32         22.2989
   466.46         22.2819
   466.60         22.2734
   466.74         22.2732
   466.88         22.2796
   467.02         22.2935
   467.16         22.3147
   467.30         22.3408
   467.44         22.3706
   467.58         22.4039
   467.72         22.4395
   467.86         22.4736
   468.00         22.5036
   468.14         22.5302
   468.28         22.5532
   468.42         22.5694
   468.56         22.5776
   468.70         22.5789
   468.84         22.5717
   468.98         22.5543
   469.12         22.5280
   469.26         22.4947
   469.40         22.4553
   469.54         22.4108
   469.68         22.3617
   469.82         22.3074
   469.96         22.2481
   470.10         22.1866
   470.24         22.1245
   470.38         22.0609
   470.52         21.9929
   470.66         21.9171
   470.80         21.8331
   470.94         21.7428
   471.08         21.6486
   471.22         21.5532
   471.36         21.4597
   471.50         21.3715
   471.64         21.2938
   471.78         21.2310
   471.92         21.1825
   472.06         21.1451
   472.20         21.1164
   472.34         21.0945
   472.48         21.0772
   472.62         21.0628
   472.76         21.0494
   472.90         21.0343
   473.04         21.0148
   473.18         20.9906
   473.32         20.9631
   473.46         20.9357
   473.60         20.9123
   473.74         20.8954
   473.88         20.8872
   474.02         20.8870
   474.16         20.8908
   474.30         20.8944
   474.44         20.8933
   474.58         20.8847
   474.72         20.8689
   474.86         20.8471
   475.00         20.8188
   475.14         20.7844
   475.28         20.7458
   475.42         20.7050
   475.56         20.6621
   475.70         20.6183
   475.84         20.5761
   475.98         20.5385
   476.12         20.5084
   476.26         20.4869
   476.40         20.4730
   476.54         20.4644
   476.68         20.4606
   476.82         20.4621
   476.96         20.4702
   477.10         20.4850
   477.24         20.5059
   477.38         20.5310
   477.52         20.5552
   477.66         20.5736
   477.80         20.5841
   477.94         20.5856
   478.08         20.5771
   478.22         20.5582
   478.36         20.5300
   478.50         20.4943
   478.64         20.4536
   478.78         20.4083
   478.92         20.3592
   479.06         20.3087
   479.20         20.2599
   479.34         20.2151
   479.48         20.1744
   479.62         20.1361
   479.76         20.0968
   479.90         20.0523
   480.04         19.9994
   480.18         19.9369
   480.32         19.8645
   480.46         19.7839
   480.60         19.6997
   480.74         19.6169
   480.88         19.5383
   481.02         19.4646
   481.16         19.3961
   481.30         19.3320
   481.44         19.2711
   481.58         19.2140
   481.72         19.1603
   481.86         19.1087
   482.00         19.0568
   482.14         19.0005
   482.28         18.9361
   482.42         18.8609
   482.56         18.7730
   482.70         18.6713
   482.84         18.5547
   482.98         18.4227
   483.12         18.2756
   483.26         18.1124
   483.40         17.9289
   483.54         17.7196
   483.68         17.4815
   483.82         17.2140
   483.96         16.9172
   484.10         16.5903
   484.24         16.2309
   484.38         15.8356
   484.52         15.4014
   484.66         14.9244
   484.80         14.4027
   484.94         13.8392
   485.08         13.2426
   485.22         12.6304
   485.36         12.0283
   485.50         11.4666
   485.64         10.9764
   485.78         10.5862
   485.92         10.3179
   486.06         10.1858
   486.20         10.1965
   486.34         10.3471
   486.48         10.6235
   486.62         11.0029
   486.76         11.4600
   486.90         11.9693
   487.04         12.5049
   487.18         13.0410
   487.32         13.5560
   487.46         14.0360
   487.60         14.4768
   487.74         14.8800
   487.88         15.2487
   488.02         15.5860
   488.16         15.8954
   488.30         16.1799
   488.44         16.4414
   488.58         16.6811
   488.72         16.8999
   488.86         17.0997
   489.00         17.2822
   489.14         17.4488
   489.28         17.6024
   489.42         17.7457
   489.56         17.8781
   489.70         17.9963
   489.84         18.0975
   489.98         18.1807
   490.12         18.2473
   490.26         18.2999
   490.40         18.3410
   490.54         18.3735
   490.68         18.4004
   490.82         18.4221
   490.96         18.4353
   491.10         18.4359
   491.24         18.4216
   491.38         18.3932
   491.52         18.3543
   491.66         18.3101
   491.80         18.2660
   491.94         18.2275
   492.08         18.1992
   492.22         18.1833
   492.36         18.1805
   492.50         18.1905
   492.64         18.2136
   492.78         18.2512
   492.92         18.3034
   493.06         18.3680
   493.20         18.4408
   493.34         18.5164
   493.48         18.5898
   493.62         18.6582
   493.76         18.7222
   493.90         18.7836
   494.04         18.8420
   494.18         18.8958
   494.32         18.9416
   494.46         18.9737
   494.60         18.9856
   494.74         18.9726
   494.88         18.9338
   495.02         18.8734
   495.16         18.7985
   495.30         18.7171
   495.44         18.6376
   495.58         18.5668
   495.72         18.5094
   495.86         18.4676
   496.00         18.4421
   496.14         18.4323
   496.28         18.4366
   496.42         18.4528
   496.56         18.4774
   496.70         18.5058
   496.84         18.5350
   496.98         18.5612
   497.12         18.5804
   497.26         18.5894
   497.40         18.5877
   497.54         18.5768
   497.68         18.5583
   497.82         18.5330
   497.96         18.5022
   498.10         18.4691
   498.24         18.4365
   498.38         18.4061
   498.52         18.3794
   498.66         18.3587
   498.80         18.3471
   498.94         18.3464
   499.08         18.3548
   499.22         18.3657
   499.36         18.3696
   499.50         18.3584
   499.64         18.3279
   499.78         18.2783
   499.92         18.2133
   500.06         18.1376
   500.20         18.0561
   500.34         17.9739
   500.48         17.8954
   500.62         17.8225
   500.76         17.7544
   500.90         17.6890
   501.04         17.6242
   501.18         17.5602
   501.32         17.4987
   501.46         17.4412
   501.60         17.3886
   501.74         17.3411
   501.88         17.3012
   502.02         17.2747
   502.16         17.2675
   502.30         17.2825
   502.44         17.3184
   502.58         17.3710
   502.72         17.4352
   502.86         17.5046
   503.00         17.5725
   503.14         17.6314
   503.28         17.6769
   503.42         17.7090
   503.56         17.7297
   503.70         17.7413
   503.84         17.7470
   503.98         17.7492
   504.12         17.7484
   504.26         17.7444
   504.40         17.7367
   504.54         17.7252
   504.68         17.7097
   504.82         17.6908
   504.96         17.6710
   505.10         17.6534
   505.24         17.6404
   505.38         17.6314
   505.52         17.6235
   505.66         17.6149
   505.80         17.6046
   505.94         17.5919
   506.08         17.5757
   506.22         17.5542
   506.36         17.5274
   506.50         17.4979
   506.64         17.4675
   506.78         17.4373
   506.92         17.4081
   507.06         17.3814
   507.20         17.3588
   507.34         17.3421
   507.48         17.3324
   507.62         17.3289
   507.76         17.3286
   507.90         17.3278
   508.04         17.3242
   508.18         17.3171
   508.32         17.3077
   508.46         17.2968
   508.60         17.2850
   508.74         17.2715
   508.88         17.2553
   509.02         17.2372
   509.16         17.2191
   509.30         17.2023
   509.44         17.1877
   509.58         17.1760
   509.72         17.1682
   509.86         17.1639
   510.00         17.1629
   510.14         17.1649
   510.28         17.1695
   510.42         17.1770
   510.56         17.1879
   510.70         17.2021
   510.84         17.2173
   510.98         17.2297
   511.12         17.2359
   511.26         17.2336
   511.40         17.2221
   511.54         17.2018
   511.68         17.1733
   511.82         17.1370
   511.96         17.0932
   512.10         17.0425
   512.24         16.9865
   512.38         16.9275
   512.52         16.8686
   512.66         16.8125
   512.80         16.7602
   512.94         16.7126
   513.08         16.6705
   513.22         16.6347
   513.36         16.6052
   513.50         16.5825
   513.64         16.5673
   513.78         16.5609
   513.92         16.5650
   514.06         16.5788
   514.20         16.5983
   514.34         16.6190
   514.48         16.6373
   514.62         16.6509
   514.76         16.6579
   514.90         16.6568
   515.04         16.6465
   515.18         16.6265
   515.32         16.5962
   515.46         16.5549
   515.60         16.5013
   515.74         16.4336
   515.88         16.3503
   516.02         16.2518
   516.16         16.1406
   516.30         16.0219
   516.44         15.9032
   516.58         15.7930
   516.72         15.6995
   516.86         15.6295
   517.00         15.5893
   517.14         15.5813
   517.28         15.6029
   517.42         15.6479
   517.56         15.7077
   517.70         15.7724
   517.84         15.8314
   517.98         15.8757
   518.12         15.8991
   518.26         15.8997
   518.40         15.8798
   518.54         15.8452
   518.68         15.8029
   518.82         15.7607
   518.96         15.7247
   519.10         15.6978
   519.24         15.6793
   519.38         15.6659
   519.52         15.6541
   519.66         15.6410
   519.80         15.6251
   519.94         15.6079
   520.08         15.5935
   520.22         15.5859
   520.36         15.5870
   520.50         15.5985
   520.64         15.6217
   520.78         15.6562
   520.92         15.7001
   521.06         15.7499
   521.20         15.8008
   521.34         15.8459
   521.48         15.8769
   521.62         15.8859
   521.76         15.8670
   521.90         15.8194
   522.04         15.7468
   522.18         15.6555
   522.32         15.5521
   522.46         15.4452
   522.60         15.3442
   522.74         15.2579
   522.88         15.1923
   523.02         15.1513
   523.16         15.1375
   523.30         15.1508
   523.44         15.1884
   523.58         15.2458
   523.72         15.3162
   523.86         15.3914
   524.00         15.4632
   524.14         15.5248
   524.28         15.5717
   524.42         15.6014
   524.56         15.6139
   524.70         15.6111
   524.84         15.5955
   524.98         15.5694
   525.12         15.5353
   525.26         15.4948
   525.40         15.4471
   525.54         15.3912
   525.68         15.3269
   525.82         15.2543
   525.96         15.1738
   526.10         15.0870
   526.24         14.9964
   526.38         14.9045
   526.52         14.8144
   526.66         14.7307
   526.80         14.6598
   526.94         14.6074
   527.08         14.5784
   527.22         14.5758
   527.36         14.5990
   527.50         14.6437
   527.64         14.7042
   527.78         14.7754
   527.92         14.8526
   528.06         14.9310
   528.20         15.0072
   528.34         15.0786
   528.48         15.1427
   528.62         15.1990
   528.76         15.2485
   528.90         15.2919
   529.04         15.3300
   529.18         15.3641
   529.32         15.3958
   529.46         15.4251
   529.60         15.4502
   529.74         15.4679
   529.88         15.4743
   530.02         15.4665
   530.16         15.4426
   530.30         15.4020
   530.44         15.3447
   530.58         15.2717
   530.72         15.1852
   530.86         15.0896
   531.00         14.9917
   531.14         14.8985
   531.28         14.8153
   531.42         14.7460
   531.56         14.6920
   531.70         14.6529
   531.84         14.6283
   531.98         14.6174
   532.12         14.6182
   532.26         14.6278
   532.40         14.6429
   532.54         14.6608
   532.68         14.6800
   532.82         14.6990
   532.96         14.7167
   533.10         14.7330
   533.24         14.7492
   533.38         14.7670
   533.52         14.7877
   533.66         14.8113
   533.80         14.8366
   533.94         14.8621
   534.08         14.8877
   534.22         14.9137
   534.36         14.9413
   534.50         14.9716
   534.64         15.0036
   534.78         15.0343
   534.92         15.0608
   535.06         15.0800
   535.20         15.0889
   535.34         15.0842
   535.48         15.0626
   535.62         15.0232
   535.76         14.9677
   535.90         14.8988
   536.04         14.8199
   536.18         14.7345
   536.32         14.6479
   536.46         14.5662
   536.60         14.4949
   536.74         14.4386
   536.88         14.3998
   537.02         14.3777
   537.16         14.3695
   537.30         14.3712
   537.44         14.3791
   537.58         14.3908
   537.72         14.4032
   537.86         14.4143
   538.00         14.4226
   538.14         14.4279
   538.28         14.4312
   538.42         14.4332
   538.56         14.4337
   538.70         14.4320
   538.84         14.4278
   538.98         14.4209
   539.12         14.4100
   539.26         14.3935
   539.40         14.3702
   539.54         14.3401
   539.68         14.3049
   539.82         14.2669
   539.96         14.2282
   540.10         14.1910
   540.24         14.1565
   540.38         14.1255
   540.52         14.0986
   540.66         14.0767
   540.80         14.0608
   540.94         14.0516
   541.08         14.0486
   541.22         14.0506
   541.36         14.0570
   541.50         14.0672
   541.64         14.0811
   541.78         14.0986
   541.92         14.1197
   542.06         14.1431
   542.20         14.1661
   542.34         14.1857
   542.48         14.1983
   542.62         14.2016
   542.76         14.1957
   542.90         14.1823
   543.04         14.1644
   543.18         14.1449
   543.32         14.1257
   543.46         14.1073
   543.60         14.0889
   543.74         14.0698
   543.88         14.0510
   544.02         14.0340
   544.16         14.0188
   544.30         14.0043
   544.44         13.9888
   544.58         13.9715
   544.72         13.9522
   544.86         13.9325
   545.00         13.9161
   545.14         13.9071
   545.28         13.9088
   545.42         13.9224
   545.56         13.9455
   545.70         13.9738
   545.84         14.0024
   545.98         14.0263
   546.12         14.0419
   546.26         14.0473
   546.40         14.0421
   546.54         14.0268
   546.68         14.0015
   546.82         13.9659
   546.96         13.9209
   547.10         13.8691
   547.24         13.8150
   547.38         13.7628
   547.52         13.7158
   547.66         13.6756
   547.80         13.6421
   547.94         13.6134
   548.08         13.5877
   548.22         13.5643
   548.36         13.5442
   548.50         13.5289
   548.64         13.5187
   548.78         13.5135
   548.92         13.5133
   549.06         13.5176
   549.20         13.5254
   549.34         13.5348
   549.48         13.5433
   549.62         13.5489
   549.76         13.5506
   549.90         13.5480
   550.04         13.5395
   550.18         13.5240
   550.32         13.5028
   550.46         13.4782
   550.60         13.4533
   550.74         13.4317
   550.88         13.4162
   551.02         13.4082
   551.16         13.4069
   551.30         13.4101
   551.44         13.4161
   551.58         13.4231
   551.72         13.4282
   551.86         13.4282
   552.00         13.4212
   552.14         13.4064
   552.28         13.3847
   552.42         13.3581
   552.56         13.3291
   552.70         13.2997
   552.84         13.2718
   552.98         13.2467
   553.12         13.2248
   553.26         13.2068
   553.40         13.1936
   553.54         13.1862
   553.68         13.1853
   553.82         13.1915
   553.96         13.2049
   554.10         13.2243
   554.24         13.2469
   554.38         13.2691
   554.52         13.2877
   554.66         13.3002
   554.80         13.3046
   554.94         13.3002
   555.08         13.2867
   555.22         13.2650
   555.36         13.2369
   555.50         13.2058
   555.64         13.1748
   555.78         13.1466
   555.92         13.1230
   556.06         13.1048
   556.20         13.0919
   556.34         13.0826
   556.48         13.0746
   556.62         13.0667
   556.76         13.0587
   556.90         13.0506
   557.04         13.0423
   557.18         13.0339
   557.32         13.0254
   557.46         13.0167
   557.60         13.0064
   557.74         12.9934
   557.88         12.9777
   558.02         12.9596
   558.16         12.9393
   558.30         12.9167
   558.44         12.8928
   558.58         12.8690
   558.72         12.8468
   558.86         12.8268
   559.00         12.8097
   559.14         12.7954
   559.28         12.7837
   559.42         12.7748
   559.56         12.7688
   559.70         12.7667
   559.84         12.7691
   559.98         12.7761
   560.12         12.7872
   560.26         12.8010
   560.40         12.8152
   560.54         12.8272
   560.68         12.8345
   560.82         12.8355
   560.96         12.8298
   561.10         12.8175
   561.24         12.7995
   561.38         12.7769
   561.52         12.7513
   561.66         12.7251
   561.80         12.7006
   561.94         12.6806
   562.08         12.6670
   562.22         12.6601
   562.36         12.6587
   562.50         12.6611
   562.64         12.6666
   562.78         12.6733
   562.92         12.6788
   563.06         12.6817
   563.20         12.6821
   563.34         12.6802
   563.48         12.6763
   563.62         12.6695
   563.76         12.6589
   563.90         12.6437
   564.04         12.6241
   564.18         12.6014
   564.32         12.5766
   564.46         12.5510
   564.60         12.5260
   564.74         12.5025
   564.88         12.4807
   565.02         12.4605
   565.16         12.4413
   565.30         12.4222
   565.44         12.4025
   565.58         12.3833
   565.72         12.3663
   565.86         12.3524
   566.00         12.3423
   566.14         12.3374
   566.28         12.3393
   566.42         12.3491
   566.56         12.3666
   566.70         12.3904
   566.84         12.4188
   566.98         12.4490
   567.12         12.4775
   567.26         12.5012
   567.40         12.5171
   567.54         12.5239
   567.68         12.5213
   567.82         12.5105
   567.96         12.4932
   568.10         12.4716
   568.24         12.4475
   568.38         12.4219
   568.52         12.3957
   568.66         12.3711
   568.80         12.3506
   568.94         12.3346
   569.08         12.3224
   569.22         12.3130
   569.36         12.3066
   569.50         12.3032
   569.64         12.3018
   569.78         12.3014
   569.92         12.3008
   570.06         12.2998
   570.20         12.2980
   570.34         12.2947
   570.48         12.2892
   570.62         12.2809
   570.76         12.2696
   570.90         12.2552
   571.04         12.2384
   571.18         12.2219
   571.32         12.2080
   571.46         12.1976
   571.60         12.1904
   571.74         12.1851
   571.88         12.1811
   572.02         12.1773
   572.16         12.1724
   572.30         12.1650
   572.44         12.1540
   572.58         12.1390
   572.72         12.1209
   572.86         12.1006
   573.00         12.0795
   573.14         12.0599
   573.28         12.0434
   573.42         12.0303
   573.56         12.0199
   573.70         12.0120
   573.84         12.0066
   573.98         12.0026
   574.12         11.9991
   574.26         11.9956
   574.40         11.9924
   574.54         11.9901
   574.68         11.9880
   574.82         11.9847
   574.96         11.9793
   575.10         11.9712
   575.24         11.9606
   575.38         11.9481
   575.52         11.9340
   575.66         11.9187
   575.80         11.9024
   575.94         11.8844
   576.08         11.8645
   576.22         11.8442
   576.36         11.8259
   576.50         11.8118
   576.64         11.8031
   576.78         11.7996
   576.92         11.8000
   577.06         11.8023
   577.20         11.8039
   577.34         11.8037
   577.48         11.8012
   577.62         11.7955
   577.76         11.7850
   577.90         11.7696
   578.04         11.7508
   578.18         11.7303
   578.32         11.7096
   578.46         11.6895
   578.60         11.6708
   578.74         11.6541
   578.88         11.6387
   579.02         11.6232
   579.16         11.6065
   579.30         11.5874
   579.44         11.5652
   579.58         11.5403
   579.72         11.5141
   579.86         11.4880
   580.00         11.4631
   580.14         11.4403
   580.28         11.4210
   580.42         11.4072
   580.56         11.4009
   580.70         11.4025
   580.84         11.4110
   580.98         11.4250
   581.12         11.4427
   581.26         11.4612
   581.40         11.4778
   581.54         11.4907
   581.68         11.5001
   581.82         11.5071
   581.96         11.5123
   582.10         11.5156
   582.24         11.5164
   582.38         11.5142
   582.52         11.5090
   582.66         11.5017
   582.80         11.4937
   582.94         11.4858
   583.08         11.4788
   583.22         11.4726
   583.36         11.4670
   583.50         11.4612
   583.64         11.4545
   583.78         11.4464
   583.92         11.4370
   584.06         11.4273
   584.20         11.4178
   584.34         11.4083
   584.48         11.3983
   584.62         11.3870
   584.76         11.3740
   584.90         11.3598
   585.04         11.3459
   585.18         11.3340
   585.32         11.3253
   585.46         11.3206
   585.60         11.3204
   585.74         11.3249
   585.88         11.3340
   586.02         11.3468
   586.16         11.3632
   586.30         11.3836
   586.44         11.4064
   586.58         11.4290
   586.72         11.4492
   586.86         11.4645
   587.00         11.4724
   587.14         11.4709
   587.28         11.4589
   587.42         11.4361
   587.56         11.4022
   587.70         11.3563
   587.84         11.2971
   587.98         11.2249
   588.12         11.1416
   588.26         11.0502
   588.40         10.9541
   588.54         10.8581
   588.68         10.7674
   588.82         10.6876
   588.96         10.6226
   589.10         10.5748
   589.24         10.5463
   589.38         10.5386
   589.52         10.5508
   589.66         10.5805
   589.80         10.6247
   589.94         10.6795
   590.08         10.7400
   590.22         10.8007
   590.36         10.8572
   590.50         10.9067
   590.64         10.9477
   590.78         10.9789
   590.92         10.9993
   591.06         11.0090
   591.20         11.0094
   591.34         11.0019
   591.48         10.9878
   591.62         10.9692
   591.76         10.9491
   591.90         10.9299
   592.04         10.9130
   592.18         10.8995
   592.32         10.8904
   592.46         10.8871
   592.60         10.8896
   592.74         10.8964
   592.88         10.9051
   593.02         10.9128
   593.16         10.9162
   593.30         10.9134
   593.44         10.9031
   593.58         10.8852
   593.72         10.8606
   593.86         10.8304
   594.00         10.7969
   594.14         10.7629
   594.28         10.7312
   594.42         10.7037
   594.56         10.6814
   594.70         10.6651
   594.84         10.6550
   594.98         10.6503
   595.12         10.6496
   595.26         10.6504
   595.40         10.6503
   595.54         10.6477
   595.68         10.6418
   595.82         10.6331
   595.96         10.6229
   596.10         10.6116
   596.24         10.5995
   596.38         10.5869
   596.52         10.5747
   596.66         10.5634
   596.80         10.5535
   596.94         10.5458
   597.08         10.5409
   597.22         10.5385
   597.36         10.5370
   597.50         10.5347
   597.64         10.5303
   597.78         10.5225
   597.92         10.5104
   598.06         10.4945
   598.20         10.4760
   598.34         10.4572
   598.48         10.4413
   598.62         10.4307
   598.76         10.4264
   598.90         10.4286
   599.04         10.4370
   599.18         10.4507
   599.32         10.4680
   599.46         10.4863
   599.60         10.5024
   599.74         10.5129
   599.88         10.5156
   600.02         10.5109
   600.16         10.5011
   600.30         10.4884
   600.44         10.4756
   600.58         10.4657
   600.72         10.4603
   600.86         10.4594
   601.00         10.4611
   601.14         10.4633
   601.28         10.4636
   601.42         10.4605
   601.56         10.4537
   601.70         10.4431
   601.84         10.4285
   601.98         10.4095
   602.12         10.3854
   602.26         10.3574
   602.40         10.3282
   602.54         10.3008
   602.68         10.2771
   602.82         10.2584
   602.96         10.2447
   603.10         10.2361
   603.24         10.2327
   603.38         10.2340
   603.52         10.2398
   603.66         10.2500
   603.80         10.2646
   603.94         10.2827
   604.08         10.3017
   604.22         10.3172
   604.36         10.3250
   604.50         10.3222
   604.64         10.3079
   604.78         10.2826
   604.92         10.2475
   605.06         10.2038
   605.20         10.1528
   605.34         10.0968
   605.48         10.0384
   605.62         9.9803
   605.76         9.9251
   605.90         9.8756
   606.04         9.8344
   606.18         9.8033
   606.32         9.7832
   606.46         9.7742
   606.60         9.7754
   606.74         9.7851
   606.88         9.8022
   607.02         9.8257
   607.16         9.8542
   607.30         9.8851
   607.44         9.9147
   607.58         9.9397
   607.72         9.9579
   607.86         9.9683
   608.00         9.9705
   608.14         9.9650
   608.28         9.9529
   608.42         9.9354
   608.56         9.9142
   608.70         9.8913
   608.84         9.8686
   608.98         9.8475
   609.12         9.8293
   609.26         9.8144
   609.40         9.8030
   609.54         9.7951
   609.68         9.7903
   609.82         9.7876
   609.96         9.7859
   610.10         9.7848
   610.24         9.7849
   610.38         9.7867
   610.52         9.7902
   610.66         9.7951
   610.80         9.8005
   610.94         9.8050
   611.08         9.8072
   611.22         9.8066
   611.36         9.8031
   611.50         9.7960
   611.64         9.7850
   611.78         9.7696
   611.92         9.7494
   612.06         9.7253
   612.20         9.6989
   612.34         9.6712
   612.48         9.6424
   612.62         9.6128
   612.76         9.5833
   612.90         9.5541
   613.04         9.5250
   613.18         9.4957
   613.32         9.4668
   613.46         9.4397
   613.60         9.4167
   613.74         9.4003
   613.88         9.3933
   614.02         9.3983
   614.16         9.4171
   614.30         9.4497
   614.44         9.4946
   614.58         9.5490
   614.72         9.6099
   614.86         9.6727
   615.00         9.7325
   615.14         9.7851
   615.28         9.8274
   615.42         9.8565
   615.56         9.8707
   615.70         9.8697
   615.84         9.8544
   615.98         9.8266
   616.12         9.7891
   616.26         9.7453
   616.40         9.6982
   616.54         9.6510
   616.68         9.6065
   616.82         9.5659
   616.96         9.5295
   617.10         9.4982
   617.24         9.4733
   617.38         9.4552
   617.52         9.4432
   617.66         9.4362
   617.80         9.4337
   617.94         9.4349
   618.08         9.4391
   618.22         9.4452
   618.36         9.4521
   618.50         9.4593
   618.64         9.4663
   618.78         9.4734
   618.92         9.4801
   619.06         9.4862
   619.20         9.4913
   619.34         9.4945
   619.48         9.4949
   619.62         9.4926
   619.76         9.4882
   619.90         9.4829
   620.04         9.4775
   620.18         9.4718
   620.32         9.4649
   620.46         9.4563
   620.60         9.4451
   620.74         9.4305
   620.88         9.4122
   621.02         9.3907
   621.16         9.3664
   621.30         9.3398
   621.44         9.3119
   621.58         9.2835
   621.72         9.2554
   621.86         9.2282
   622.00         9.2034
   622.14         9.1828
   622.28         9.1685
   622.42         9.1616
   622.56         9.1614
   622.70         9.1654
   622.84         9.1709
   622.98         9.1766
   623.12         9.1823
   623.26         9.1884
   623.40         9.1948
   623.54         9.2005
   623.68         9.2027
   623.82         9.1987
   623.96         9.1871
   624.10         9.1681
   624.24         9.1434
   624.38         9.1153
   624.52         9.0864
   624.66         9.0593
   624.80         9.0364
   624.94         9.0193
   625.08         9.0073
   625.22         8.9986
   625.36         8.9917
   625.50         8.9864
   625.64         8.9822
   625.78         8.9779
   625.92         8.9721
   626.06         8.9632
   626.20         8.9508
   626.34         8.9358
   626.48         8.9208
   626.62         8.9081
   626.76         8.8980
   626.90         8.8895
   627.04         8.8808
   627.18         8.8711
   627.32         8.8599
   627.46         8.8474
   627.60         8.8338
   627.74         8.8194
   627.88         8.8049
   628.02         8.7919
   628.16         8.7816
   628.30         8.7751
   628.44         8.7729
   628.58         8.7755
   628.72         8.7834
   628.86         8.7960
   629.00         8.8119
   629.14         8.8284
   629.28         8.8424
   629.42         8.8515
   629.56         8.8551
   629.70         8.8533
   629.84         8.8471
   629.98         8.8378
   630.12         8.8269
   630.26         8.8158
   630.40         8.8054
   630.54         8.7958
   630.68         8.7874
   630.82         8.7805
   630.96         8.7755
   631.10         8.7732
   631.24         8.7739
   631.38         8.7768
   631.52         8.7812
   631.66         8.7864
   631.80         8.7915
   631.94         8.7959
   632.08         8.7999
   632.22         8.8040
   632.36         8.8083
   632.50         8.8127
   632.64         8.8166
   632.78         8.8184
   632.92         8.8165
   633.06         8.8099
   633.20         8.7981
   633.34         8.7812
   633.48         8.7604
   633.62         8.7365
   633.76         8.7099
   633.90         8.6805
   634.04         8.6494
   634.18         8.6187
   634.32         8.5908
   634.46         8.5676
   634.60         8.5502
   634.74         8.5399
   634.88         8.5372
   635.02         8.5420
   635.16         8.5525
   635.30         8.5659
   635.44         8.5799
   635.58         8.5929
   635.72         8.6036
   635.86         8.6111
   636.00         8.6143
   636.14         8.6123
   636.28         8.6043
   636.42         8.5910
   636.56         8.5745
   636.70         8.5573
   636.84         8.5408
   636.98         8.5251
   637.12         8.5106
   637.26         8.4972
   637.40         8.4854
   637.54         8.4756
   637.68         8.4678
   637.82         8.4620
   637.96         8.4581
   638.10         8.4560
   638.24         8.4551
   638.38         8.4543
   638.52         8.4529
   638.66         8.4507
   638.80         8.4482
   638.94         8.4462
   639.08         8.4457
   639.22         8.4465
   639.36         8.4479
   639.50         8.4486
   639.64         8.4481
   639.78         8.4455
   639.92         8.4399
   640.06         8.4307
   640.20         8.4184
   640.34         8.4035
   640.48         8.3867
   640.62         8.3691
   640.76         8.3521
   640.90         8.3371
   641.04         8.3252
   641.18         8.3173
   641.32         8.3127
   641.46         8.3098
   641.60         8.3073
   641.74         8.3048
   641.88         8.3026
   642.02         8.3012
   642.16         8.3007
   642.30         8.3008
   642.44         8.3015
   642.58         8.3033
   642.72         8.3061
   642.86         8.3090
   643.00         8.3102
   643.14         8.3085
   643.28         8.3033
   643.42         8.2950
   643.56         8.2839
   643.70         8.2710
   643.84         8.2572
   643.98         8.2437
   644.12         8.2321
   644.26         8.2236
   644.40         8.2177
   644.54         8.2125
   644.68         8.2051
   644.82         8.1939
   644.96         8.1790
   645.10         8.1614
   645.24         8.1419
   645.38         8.1216
   645.52         8.1028
   645.66         8.0884
   645.80         8.0814
   645.94         8.0833
   646.08         8.0944
   646.22         8.1128
   646.36         8.1360
   646.50         8.1614
   646.64         8.1862
   646.78         8.2081
   646.92         8.2249
   647.06         8.2355
   647.20         8.2401
   647.34         8.2403
   647.48         8.2382
   647.62         8.2352
   647.76         8.2322
   647.90         8.2296
   648.04         8.2281
   648.18         8.2274
   648.32         8.2258
   648.46         8.2206
   648.60         8.2096
   648.74         8.1907
   648.88         8.1633
   649.02         8.1290
   649.16         8.0905
   649.30         8.0510
   649.44         8.0135
   649.58         7.9800
   649.72         7.9519
   649.86         7.9294
   650.00         7.9127
   650.14         7.9013
   650.28         7.8941
   650.42         7.8891
   650.56         7.8837
   650.70         7.8753
   650.84         7.8619
   650.98         7.8432
   651.12         7.8203
   651.26         7.7959
   651.40         7.7727
   651.54         7.7530
   651.68         7.7377
   651.82         7.7266
   651.96         7.7188
   652.10         7.7128
   652.24         7.7068
   652.38         7.6991
   652.52         7.6884
   652.66         7.6737
   652.80         7.6540
   652.94         7.6294
   653.08         7.6010
   653.22         7.5698
   653.36         7.5361
   653.50         7.4991
   653.64         7.4575
   653.78         7.4098
   653.92         7.3545
   654.06         7.2906
   654.20         7.2174
   654.34         7.1347
   654.48         7.0425
   654.62         6.9404
   654.76         6.8278
   654.90         6.7034
   655.04         6.5652
   655.18         6.4111
   655.32         6.2407
   655.46         6.0571
   655.60         5.8667
   655.74         5.6784
   655.88         5.5022
   656.02         5.3484
   656.16         5.2278
   656.30         5.1499
   656.44         5.1214
   656.58         5.1447
   656.72         5.2175
   656.86         5.3330
   657.00         5.4813
   657.14         5.6511
   657.28         5.8312
   657.42         6.0115
   657.56         6.1837
   657.70         6.3423
   657.84         6.4856
   657.98         6.6146
   658.12         6.7314
   658.26         6.8379
   658.40         6.9350
   658.54         7.0228
   658.68         7.1010
   658.82         7.1693
   658.96         7.2279
   659.10         7.2767
   659.24         7.3164
   659.38         7.3484
   659.52         7.3744
   659.66         7.3966
   659.80         7.4167
   659.94         7.4356
   660.08         7.4539
   660.22         7.4717
   660.36         7.4890
   660.50         7.5052
   660.64         7.5198
   660.78         7.5325
   660.92         7.5432
   661.06         7.5515
   661.20         7.5580
   661.34         7.5632
   661.48         7.5682
   661.62         7.5744
   661.76         7.5832
   661.90         7.5953
   662.04         7.6100
   662.18         7.6261
   662.32         7.6422
   662.46         7.6575
   662.60         7.6718
   662.74         7.6850
   662.88         7.6966
   663.02         7.7053
   663.16         7.7100
   663.30         7.7103
   663.44         7.7064
   663.58         7.6995
   663.72         7.6920
   663.86         7.6860
   664.00         7.6829
   664.14         7.6829
   664.28         7.6857
   664.42         7.6901
   664.56         7.6942
   664.70         7.6967
   664.84         7.6973
   664.98         7.6965
   665.12         7.6941
   665.26         7.6900
   665.40         7.6843
   665.54         7.6768
   665.68         7.6680
   665.82         7.6584
   665.96         7.6486
   666.10         7.6391
   666.24         7.6305
   666.38         7.6228
   666.52         7.6151
   666.66         7.6064
   666.80         7.5963
   666.94         7.5852
   667.08         7.5737
   667.22         7.5622
   667.36         7.5508
   667.50         7.5401
   667.64         7.5313
   667.78         7.5259
   667.92         7.5255
   668.06         7.5303
   668.20         7.5397
   668.34         7.5523
   668.48         7.5665
   668.62         7.5805
   668.76         7.5928
   668.90         7.6029
   669.04         7.6109
   669.18         7.6168
   669.32         7.6206
   669.46         7.6225
   669.60         7.6225
   669.74         7.6200
   669.88         7.6143
   670.02         7.6058
   670.16         7.5958
   670.30         7.5851
   670.44         7.5738
   670.58         7.5615
   670.72         7.5481
   670.86         7.5337
   671.00         7.5183
   671.14         7.5022
   671.28         7.4853
   671.42         7.4681
   671.56         7.4512
   671.70         7.4349
   671.84         7.4189
   671.98         7.4028
   672.12         7.3869
   672.26         7.3716
   672.40         7.3572
   672.54         7.3440
   672.68         7.3329
   672.82         7.3245
   672.96         7.3192
   673.10         7.3172
   673.24         7.3183
   673.38         7.3218
   673.52         7.3264
   673.66         7.3309
   673.80         7.3348
   673.94         7.3381
   674.08         7.3412
   674.22         7.3436
   674.36         7.3447
   674.50         7.3432
   674.64         7.3384
   674.78         7.3298
   674.92         7.3182
   675.06         7.3048
   675.20         7.2913
   675.34         7.2793
   675.48         7.2705
   675.62         7.2657
   675.76         7.2644
   675.90         7.2654
   676.04         7.2673
   676.18         7.2686
   676.32         7.2686
   676.46         7.2675
   676.60         7.2653
   676.74         7.2622
   676.88         7.2583
   677.02         7.2541
   677.16         7.2504
   677.30         7.2483
   677.44         7.2490
   677.58         7.2535
   677.72         7.2620
   677.86         7.2740
   678.00         7.2891
   678.14         7.3056
   678.28         7.3210
   678.42         7.3327
   678.56         7.3397
   678.70         7.3417
   678.84         7.3387
   678.98         7.3313
   679.12         7.3204
   679.26         7.3068
   679.40         7.2916
   679.54         7.2763
   679.68         7.2627
   679.82         7.2528
   679.96         7.2482
   680.10         7.2496
   680.24         7.2564
   680.38         7.2668
   680.52         7.2788
   680.66         7.2901
   680.80         7.2991
   680.94         7.3044
   681.08         7.3062
   681.22         7.3049
   681.36         7.3010
   681.50         7.2944
   681.64         7.2853
   681.78         7.2741
   681.92         7.2608
   682.06         7.2456
   682.20         7.2290
   682.34         7.2113
   682.48         7.1938
   682.62         7.1783
   682.76         7.1664
   682.90         7.1588
   683.04         7.1555
   683.18         7.1565
   683.32         7.1620
   683.46         7.1711
   683.60         7.1821
   683.74         7.1925
   683.88         7.2003
   684.02         7.2038
   684.16         7.2015
   684.30         7.1934
   684.44         7.1802
   684.58         7.1628
   684.72         7.1424
   684.86         7.1205
   685.00         7.0988
   685.14         7.0786
   685.28         7.0598
   685.42         7.0418
   685.56         7.0225
   685.70         6.9974
   685.84         6.9608
   685.98         6.9069
   686.12         6.8316
   686.26         6.7332
   686.40         6.6133
   686.54         6.4769
   686.68         6.3317
   686.82         6.1871
   686.96         6.0545
   687.10         5.9450
   687.24         5.8675
   687.38         5.8277
   687.52         5.8271
   687.66         5.8619
   687.80         5.9249
   687.94         6.0064
   688.08         6.0955
   688.22         6.1805
   688.36         6.2510
   688.50         6.3016
   688.64         6.3318
   688.78         6.3444
   688.92         6.3440
   689.06         6.3358
   689.20         6.3252
   689.34         6.3165
   689.48         6.3119
   689.62         6.3131
   689.76         6.3206
   689.90         6.3331
   690.04         6.3484
   690.18         6.3651
   690.32         6.3827
   690.46         6.4020
   690.60         6.4241
   690.74         6.4496
   690.88         6.4779
   691.02         6.5084
   691.16         6.5407
   691.30         6.5734
   691.44         6.6051
   691.58         6.6344
   691.72         6.6603
   691.86         6.6820
   692.00         6.6992
   692.14         6.7132
   692.28         6.7262
   692.42         6.7394
   692.56         6.7529
   692.70         6.7668
   692.84         6.7813
   692.98         6.7957
   693.12         6.8094
   693.26         6.8216
   693.40         6.8321
   693.54         6.8415
   693.68         6.8502
   693.82         6.8581
   693.96         6.8642
   694.10         6.8685
   694.24         6.8718
   694.38         6.8742
   694.52         6.8748
   694.66         6.8726
   694.80         6.8677
   694.94         6.8605
   695.08         6.8506
   695.22         6.8379
   695.36         6.8231
   695.50         6.8076
   695.64         6.7935
   695.78         6.7828
   695.92         6.7768
   696.06         6.7761
   696.20         6.7809
   696.34         6.7907
   696.48         6.8049
   696.62         6.8229
   696.76         6.8437
   696.90         6.8659
   697.04         6.8874
   697.18         6.9067
   697.32         6.9239
   697.46         6.9396
   697.60         6.9533
   697.74         6.9638
   697.88         6.9707
   698.02         6.9739
   698.16         6.9732
   698.30         6.9683
   698.44         6.9593
   698.58         6.9472
   698.72         6.9333
   698.86         6.9189
   699.00         6.9039
   699.14         6.8879
   699.28         6.8707
   699.42         6.8522
   699.56         6.8326
   699.70         6.8129
   699.84         6.7946
   699.98         6.7792
   700.12         6.7671
   700.26         6.7585
   700.40         6.7541
   700.54         6.7544
   700.68         6.7596
   700.82         6.7696
   700.96         6.7836
   701.10         6.8001
   701.24         6.8171
   701.38         6.8312
   701.52         6.8390
   701.66         6.8380
   701.80         6.8275
   701.94         6.8081
   702.08         6.7815
   702.22         6.7506
   702.36         6.7191
   702.50         6.6901
   702.64         6.6661
   702.78         6.6488
   702.92         6.6384
   703.06         6.6345
   703.20         6.6360
   703.34         6.6418
   703.48         6.6501
   703.62         6.6590
   703.76         6.6667
   703.90         6.6721
   704.04         6.6743
   704.18         6.6731
   704.32         6.6689
   704.46         6.6625
   704.60         6.6551
   704.74         6.6482
   704.88         6.6426
   705.02         6.6389
   705.16         6.6377
   705.30         6.6390
   705.44         6.6422
   705.58         6.6463
   705.72         6.6511
   705.86         6.6562
   706.00         6.6609
   706.14         6.6645
   706.28         6.6670
   706.42         6.6691
   706.56         6.6712
   706.70         6.6731
   706.84         6.6737
   706.98         6.6729
   707.12         6.6718
   707.26         6.6721
   707.40         6.6749
   707.54         6.6803
   707.68         6.6879
   707.82         6.6967
   707.96         6.7054
   708.10         6.7124
   708.24         6.7166
   708.38         6.7164
   708.52         6.7108
   708.66         6.6999
   708.80         6.6849
   708.94         6.6672
   709.08         6.6479
   709.22         6.6283
   709.36         6.6101
   709.50         6.5948
   709.64         6.5834
   709.78         6.5766
   709.92         6.5748
   710.06         6.5774
   710.20         6.5833
   710.34         6.5914
   710.48         6.6009
   710.62         6.6114
   710.76         6.6228
   710.90         6.6345
   711.04         6.6457
   711.18         6.6565
   711.32         6.6668
   711.46         6.6763
   711.60         6.6847
   711.74         6.6912
   711.88         6.6948
   712.02         6.6941
   712.16         6.6881
   712.30         6.6778
   712.44         6.6656
   712.58         6.6535
   712.72         6.6419
   712.86         6.6299
   713.00         6.6165
   713.14         6.6024
   713.28         6.5888
   713.42         6.5765
   713.56         6.5656
   713.70         6.5561
   713.84         6.5483
   713.98         6.5420
   714.12         6.5366
   714.26         6.5314
   714.40         6.5257
   714.54         6.5205
   714.68         6.5176
   714.82         6.5190
   714.96         6.5254
   715.10         6.5360
   715.24         6.5487
   715.38         6.5608
   715.52         6.5702
   715.66         6.5758
   715.80         6.5768
   715.94         6.5708
   716.08         6.5549
   716.22         6.5276
   716.36         6.4892
   716.50         6.4412
   716.64         6.3862
   716.78         6.3273
   716.92         6.2689
   717.06         6.2154
   717.20         6.1694
   717.34         6.1304
   717.48         6.0962
   717.62         6.0642
   717.76         6.0334
   717.90         6.0037
   718.04         5.9743
   718.18         5.9449
   718.32         5.9158
   718.46         5.8889
   718.60         5.8661
   718.74         5.8495
   718.88         5.8399
   719.02         5.8378
   719.16         5.8421
   719.30         5.8512
   719.44         5.8634
   719.58         5.8773
   719.72         5.8920
   719.86         5.9068
   720.00         5.9217
   720.14         5.9379
   720.28         5.9576
   720.42         5.9823
   720.56         6.0116
   720.70         6.0449
   720.84         6.0820
   720.98         6.1227
   721.12         6.1653
   721.26         6.2066
   721.40         6.2435
   721.54         6.2739
   721.68         6.2970
   721.82         6.3136
   721.96         6.3250
   722.10         6.3326
   722.24         6.3364
   722.38         6.3353
   722.52         6.3279
   722.66         6.3140
   722.80         6.2938
   722.94         6.2675
   723.08         6.2361
   723.22         6.2019
   723.36         6.1673
   723.50         6.1346
   723.64         6.1060
   723.78         6.0836
   723.92         6.0687
   724.06         6.0621
   724.20         6.0622
   724.34         6.0668
   724.48         6.0734
   724.62         6.0791
   724.76         6.0808
   724.90         6.0774
   725.04         6.0702
   725.18         6.0623
   725.32         6.0556
   725.46         6.0509
   725.60         6.0494
   725.74         6.0529
   725.88         6.0622
   726.02         6.0762
   726.16         6.0929
   726.30         6.1097
   726.44         6.1238
   726.58         6.1327
   726.72         6.1339
   726.86         6.1269
   727.00         6.1136
   727.14         6.0966
   727.28         6.0793
   727.42         6.0647
   727.56         6.0550
   727.70         6.0512
   727.84         6.0530
   727.98         6.0586
   728.12         6.0661
   728.26         6.0746
   728.40         6.0818
   728.54         6.0854
   728.68         6.0833
   728.82         6.0744
   728.96         6.0581
   729.10         6.0344
   729.24         6.0041
   729.38         5.9692
   729.52         5.9338
   729.66         5.9022
   729.80         5.8776
   729.94         5.8613
   730.08         5.8525
   730.22         5.8504
   730.36         5.8539
   730.50         5.8612
   730.64         5.8703
   730.78         5.8797
   730.92         5.8887
   731.06         5.8969
   731.20         5.9044
   731.34         5.9112
   731.48         5.9175
   731.62         5.9240
   731.76         5.9314
   731.90         5.9402
   732.04         5.9501
   732.18         5.9604
   732.32         5.9693
   732.46         5.9736
   732.60         5.9701
   732.74         5.9573
   732.88         5.9363
   733.02         5.9095
   733.16         5.8789
   733.30         5.8465
   733.44         5.8153
   733.58         5.7885
   733.72         5.7691
   733.86         5.7589
   734.00         5.7587
   734.14         5.7685
   734.28         5.7871
   734.42         5.8121
   734.56         5.8410
   734.70         5.8711
   734.84         5.9004
   734.98         5.9268
   735.12         5.9485
   735.26         5.9644
   735.40         5.9742
   735.54         5.9781
   735.68         5.9753
   735.82         5.9649
   735.96         5.9470
   736.10         5.9238
   736.24         5.8982
   736.38         5.8724
   736.52         5.8482
   736.66         5.8265
   736.80         5.8081
   736.94         5.7931
   737.08         5.7815
   737.22         5.7727
   737.36         5.7654
   737.50         5.7577
   737.64         5.7485
   737.78         5.7380
   737.92         5.7265
   738.06         5.7141
   738.20         5.7011
   738.34         5.6880
   738.48         5.6750
   738.62         5.6628
   738.76         5.6524
   738.90         5.6452
   739.04         5.6416
   739.18         5.6414
   739.32         5.6434
   739.46         5.6466
   739.60         5.6495
   739.74         5.6506
   739.88         5.6480
   740.02         5.6416
   740.16         5.6324
   740.30         5.6221
   740.44         5.6121
   740.58         5.6029
   740.72         5.5944
   740.86         5.5865
   741.00         5.5785
   741.14         5.5695
   741.28         5.5601
   741.42         5.5508
   741.56         5.5417
   741.70         5.5319
   741.84         5.5203
   741.98         5.5067
   742.12         5.4916
   742.26         5.4749
   742.40         5.4574
   742.54         5.4409
   742.68         5.4281
   742.82         5.4212
   742.96         5.4212
   743.10         5.4281
   743.24         5.4409
   743.38         5.4574
   743.52         5.4749
   743.66         5.4916
   743.80         5.5067
   743.94         5.5203
   744.08         5.5319
   744.22         5.5417
