# File HD12323
# Wavelength [nm]    Normalized Amplitude
   349.70         84.1185
   349.84         84.3854
   349.98         84.5974
   350.12         84.7528
   350.26         84.8550
   350.40         84.9114
   350.54         84.9322
   350.68         84.9298
   350.82         84.9177
   350.96         84.9059
   351.10         84.9010
   351.24         84.9059
   351.38         84.9177
   351.52         84.9298
   351.66         84.9322
   351.80         84.9114
   351.94         84.8550
   352.08         84.7528
   352.22         84.5974
   352.36         84.3854
   352.50         84.1185
   352.64         83.8007
   352.78         83.4409
   352.92         83.0577
   353.06         82.6759
   353.20         82.3174
   353.34         81.9982
   353.48         81.7275
   353.62         81.5035
   353.76         81.3177
   353.90         81.1633
   354.04         81.0377
   354.18         80.9360
   354.32         80.8442
   354.46         80.7443
   354.60         80.6211
   354.74         80.4625
   354.88         80.2614
   355.02         80.0181
   355.16         79.7391
   355.30         79.4363
   355.44         79.1288
   355.58         78.8376
   355.72         78.5767
   355.86         78.3472
   356.00         78.1419
   356.14         77.9491
   356.28         77.7556
   356.42         77.5541
   356.56         77.3421
   356.70         77.1114
   356.84         76.8478
   356.98         76.5406
   357.12         76.1910
   357.26         75.8068
   357.40         75.3914
   357.54         74.9442
   357.68         74.4683
   357.82         73.9763
   357.96         73.4874
   358.10         73.0217
   358.24         72.5985
   358.38         72.2308
   358.52         71.9249
   358.66         71.6861
   358.80         71.5189
   358.94         71.4265
   359.08         71.4092
   359.22         71.4617
   359.36         71.5730
   359.50         71.7302
   359.64         71.9163
   359.78         72.1071
   359.92         72.2735
   360.06         72.3899
   360.20         72.4448
   360.34         72.4419
   360.48         72.3912
   360.62         72.3024
   360.76         72.1856
   360.90         72.0516
   361.04         71.9099
   361.18         71.7714
   361.32         71.6489
   361.46         71.5535
   361.60         71.4911
   361.74         71.4578
   361.88         71.4405
   362.02         71.4233
   362.16         71.3911
   362.30         71.3328
   362.44         71.2422
   362.58         71.1204
   362.72         70.9743
   362.86         70.8119
   363.00         70.6401
   363.14         70.4669
   363.28         70.3046
   363.42         70.1678
   363.56         70.0733
   363.70         70.0358
   363.84         70.0642
   363.98         70.1609
   364.12         70.3217
   364.26         70.5343
   364.40         70.7818
   364.54         71.0481
   364.68         71.3185
   364.82         71.5786
   364.96         71.8126
   365.10         72.0033
   365.24         72.1380
   365.38         72.2113
   365.52         72.2216
   365.66         72.1713
   365.80         72.0705
   365.94         71.9340
   366.08         71.7752
   366.22         71.6066
   366.36         71.4384
   366.50         71.2791
   366.64         71.1359
   366.78         71.0135
   366.92         70.9125
   367.06         70.8326
   367.20         70.7714
   367.34         70.7231
   367.48         70.6789
   367.62         70.6303
   367.76         70.5752
   367.90         70.5170
   368.04         70.4585
   368.18         70.4003
   368.32         70.3432
   368.46         70.2890
   368.60         70.2359
   368.74         70.1783
   368.88         70.1099
   369.02         70.0241
   369.16         69.9122
   369.30         69.7625
   369.44         69.5616
   369.58         69.3011
   369.72         68.9806
   369.86         68.6063
   370.00         68.1909
   370.14         67.7551
   370.28         67.3266
   370.42         66.9329
   370.56         66.5943
   370.70         66.3251
   370.84         66.1348
   370.98         66.0249
   371.12         65.9895
   371.26         66.0180
   371.40         66.0961
   371.54         66.2070
   371.68         66.3295
   371.82         66.4371
   371.96         66.5046
   372.10         66.5182
   372.24         66.4738
   372.38         66.3722
   372.52         66.2190
   372.66         66.0301
   372.80         65.8329
   372.94         65.6593
   373.08         65.5365
   373.22         65.4819
   373.36         65.4994
   373.50         65.5754
   373.64         65.6834
   373.78         65.7880
   373.92         65.8442
   374.06         65.8012
   374.20         65.6210
   374.34         65.2945
   374.48         64.8412
   374.62         64.3013
   374.76         63.7280
   374.90         63.1783
   375.04         62.7071
   375.18         62.3633
   375.32         62.1823
   375.46         62.1734
   375.60         62.3085
   375.74         62.5282
   375.88         62.7585
   376.02         62.9257
   376.16         62.9718
   376.30         62.8696
   376.44         62.6272
   376.58         62.2886
   376.72         61.9294
   376.86         61.6457
   377.00         61.5303
   377.14         61.6473
   377.28         62.0232
   377.42         62.6496
   377.56         63.4879
   377.70         64.4748
   377.84         65.5282
   377.98         66.5531
   378.12         67.4471
   378.26         68.1126
   378.40         68.4710
   378.54         68.4731
   378.68         68.1099
   378.82         67.4205
   378.96         66.4853
   379.10         65.4118
   379.24         64.3194
   379.38         63.3254
   379.52         62.5335
   379.66         62.0223
   379.80         61.8358
   379.94         61.9833
   380.08         62.4434
   380.22         63.1669
   380.36         64.0775
   380.50         65.0743
   380.64         66.0423
   380.78         66.8731
   380.92         67.4885
   381.06         67.8535
   381.20         67.9802
   381.34         67.9188
   381.48         67.7368
   381.62         67.4960
   381.76         67.2389
   381.90         66.9829
   382.04         66.7194
   382.18         66.4137
   382.32         66.0167
   382.46         65.4854
   382.60         64.8030
   382.74         63.9864
   382.88         63.0829
   383.02         62.1592
   383.16         61.2940
   383.30         60.5725
   383.44         60.0778
   383.58         59.8736
   383.72         59.9899
   383.86         60.4187
   384.00         61.1161
   384.14         62.0100
   384.28         63.0091
   384.42         64.0159
   384.56         64.9431
   384.70         65.7236
   384.84         66.3177
   384.98         66.7192
   385.12         66.9519
   385.26         67.0560
   385.40         67.0714
   385.54         67.0261
   385.68         66.9357
   385.82         66.8091
   385.96         66.6542
   386.10         66.4815
   386.24         66.3025
   386.38         66.1266
   386.52         65.9573
   386.66         65.7906
   386.80         65.6180
   386.94         65.4276
   387.08         65.2030
   387.22         64.9220
   387.36         64.5538
   387.50         64.0588
   387.64         63.3990
   387.78         62.5546
   387.92         61.5357
   388.06         60.3853
   388.20         59.1755
   388.34         57.9977
   388.48         56.9485
   388.62         56.1165
   388.76         55.5740
   388.90         55.3685
   389.04         55.5165
   389.18         56.0015
   389.32         56.7754
   389.46         57.7629
   389.60         58.8694
   389.74         59.9945
   389.88         61.0477
   390.02         61.9587
   390.16         62.6841
   390.30         63.2121
   390.44         63.5576
   390.58         63.7478
   390.72         63.8116
   390.86         63.7720
   391.00         63.6446
   391.14         63.4391
   391.28         63.1649
   391.42         62.8343
   391.56         62.4613
   391.70         62.0595
   391.84         61.6414
   391.98         61.2180
   392.12         60.7989
   392.26         60.3944
   392.40         60.0173
   392.54         59.6827
   392.68         59.4039
   392.82         59.1904
   392.96         59.0497
   393.10         58.9883
   393.24         59.0084
   393.38         59.1038
   393.52         59.2612
   393.66         59.4634
   393.80         59.6896
   393.94         59.9172
   394.08         60.1259
   394.22         60.2969
   394.36         60.4140
   394.50         60.4658
   394.64         60.4463
   394.78         60.3559
   394.92         60.1979
   395.06         59.9722
   395.20         59.6717
   395.34         59.2810
   395.48         58.7750
   395.62         58.1213
   395.76         57.2894
   395.90         56.2652
   396.04         55.0680
   396.18         53.7547
   396.32         52.4104
   396.46         51.1358
   396.60         50.0352
   396.74         49.2042
   396.88         48.7154
   397.02         48.6083
   397.16         48.8855
   397.30         49.5133
   397.44         50.4254
   397.58         51.5323
   397.72         52.7340
   397.86         53.9320
   398.00         55.0378
   398.14         55.9801
   398.28         56.7128
   398.42         57.2230
   398.56         57.5307
   398.70         57.6766
   398.84         57.7057
   398.98         57.6579
   399.12         57.5638
   399.26         57.4433
   399.40         57.3082
   399.54         57.1627
   399.68         57.0048
   399.82         56.8337
   399.96         56.6532
   400.10         56.4692
   400.24         56.2886
   400.38         56.1196
   400.52         55.9686
   400.66         55.8375
   400.80         55.7237
   400.94         55.6208
   401.08         55.5176
   401.22         55.3950
   401.36         55.2265
   401.50         54.9862
   401.64         54.6591
   401.78         54.2483
   401.92         53.7759
   402.06         53.2770
   402.20         52.7907
   402.34         52.3561
   402.48         52.0129
   402.62         51.7942
   402.76         51.7170
   402.90         51.7807
   403.04         51.9699
   403.18         52.2548
   403.32         52.5971
   403.46         52.9572
   403.60         53.3008
   403.74         53.6021
   403.88         53.8472
   404.02         54.0365
   404.16         54.1824
   404.30         54.3033
   404.44         54.4165
   404.58         54.5309
   404.72         54.6463
   404.86         54.7569
   405.00         54.8570
   405.14         54.9440
   405.28         55.0162
   405.42         55.0701
   405.56         55.1011
   405.70         55.1053
   405.84         55.0796
   405.98         55.0228
   406.12         54.9359
   406.26         54.8199
   406.40         54.6748
   406.54         54.5011
   406.68         54.3028
   406.82         54.0871
   406.96         53.8633
   407.10         53.6421
   407.24         53.4345
   407.38         53.2482
   407.52         53.0844
   407.66         52.9368
   407.80         52.7955
   407.94         52.6498
   408.08         52.4883
   408.22         52.2983
   408.36         52.0652
   408.50         51.7699
   408.64         51.3881
   408.78         50.8921
   408.92         50.2567
   409.06         49.4681
   409.20         48.5341
   409.34         47.4909
   409.48         46.4006
   409.62         45.3440
   409.76         44.4084
   409.90         43.6733
   410.04         43.1968
   410.18         43.0106
   410.32         43.1212
   410.46         43.5099
   410.60         44.1319
   410.74         44.9187
   410.88         45.7868
   411.02         46.6496
   411.16         47.4318
   411.30         48.0812
   411.44         48.5768
   411.58         48.9278
   411.72         49.1671
   411.86         49.3391
   412.00         49.4872
   412.14         49.6411
   412.28         49.8140
   412.42         50.0046
   412.56         50.1996
   412.70         50.3774
   412.84         50.5153
   412.98         50.5927
   413.12         50.5937
   413.26         50.5105
   413.40         50.3459
   413.54         50.1134
   413.68         49.8374
   413.82         49.5494
   413.96         49.2801
   414.10         49.0543
   414.24         48.8886
   414.38         48.7934
   414.52         48.7732
   414.66         48.8258
   414.80         48.9408
   414.94         49.1011
   415.08         49.2846
   415.22         49.4663
   415.36         49.6218
   415.50         49.7299
   415.64         49.7737
   415.78         49.7449
   415.92         49.6466
   416.06         49.4897
   416.20         49.2896
   416.34         49.0630
   416.48         48.8258
   416.62         48.5921
   416.76         48.3744
   416.90         48.1831
   417.04         48.0253
   417.18         47.9035
   417.32         47.8172
   417.46         47.7644
   417.60         47.7422
   417.74         47.7451
   417.88         47.7650
   418.02         47.7912
   418.16         47.8108
   418.30         47.8123
   418.44         47.7887
   418.58         47.7351
   418.72         47.6465
   418.86         47.5199
   419.00         47.3590
   419.14         47.1739
   419.28         46.9778
   419.42         46.7847
   419.56         46.6097
   419.70         46.4667
   419.84         46.3679
   419.98         46.3216
   420.12         46.3267
   420.26         46.3733
   420.40         46.4476
   420.54         46.5351
   420.68         46.6213
   420.82         46.6939
   420.96         46.7463
   421.10         46.7760
   421.24         46.7840
   421.38         46.7741
   421.52         46.7544
   421.66         46.7349
   421.80         46.7229
   421.94         46.7208
   422.08         46.7272
   422.22         46.7383
   422.36         46.7479
   422.50         46.7501
   422.64         46.7379
   422.78         46.7038
   422.92         46.6440
   423.06         46.5598
   423.20         46.4560
   423.34         46.3386
   423.48         46.2143
   423.62         46.0889
   423.76         45.9677
   423.90         45.8562
   424.04         45.7594
   424.18         45.6810
   424.32         45.6228
   424.46         45.5844
   424.60         45.5626
   424.74         45.5514
   424.88         45.5425
   425.02         45.5289
   425.16         45.5062
   425.30         45.4717
   425.44         45.4230
   425.58         45.3608
   425.72         45.2899
   425.86         45.2165
   426.00         45.1457
   426.14         45.0817
   426.28         45.0279
   426.42         44.9881
   426.56         44.9652
   426.70         44.9593
   426.84         44.9677
   426.98         44.9872
   427.12         45.0151
   427.26         45.0490
   427.40         45.0855
   427.54         45.1211
   427.68         45.1530
   427.82         45.1773
   427.96         45.1883
   428.10         45.1805
   428.24         45.1525
   428.38         45.1063
   428.52         45.0446
   428.66         44.9715
   428.80         44.8919
   428.94         44.8103
   429.08         44.7293
   429.22         44.6488
   429.36         44.5681
   429.50         44.4872
   429.64         44.4077
   429.78         44.3319
   429.92         44.2611
   430.06         44.1953
   430.20         44.1339
   430.34         44.0761
   430.48         44.0197
   430.62         43.9619
   430.76         43.9013
   430.90         43.8370
   431.04         43.7689
   431.18         43.6965
   431.32         43.6176
   431.46         43.5285
   431.60         43.4251
   431.74         43.3054
   431.88         43.1702
   432.02         43.0210
   432.16         42.8570
   432.30         42.6724
   432.44         42.4531
   432.58         42.1750
   432.72         41.8067
   432.86         41.3198
   433.00         40.7007
   433.14         39.9598
   433.28         39.1322
   433.42         38.2716
   433.56         37.4411
   433.70         36.7046
   433.84         36.1183
   433.98         35.7261
   434.12         35.5577
   434.26         35.6259
   434.40         35.9238
   434.54         36.4245
   434.68         37.0823
   434.82         37.8389
   434.96         38.6304
   435.10         39.3933
   435.24         40.0758
   435.38         40.6473
   435.52         41.0998
   435.66         41.4413
   435.80         41.6864
   435.94         41.8484
   436.08         41.9383
   436.22         41.9667
   436.36         41.9443
   436.50         41.8821
   436.64         41.7907
   436.78         41.6806
   436.92         41.5603
   437.06         41.4363
   437.20         41.3136
   437.34         41.1917
   437.48         41.0638
   437.62         40.9197
   437.76         40.7515
   437.90         40.5598
   438.04         40.3537
   438.18         40.1469
   438.32         39.9544
   438.46         39.7910
   438.60         39.6690
   438.74         39.5975
   438.88         39.5793
   439.02         39.6104
   439.16         39.6822
   439.30         39.7832
   439.44         39.9002
   439.58         40.0198
   439.72         40.1290
   439.86         40.2153
   440.00         40.2677
   440.14         40.2808
   440.28         40.2582
   440.42         40.2099
   440.56         40.1476
   440.70         40.0796
   440.84         40.0095
   440.98         39.9379
   441.12         39.8643
   441.26         39.7885
   441.40         39.7118
   441.54         39.6372
   441.68         39.5680
   441.82         39.5056
   441.96         39.4471
   442.10         39.3870
   442.24         39.3186
   442.38         39.2364
   442.52         39.1363
   442.66         39.0166
   442.80         38.8795
   442.94         38.7321
   443.08         38.5849
   443.22         38.4501
   443.36         38.3391
   443.50         38.2605
   443.64         38.2192
   443.78         38.2164
   443.92         38.2498
   444.06         38.3137
   444.20         38.3974
   444.34         38.4857
   444.48         38.5614
   444.62         38.6106
   444.76         38.6261
   444.90         38.6079
   445.04         38.5610
   445.18         38.4918
   445.32         38.4068
   445.46         38.3115
   445.60         38.2057
   445.74         38.0798
   445.88         37.9167
   446.02         37.7002
   446.16         37.4234
   446.30         37.0925
   446.44         36.7252
   446.58         36.3461
   446.72         35.9821
   446.86         35.6607
   447.00         35.4071
   447.14         35.2423
   447.28         35.1809
   447.42         35.2292
   447.56         35.3827
   447.70         35.6248
   447.84         35.9280
   447.98         36.2585
   448.12         36.5822
   448.26         36.8696
   448.40         37.1017
   448.54         37.2735
   448.68         37.3937
   448.82         37.4789
   448.96         37.5452
   449.10         37.6035
   449.24         37.6568
   449.38         37.7026
   449.52         37.7363
   449.66         37.7525
   449.80         37.7446
   449.94         37.7060
   450.08         37.6307
   450.22         37.5142
   450.36         37.3551
   450.50         37.1591
   450.64         36.9407
   450.78         36.7193
   450.92         36.5138
   451.06         36.3396
   451.20         36.2075
   451.34         36.1239
   451.48         36.0892
   451.62         36.0966
   451.76         36.1334
   451.90         36.1839
   452.04         36.2336
   452.18         36.2692
   452.32         36.2792
   452.46         36.2555
   452.60         36.1955
   452.74         36.0994
   452.88         35.9683
   453.02         35.8070
   453.16         35.6244
   453.30         35.4314
   453.44         35.2395
   453.58         35.0608
   453.72         34.9063
   453.86         34.7833
   454.00         34.6960
   454.14         34.6464
   454.28         34.6361
   454.42         34.6655
   454.56         34.7343
   454.70         34.8397
   454.84         34.9759
   454.98         35.1338
   455.12         35.3031
   455.26         35.4710
   455.40         35.6235
   455.54         35.7488
   455.68         35.8401
   455.82         35.8957
   455.96         35.9163
   456.10         35.9047
   456.24         35.8645
   456.38         35.7990
   456.52         35.7133
   456.66         35.6153
   456.80         35.5145
   456.94         35.4196
   457.08         35.3381
   457.22         35.2751
   457.36         35.2317
   457.50         35.2048
   457.64         35.1900
   457.78         35.1832
   457.92         35.1818
   458.06         35.1836
   458.20         35.1877
   458.34         35.1952
   458.48         35.2061
   458.62         35.2174
   458.76         35.2244
   458.90         35.2233
   459.04         35.2108
   459.18         35.1843
   459.32         35.1417
   459.46         35.0829
   459.60         35.0097
   459.74         34.9238
   459.88         34.8274
   460.02         34.7243
   460.16         34.6185
   460.30         34.5137
   460.44         34.4136
   460.58         34.3198
   460.72         34.2329
   460.86         34.1528
   461.00         34.0793
   461.14         34.0111
   461.28         33.9468
   461.42         33.8862
   461.56         33.8292
   461.70         33.7736
   461.84         33.7142
   461.98         33.6444
   462.12         33.5603
   462.26         33.4608
   462.40         33.3459
   462.54         33.2174
   462.68         33.0760
   462.82         32.9217
   462.96         32.7565
   463.10         32.5866
   463.24         32.4208
   463.38         32.2691
   463.52         32.1400
   463.66         32.0396
   463.80         31.9715
   463.94         31.9374
   464.08         31.9364
   464.22         31.9645
   464.36         32.0147
   464.50         32.0794
   464.64         32.1535
   464.78         32.2344
   464.92         32.3202
   465.06         32.4087
   465.20         32.4990
   465.34         32.5914
   465.48         32.6853
   465.62         32.7788
   465.76         32.8698
   465.90         32.9551
   466.04         33.0299
   466.18         33.0896
   466.32         33.1310
   466.46         33.1526
   466.60         33.1528
   466.74         33.1288
   466.88         33.0783
   467.02         33.0004
   467.16         32.8919
   467.30         32.7450
   467.44         32.5523
   467.58         32.3132
   467.72         32.0373
   467.86         31.7410
   468.00         31.4451
   468.14         31.1708
   468.28         30.9395
   468.42         30.7704
   468.56         30.6776
   468.70         30.6658
   468.84         30.7310
   468.98         30.8615
   469.12         31.0401
   469.26         31.2462
   469.40         31.4571
   469.54         31.6507
   469.68         31.8078
   469.82         31.9138
   469.96         31.9620
   470.10         31.9571
   470.24         31.9129
   470.38         31.8438
   470.52         31.7610
   470.66         31.6722
   470.80         31.5823
   470.94         31.4951
   471.08         31.4167
   471.22         31.3539
   471.36         31.3116
   471.50         31.2924
   471.64         31.2965
   471.78         31.3232
   471.92         31.3690
   472.06         31.4272
   472.20         31.4891
   472.34         31.5445
   472.48         31.5845
   472.62         31.6038
   472.76         31.6024
   472.90         31.5827
   473.04         31.5472
   473.18         31.4981
   473.32         31.4384
   473.46         31.3699
   473.60         31.2934
   473.74         31.2101
   473.88         31.1215
   474.02         31.0296
   474.16         30.9377
   474.30         30.8508
   474.44         30.7762
   474.58         30.7210
   474.72         30.6879
   474.86         30.6747
   475.00         30.6776
   475.14         30.6936
   475.28         30.7192
   475.42         30.7491
   475.56         30.7770
   475.70         30.7958
   475.84         30.7995
   475.98         30.7863
   476.12         30.7587
   476.26         30.7223
   476.40         30.6846
   476.54         30.6516
   476.68         30.6254
   476.82         30.6043
   476.96         30.5856
   477.10         30.5664
   477.24         30.5433
   477.38         30.5134
   477.52         30.4767
   477.66         30.4369
   477.80         30.3992
   477.94         30.3677
   478.08         30.3454
   478.22         30.3331
   478.36         30.3301
   478.50         30.3373
   478.64         30.3558
   478.78         30.3826
   478.92         30.4106
   479.06         30.4328
   479.20         30.4436
   479.34         30.4414
   479.48         30.4270
   479.62         30.4023
   479.76         30.3697
   479.90         30.3309
   480.04         30.2867
   480.18         30.2370
   480.32         30.1805
   480.46         30.1163
   480.60         30.0445
   480.74         29.9664
   480.88         29.8833
   481.02         29.7984
   481.16         29.7170
   481.30         29.6439
   481.44         29.5833
   481.58         29.5382
   481.72         29.5111
   481.86         29.5033
   482.00         29.5124
   482.14         29.5306
   482.28         29.5488
   482.42         29.5615
   482.56         29.5665
   482.70         29.5629
   482.84         29.5504
   482.98         29.5289
   483.12         29.4977
   483.26         29.4560
   483.40         29.4037
   483.54         29.3428
   483.68         29.2761
   483.82         29.2050
   483.96         29.1273
   484.10         29.0380
   484.24         28.9293
   484.38         28.7910
   484.52         28.6106
   484.66         28.3739
   484.80         28.0673
   484.94         27.6818
   485.08         27.2169
   485.22         26.6813
   485.36         26.0953
   485.50         25.4894
   485.64         24.9004
   485.78         24.3685
   485.92         23.9345
   486.06         23.6320
   486.20         23.4813
   486.34         23.4867
   486.48         23.6399
   486.62         23.9222
   486.76         24.3050
   486.90         24.7520
   487.04         25.2232
   487.18         25.6804
   487.32         26.0914
   487.46         26.4342
   487.60         26.7015
   487.74         26.8988
   487.88         27.0393
   488.02         27.1394
   488.16         27.2142
   488.30         27.2764
   488.44         27.3354
   488.58         27.3956
   488.72         27.4559
   488.86         27.5135
   489.00         27.5671
   489.14         27.6165
   489.28         27.6596
   489.42         27.6924
   489.56         27.7115
   489.70         27.7155
   489.84         27.7055
   489.98         27.6840
   490.12         27.6545
   490.26         27.6202
   490.40         27.5829
   490.54         27.5429
   490.68         27.4982
   490.82         27.4433
   490.96         27.3686
   491.10         27.2648
   491.24         27.1287
   491.38         26.9645
   491.52         26.7829
   491.66         26.6001
   491.80         26.4344
   491.94         26.3033
   492.08         26.2204
   492.22         26.1929
   492.36         26.2219
   492.50         26.3018
   492.64         26.4216
   492.78         26.5671
   492.92         26.7225
   493.06         26.8729
   493.20         27.0049
   493.34         27.1074
   493.48         27.1743
   493.62         27.2056
   493.76         27.2081
   493.90         27.1915
   494.04         27.1651
   494.18         27.1370
   494.32         27.1142
   494.46         27.1006
   494.60         27.0950
   494.74         27.0932
   494.88         27.0913
   495.02         27.0860
   495.16         27.0749
   495.30         27.0566
   495.44         27.0310
   495.58         26.9990
   495.72         26.9619
   495.86         26.9189
   496.00         26.8682
   496.14         26.8088
   496.28         26.7408
   496.42         26.6654
   496.56         26.5840
   496.70         26.4993
   496.84         26.4153
   496.98         26.3355
   497.12         26.2610
   497.26         26.1914
   497.40         26.1274
   497.54         26.0703
   497.68         26.0221
   497.82         25.9858
   497.96         25.9629
   498.10         25.9528
   498.24         25.9537
   498.38         25.9625
   498.52         25.9753
   498.66         25.9888
   498.80         26.0005
   498.94         26.0075
   499.08         26.0059
   499.22         25.9926
   499.36         25.9671
   499.50         25.9316
   499.64         25.8887
   499.78         25.8404
   499.92         25.7887
   500.06         25.7358
   500.20         25.6828
   500.34         25.6293
   500.48         25.5735
   500.62         25.5139
   500.76         25.4496
   500.90         25.3807
   501.04         25.3082
   501.18         25.2344
   501.32         25.1617
   501.46         25.0920
   501.60         25.0277
   501.74         24.9729
   501.88         24.9318
   502.02         24.9067
   502.16         24.8981
   502.30         24.9041
   502.44         24.9219
   502.58         24.9495
   502.72         24.9853
   502.86         25.0276
   503.00         25.0751
   503.14         25.1259
   503.28         25.1757
   503.42         25.2173
   503.56         25.2439
   503.70         25.2516
   503.84         25.2387
   503.98         25.2053
   504.12         25.1548
   504.26         25.0928
   504.40         25.0245
   504.54         24.9529
   504.68         24.8813
   504.82         24.8138
   504.96         24.7544
   505.10         24.7058
   505.24         24.6681
   505.38         24.6390
   505.52         24.6144
   505.66         24.5887
   505.80         24.5567
   505.94         24.5154
   506.08         24.4648
   506.22         24.4076
   506.36         24.3466
   506.50         24.2854
   506.64         24.2285
   506.78         24.1801
   506.92         24.1432
   507.06         24.1197
   507.20         24.1113
   507.34         24.1184
   507.48         24.1406
   507.62         24.1762
   507.76         24.2223
   507.90         24.2761
   508.04         24.3340
   508.18         24.3904
   508.32         24.4378
   508.46         24.4694
   508.60         24.4810
   508.74         24.4729
   508.88         24.4489
   509.02         24.4140
   509.16         24.3733
   509.30         24.3307
   509.44         24.2898
   509.58         24.2521
   509.72         24.2185
   509.86         24.1895
   510.00         24.1661
   510.14         24.1494
   510.28         24.1388
   510.42         24.1321
   510.56         24.1255
   510.70         24.1151
   510.84         24.0977
   510.98         24.0724
   511.12         24.0411
   511.26         24.0066
   511.40         23.9708
   511.54         23.9327
   511.68         23.8895
   511.82         23.8392
   511.96         23.7832
   512.10         23.7252
   512.24         23.6687
   512.38         23.6169
   512.52         23.5719
   512.66         23.5350
   512.80         23.5063
   512.94         23.4854
   513.08         23.4718
   513.22         23.4652
   513.36         23.4660
   513.50         23.4733
   513.64         23.4847
   513.78         23.4969
   513.92         23.5068
   514.06         23.5117
   514.20         23.5084
   514.34         23.4943
   514.48         23.4690
   514.62         23.4347
   514.76         23.3950
   514.90         23.3530
   515.04         23.3101
   515.18         23.2682
   515.32         23.2294
   515.46         23.1962
   515.60         23.1704
   515.74         23.1531
   515.88         23.1438
   516.02         23.1400
   516.16         23.1375
   516.30         23.1313
   516.44         23.1179
   516.58         23.0952
   516.72         23.0622
   516.86         23.0195
   517.00         22.9692
   517.14         22.9145
   517.28         22.8583
   517.42         22.8029
   517.56         22.7490
   517.70         22.6972
   517.84         22.6494
   517.98         22.6072
   518.12         22.5707
   518.26         22.5397
   518.40         22.5137
   518.54         22.4916
   518.68         22.4730
   518.82         22.4594
   518.96         22.4535
   519.10         22.4566
   519.24         22.4684
   519.38         22.4869
   519.52         22.5095
   519.66         22.5325
   519.80         22.5516
   519.94         22.5632
   520.08         22.5651
   520.22         22.5562
   520.36         22.5372
   520.50         22.5102
   520.64         22.4776
   520.78         22.4426
   520.92         22.4087
   521.06         22.3777
   521.20         22.3500
   521.34         22.3260
   521.48         22.3055
   521.62         22.2867
   521.76         22.2671
   521.90         22.2456
   522.04         22.2212
   522.18         22.1922
   522.32         22.1567
   522.46         22.1142
   522.60         22.0664
   522.74         22.0163
   522.88         21.9673
   523.02         21.9228
   523.16         21.8847
   523.30         21.8542
   523.44         21.8317
   523.58         21.8164
   523.72         21.8068
   523.86         21.8015
   524.00         21.7989
   524.14         21.7961
   524.28         21.7896
   524.42         21.7763
   524.56         21.7526
   524.70         21.7160
   524.84         21.6669
   524.98         21.6092
   525.12         21.5485
   525.26         21.4908
   525.40         21.4411
   525.54         21.4031
   525.68         21.3779
   525.82         21.3637
   525.96         21.3573
   526.10         21.3550
   526.24         21.3522
   526.38         21.3445
   526.52         21.3296
   526.66         21.3064
   526.80         21.2757
   526.94         21.2399
   527.08         21.2018
   527.22         21.1641
   527.36         21.1296
   527.50         21.1006
   527.64         21.0780
   527.78         21.0627
   527.92         21.0556
   528.06         21.0569
   528.20         21.0641
   528.34         21.0724
   528.48         21.0770
   528.62         21.0745
   528.76         21.0626
   528.90         21.0401
   529.04         21.0085
   529.18         20.9702
   529.32         20.9264
   529.46         20.8770
   529.60         20.8233
   529.74         20.7678
   529.88         20.7128
   530.02         20.6598
   530.16         20.6100
   530.30         20.5644
   530.44         20.5240
   530.58         20.4889
   530.72         20.4576
   530.86         20.4282
   531.00         20.4006
   531.14         20.3767
   531.28         20.3591
   531.42         20.3494
   531.56         20.3471
   531.70         20.3502
   531.84         20.3544
   531.98         20.3551
   532.12         20.3501
   532.26         20.3392
   532.40         20.3218
   532.54         20.2969
   532.68         20.2642
   532.82         20.2256
   532.96         20.1847
   533.10         20.1466
   533.24         20.1157
   533.38         20.0957
   533.52         20.0898
   533.66         20.1004
   533.80         20.1278
   533.94         20.1696
   534.08         20.2207
   534.22         20.2750
   534.36         20.3271
   534.50         20.3724
   534.64         20.4073
   534.78         20.4284
   534.92         20.4319
   535.06         20.4150
   535.20         20.3769
   535.34         20.3201
   535.48         20.2498
   535.62         20.1721
   535.76         20.0919
   535.90         20.0133
   536.04         19.9403
   536.18         19.8765
   536.32         19.8243
   536.46         19.7841
   536.60         19.7551
   536.74         19.7354
   536.88         19.7229
   537.02         19.7155
   537.16         19.7107
   537.30         19.7051
   537.44         19.6952
   537.58         19.6793
   537.72         19.6580
   537.86         19.6333
   538.00         19.6084
   538.14         19.5864
   538.28         19.5697
   538.42         19.5606
   538.56         19.5612
   538.70         19.5714
   538.84         19.5889
   538.98         19.6097
   539.12         19.6297
   539.26         19.6449
   539.40         19.6507
   539.54         19.6430
   539.68         19.6181
   539.82         19.5721
   539.96         19.5031
   540.10         19.4125
   540.24         19.3064
   540.38         19.1942
   540.52         19.0850
   540.66         18.9873
   540.80         18.9077
   540.94         18.8514
   541.08         18.8208
   541.22         18.8159
   541.36         18.8342
   541.50         18.8719
   541.64         18.9235
   541.78         18.9813
   541.92         19.0371
   542.06         19.0841
   542.20         19.1186
   542.34         19.1389
   542.48         19.1453
   542.62         19.1398
   542.76         19.1255
   542.90         19.1052
   543.04         19.0807
   543.18         19.0526
   543.32         19.0225
   543.46         18.9919
   543.60         18.9621
   543.74         18.9330
   543.88         18.9042
   544.02         18.8756
   544.16         18.8472
   544.30         18.8197
   544.44         18.7943
   544.58         18.7715
   544.72         18.7514
   544.86         18.7332
   545.00         18.7150
   545.14         18.6944
   545.28         18.6707
   545.42         18.6453
   545.56         18.6211
   545.70         18.5998
   545.84         18.5825
   545.98         18.5693
   546.12         18.5595
   546.26         18.5529
   546.40         18.5491
   546.54         18.5473
   546.68         18.5462
   546.82         18.5440
   546.96         18.5385
   547.10         18.5282
   547.24         18.5128
   547.38         18.4936
   547.52         18.4732
   547.66         18.4531
   547.80         18.4340
   547.94         18.4162
   548.08         18.3994
   548.22         18.3825
   548.36         18.3649
   548.50         18.3468
   548.64         18.3284
   548.78         18.3098
   548.92         18.2902
   549.06         18.2686
   549.20         18.2451
   549.34         18.2205
   549.48         18.1965
   549.62         18.1753
   549.76         18.1596
   549.90         18.1506
   550.04         18.1484
   550.18         18.1521
   550.32         18.1605
   550.46         18.1726
   550.60         18.1879
   550.74         18.2053
   550.88         18.2235
   551.02         18.2393
   551.16         18.2485
   551.30         18.2474
   551.44         18.2340
   551.58         18.2081
   551.72         18.1700
   551.86         18.1202
   552.00         18.0602
   552.14         17.9928
   552.28         17.9223
   552.42         17.8534
   552.56         17.7904
   552.70         17.7363
   552.84         17.6926
   552.98         17.6587
   553.12         17.6326
   553.26         17.6115
   553.40         17.5930
   553.54         17.5755
   553.68         17.5583
   553.82         17.5416
   553.96         17.5264
   554.10         17.5134
   554.24         17.5034
   554.38         17.4975
   554.52         17.4970
   554.66         17.5038
   554.80         17.5185
   554.94         17.5398
   555.08         17.5647
   555.22         17.5891
   555.36         17.6082
   555.50         17.6185
   555.64         17.6188
   555.78         17.6103
   555.92         17.5963
   556.06         17.5798
   556.20         17.5634
   556.34         17.5492
   556.48         17.5379
   556.62         17.5293
   556.76         17.5228
   556.90         17.5174
   557.04         17.5120
   557.18         17.5055
   557.32         17.4969
   557.46         17.4853
   557.60         17.4703
   557.74         17.4530
   557.88         17.4352
   558.02         17.4195
   558.16         17.4078
   558.30         17.4010
   558.44         17.3992
   558.58         17.4019
   558.72         17.4074
   558.86         17.4131
   559.00         17.4151
   559.14         17.4094
   559.28         17.3936
   559.42         17.3673
   559.56         17.3316
   559.70         17.2892
   559.84         17.2430
   559.98         17.1957
   560.12         17.1503
   560.26         17.1094
   560.40         17.0743
   560.54         17.0452
   560.68         17.0215
   560.82         17.0028
   560.96         16.9891
   561.10         16.9799
   561.24         16.9741
   561.38         16.9689
   561.52         16.9611
   561.66         16.9483
   561.80         16.9304
   561.94         16.9082
   562.08         16.8829
   562.22         16.8565
   562.36         16.8312
   562.50         16.8080
   562.64         16.7876
   562.78         16.7706
   562.92         16.7569
   563.06         16.7460
   563.20         16.7377
   563.34         16.7316
   563.48         16.7276
   563.62         16.7244
   563.76         16.7201
   563.90         16.7127
   564.04         16.7006
   564.18         16.6827
   564.32         16.6591
   564.46         16.6308
   564.60         16.5993
   564.74         16.5669
   564.88         16.5361
   565.02         16.5084
   565.16         16.4845
   565.30         16.4639
   565.44         16.4454
   565.58         16.4265
   565.72         16.4053
   565.86         16.3805
   566.00         16.3512
   566.14         16.3169
   566.28         16.2774
   566.42         16.2346
   566.56         16.1911
   566.70         16.1500
   566.84         16.1140
   566.98         16.0844
   567.12         16.0611
   567.26         16.0433
   567.40         16.0299
   567.54         16.0199
   567.68         16.0116
   567.82         16.0042
   567.96         15.9980
   568.10         15.9948
   568.24         15.9974
   568.38         16.0077
   568.52         16.0254
   568.66         16.0483
   568.80         16.0729
   568.94         16.0959
   569.08         16.1129
   569.22         16.1189
   569.36         16.1093
   569.50         16.0821
   569.64         16.0376
   569.78         15.9791
   569.92         15.9118
   570.06         15.8421
   570.20         15.7762
   570.34         15.7194
   570.48         15.6758
   570.62         15.6481
   570.76         15.6365
   570.90         15.6385
   571.04         15.6490
   571.18         15.6615
   571.32         15.6709
   571.46         15.6740
   571.60         15.6695
   571.74         15.6582
   571.88         15.6417
   572.02         15.6221
   572.16         15.6005
   572.30         15.5776
   572.44         15.5539
   572.58         15.5294
   572.72         15.5036
   572.86         15.4762
   573.00         15.4477
   573.14         15.4191
   573.28         15.3914
   573.42         15.3651
   573.56         15.3397
   573.70         15.3142
   573.84         15.2884
   573.98         15.2647
   574.12         15.2464
   574.26         15.2358
   574.40         15.2329
   574.54         15.2359
   574.68         15.2428
   574.82         15.2524
   574.96         15.2637
   575.10         15.2758
   575.24         15.2876
   575.38         15.2986
   575.52         15.3097
   575.66         15.3218
   575.80         15.3352
   575.94         15.3489
   576.08         15.3609
   576.22         15.3690
   576.36         15.3711
   576.50         15.3668
   576.64         15.3561
   576.78         15.3374
   576.92         15.3078
   577.06         15.2653
   577.20         15.2109
   577.34         15.1485
   577.48         15.0826
   577.62         15.0180
   577.76         14.9590
   577.90         14.9097
   578.04         14.8724
   578.18         14.8481
   578.32         14.8355
   578.46         14.8304
   578.60         14.8281
   578.74         14.8242
   578.88         14.8152
   579.02         14.7982
   579.16         14.7720
   579.30         14.7371
   579.44         14.6952
   579.58         14.6501
   579.72         14.6066
   579.86         14.5704
   580.00         14.5454
   580.14         14.5339
   580.28         14.5360
   580.42         14.5503
   580.56         14.5743
   580.70         14.6044
   580.84         14.6366
   580.98         14.6676
   581.12         14.6939
   581.26         14.7138
   581.40         14.7268
   581.54         14.7333
   581.68         14.7345
   581.82         14.7326
   581.96         14.7300
   582.10         14.7285
   582.24         14.7290
   582.38         14.7310
   582.52         14.7328
   582.66         14.7324
   582.80         14.7275
   582.94         14.7168
   583.08         14.7001
   583.22         14.6780
   583.36         14.6519
   583.50         14.6243
   583.64         14.5980
   583.78         14.5757
   583.92         14.5590
   584.06         14.5488
   584.20         14.5446
   584.34         14.5448
   584.48         14.5475
   584.62         14.5503
   584.76         14.5518
   584.90         14.5510
   585.04         14.5479
   585.18         14.5428
   585.32         14.5362
   585.46         14.5285
   585.60         14.5206
   585.74         14.5125
   585.88         14.5032
   586.02         14.4901
   586.16         14.4687
   586.30         14.4331
   586.44         14.3793
   586.58         14.3066
   586.72         14.2179
   586.86         14.1190
   587.00         14.0181
   587.14         13.9237
   587.28         13.8435
   587.42         13.7819
   587.56         13.7383
   587.70         13.7061
   587.84         13.6761
   587.98         13.6418
   588.12         13.6000
   588.26         13.5475
   588.40         13.4805
   588.54         13.3981
   588.68         13.3049
   588.82         13.2100
   588.96         13.1256
   589.10         13.0650
   589.24         13.0386
   589.38         13.0516
   589.52         13.1044
   589.66         13.1919
   589.80         13.3053
   589.94         13.4332
   590.08         13.5637
   590.22         13.6863
   590.36         13.7944
   590.50         13.8852
   590.64         13.9589
   590.78         14.0148
   590.92         14.0516
   591.06         14.0706
   591.20         14.0761
   591.34         14.0721
   591.48         14.0604
   591.62         14.0426
   591.76         14.0205
   591.90         13.9967
   592.04         13.9741
   592.18         13.9553
   592.32         13.9416
   592.46         13.9340
   592.60         13.9318
   592.74         13.9329
   592.88         13.9346
   593.02         13.9340
   593.16         13.9288
   593.30         13.9180
   593.44         13.9013
   593.58         13.8797
   593.72         13.8553
   593.86         13.8301
   594.00         13.8047
   594.14         13.7789
   594.28         13.7523
   594.42         13.7249
   594.56         13.6970
   594.70         13.6691
   594.84         13.6419
   594.98         13.6169
   595.12         13.5977
   595.26         13.5870
   595.40         13.5858
   595.54         13.5937
   595.68         13.6088
   595.82         13.6288
   595.96         13.6504
   596.10         13.6686
   596.24         13.6790
   596.38         13.6771
   596.52         13.6587
   596.66         13.6215
   596.80         13.5668
   596.94         13.4997
   597.08         13.4276
   597.22         13.3585
   597.36         13.2989
   597.50         13.2525
   597.64         13.2212
   597.78         13.2045
   597.92         13.1995
   598.06         13.2024
   598.20         13.2102
   598.34         13.2211
   598.48         13.2334
   598.62         13.2447
   598.76         13.2528
   598.90         13.2554
   599.04         13.2515
   599.18         13.2418
   599.32         13.2286
   599.46         13.2141
   599.60         13.1999
   599.74         13.1867
   599.88         13.1734
   600.02         13.1582
   600.16         13.1395
   600.30         13.1174
   600.44         13.0939
   600.58         13.0718
   600.72         13.0537
   600.86         13.0413
   601.00         13.0342
   601.14         13.0303
   601.28         13.0270
   601.42         13.0213
   601.56         13.0109
   601.70         12.9957
   601.84         12.9766
   601.98         12.9545
   602.12         12.9305
   602.26         12.9054
   602.40         12.8790
   602.54         12.8512
   602.68         12.8238
   602.82         12.7989
   602.96         12.7783
   603.10         12.7623
   603.24         12.7497
   603.38         12.7372
   603.52         12.7220
   603.66         12.7026
   603.80         12.6802
   603.94         12.6581
   604.08         12.6400
   604.22         12.6287
   604.36         12.6264
   604.50         12.6337
   604.64         12.6497
   604.78         12.6723
   604.92         12.6989
   605.06         12.7278
   605.20         12.7587
   605.34         12.7907
   605.48         12.8210
   605.62         12.8463
   605.76         12.8640
   605.90         12.8721
   606.04         12.8698
   606.18         12.8568
   606.32         12.8341
   606.46         12.8037
   606.60         12.7679
   606.74         12.7281
   606.88         12.6850
   607.02         12.6402
   607.16         12.5959
   607.30         12.5547
   607.44         12.5188
   607.58         12.4910
   607.72         12.4727
   607.86         12.4638
   608.00         12.4629
   608.14         12.4675
   608.28         12.4742
   608.42         12.4792
   608.56         12.4801
   608.70         12.4761
   608.84         12.4669
   608.98         12.4531
   609.12         12.4355
   609.26         12.4163
   609.40         12.3978
   609.54         12.3819
   609.68         12.3715
   609.82         12.3696
   609.96         12.3764
   610.10         12.3902
   610.24         12.4070
   610.38         12.4218
   610.52         12.4310
   610.66         12.4322
   610.80         12.4244
   610.94         12.4078
   611.08         12.3837
   611.22         12.3547
   611.36         12.3237
   611.50         12.2935
   611.64         12.2671
   611.78         12.2475
   611.92         12.2364
   612.06         12.2335
   612.20         12.2378
   612.34         12.2486
   612.48         12.2647
   612.62         12.2825
   612.76         12.2987
   612.90         12.3108
   613.04         12.3178
   613.18         12.3195
   613.32         12.3156
   613.46         12.3058
   613.60         12.2899
   613.74         12.2680
   613.88         12.2400
   614.02         12.2071
   614.16         12.1705
   614.30         12.1325
   614.44         12.0956
   614.58         12.0625
   614.72         12.0358
   614.86         12.0173
   615.00         12.0064
   615.14         12.0009
   615.28         11.9976
   615.42         11.9939
   615.56         11.9884
   615.70         11.9805
   615.84         11.9701
   615.98         11.9569
   616.12         11.9406
   616.26         11.9210
   616.40         11.8978
   616.54         11.8720
   616.68         11.8446
   616.82         11.8171
   616.96         11.7903
   617.10         11.7650
   617.24         11.7420
   617.38         11.7221
   617.52         11.7061
   617.66         11.6950
   617.80         11.6894
   617.94         11.6890
   618.08         11.6925
   618.22         11.6993
   618.36         11.7092
   618.50         11.7222
   618.64         11.7374
   618.78         11.7532
   618.92         11.7679
   619.06         11.7792
   619.20         11.7854
   619.34         11.7866
   619.48         11.7840
   619.62         11.7795
   619.76         11.7747
   619.90         11.7709
   620.04         11.7691
   620.18         11.7688
   620.32         11.7685
   620.46         11.7665
   620.60         11.7612
   620.74         11.7519
   620.88         11.7397
   621.02         11.7263
   621.16         11.7125
   621.30         11.6984
   621.44         11.6843
   621.58         11.6704
   621.72         11.6572
   621.86         11.6471
   622.00         11.6431
   622.14         11.6470
   622.28         11.6581
   622.42         11.6741
   622.56         11.6911
   622.70         11.7050
   622.84         11.7121
   622.98         11.7101
   623.12         11.6986
   623.26         11.6782
   623.40         11.6511
   623.54         11.6206
   623.68         11.5894
   623.82         11.5592
   623.96         11.5311
   624.10         11.5056
   624.24         11.4825
   624.38         11.4621
   624.52         11.4446
   624.66         11.4293
   624.80         11.4146
   624.94         11.3994
   625.08         11.3841
   625.22         11.3704
   625.36         11.3604
   625.50         11.3551
   625.64         11.3543
   625.78         11.3573
   625.92         11.3631
   626.06         11.3713
   626.20         11.3806
   626.34         11.3886
   626.48         11.3918
   626.62         11.3864
   626.76         11.3701
   626.90         11.3426
   627.04         11.3049
   627.18         11.2593
   627.32         11.2083
   627.46         11.1553
   627.60         11.1043
   627.74         11.0591
   627.88         11.0224
   628.02         10.9959
   628.16         10.9813
   628.30         10.9804
   628.44         10.9952
   628.58         11.0261
   628.72         11.0710
   628.86         11.1247
   629.00         11.1808
   629.14         11.2330
   629.28         11.2769
   629.42         11.3110
   629.56         11.3346
   629.70         11.3471
   629.84         11.3475
   629.98         11.3352
   630.12         11.3107
   630.26         11.2755
   630.40         11.2319
   630.54         11.1833
   630.68         11.1336
   630.82         11.0868
   630.96         11.0458
   631.10         11.0119
   631.24         10.9852
   631.38         10.9653
   631.52         10.9513
   631.66         10.9419
   631.80         10.9357
   631.94         10.9321
   632.08         10.9304
   632.22         10.9288
   632.36         10.9251
   632.50         10.9178
   632.64         10.9059
   632.78         10.8901
   632.92         10.8712
   633.06         10.8499
   633.20         10.8268
   633.34         10.8022
   633.48         10.7759
   633.62         10.7478
   633.76         10.7178
   633.90         10.6860
   634.04         10.6529
   634.18         10.6198
   634.32         10.5892
   634.46         10.5639
   634.60         10.5455
   634.74         10.5342
   634.88         10.5299
   635.02         10.5325
   635.16         10.5419
   635.30         10.5576
   635.44         10.5785
   635.58         10.6028
   635.72         10.6281
   635.86         10.6516
   636.00         10.6700
   636.14         10.6799
   636.28         10.6787
   636.42         10.6660
   636.56         10.6430
   636.70         10.6125
   636.84         10.5776
   636.98         10.5404
   637.12         10.5028
   637.26         10.4677
   637.40         10.4390
   637.54         10.4204
   637.68         10.4126
   637.82         10.4139
   637.96         10.4207
   638.10         10.4297
   638.24         10.4381
   638.38         10.4437
   638.52         10.4446
   638.66         10.4396
   638.80         10.4276
   638.94         10.4084
   639.08         10.3829
   639.22         10.3520
   639.36         10.3174
   639.50         10.2817
   639.64         10.2477
   639.78         10.2182
   639.92         10.1952
   640.06         10.1796
   640.20         10.1711
   640.34         10.1690
   640.48         10.1738
   640.62         10.1859
   640.76         10.2044
   640.90         10.2265
   641.04         10.2491
   641.18         10.2698
   641.32         10.2874
   641.46         10.3009
   641.60         10.3096
   641.74         10.3138
   641.88         10.3148
   642.02         10.3141
   642.16         10.3126
   642.30         10.3100
   642.44         10.3055
   642.58         10.2996
   642.72         10.2929
   642.86         10.2850
   643.00         10.2750
   643.14         10.2618
   643.28         10.2446
   643.42         10.2232
   643.56         10.1992
   643.70         10.1755
   643.84         10.1550
   643.98         10.1401
   644.12         10.1320
   644.26         10.1309
   644.40         10.1355
   644.54         10.1431
   644.68         10.1498
   644.82         10.1516
   644.96         10.1456
   645.10         10.1311
   645.24         10.1080
   645.38         10.0771
   645.52         10.0397
   645.66         9.9987
   645.80         9.9580
   645.94         9.9218
   646.08         9.8930
   646.22         9.8734
   646.36         9.8636
   646.50         9.8623
   646.64         9.8666
   646.78         9.8723
   646.92         9.8754
   647.06         9.8732
   647.20         9.8644
   647.34         9.8489
   647.48         9.8277
   647.62         9.8022
   647.76         9.7741
   647.90         9.7458
   648.04         9.7196
   648.18         9.6983
   648.32         9.6843
   648.46         9.6798
   648.60         9.6855
   648.74         9.7010
   648.88         9.7250
   649.02         9.7556
   649.16         9.7908
   649.30         9.8291
   649.44         9.8689
   649.58         9.9075
   649.72         9.9422
   649.86         9.9709
   650.00         9.9922
   650.14         10.0045
   650.28         10.0056
   650.42         9.9942
   650.56         9.9708
   650.70         9.9380
   650.84         9.8999
   650.98         9.8605
   651.12         9.8234
   651.26         9.7917
   651.40         9.7672
   651.54         9.7508
   651.68         9.7432
   651.82         9.7437
   651.96         9.7503
   652.10         9.7605
   652.24         9.7712
   652.38         9.7807
   652.52         9.7880
   652.66         9.7923
   652.80         9.7927
   652.94         9.7892
   653.08         9.7826
   653.22         9.7737
   653.36         9.7627
   653.50         9.7481
   653.64         9.7285
   653.78         9.7028
   653.92         9.6706
   654.06         9.6325
   654.20         9.5899
   654.34         9.5435
   654.48         9.4924
   654.62         9.4336
   654.76         9.3629
   654.90         9.2755
   655.04         9.1680
   655.18         9.0396
   655.32         8.8921
   655.46         8.7312
   655.60         8.5661
   655.74         8.4087
   655.88         8.2717
   656.02         8.1677
   656.16         8.1070
   656.30         8.0961
   656.44         8.1374
   656.58         8.2279
   656.72         8.3604
   656.86         8.5231
   657.00         8.7023
   657.14         8.8836
   657.28         9.0539
   657.42         9.2038
   657.56         9.3269
   657.70         9.4212
   657.84         9.4885
   657.98         9.5329
   658.12         9.5589
   658.26         9.5702
   658.40         9.5705
   658.54         9.5636
   658.68         9.5530
   658.82         9.5416
   658.96         9.5314
   659.10         9.5236
   659.24         9.5184
   659.38         9.5153
   659.52         9.5136
   659.66         9.5122
   659.80         9.5096
   659.94         9.5041
   660.08         9.4948
   660.22         9.4821
   660.36         9.4681
   660.50         9.4553
   660.64         9.4448
   660.78         9.4362
   660.92         9.4285
   661.06         9.4215
   661.20         9.4147
   661.34         9.4074
   661.48         9.3996
   661.62         9.3917
   661.76         9.3841
   661.90         9.3770
   662.04         9.3701
   662.18         9.3631
   662.32         9.3553
   662.46         9.3465
   662.60         9.3372
   662.74         9.3276
   662.88         9.3179
   663.02         9.3070
   663.16         9.2937
   663.30         9.2770
   663.44         9.2576
   663.58         9.2372
   663.72         9.2172
   663.86         9.1976
   664.00         9.1783
   664.14         9.1590
   664.28         9.1390
   664.42         9.1175
   664.56         9.0934
   664.70         9.0671
   664.84         9.0391
   664.98         9.0099
   665.12         8.9794
   665.26         8.9466
   665.40         8.9109
   665.54         8.8726
   665.68         8.8333
   665.82         8.7949
   665.96         8.7591
   666.10         8.7265
   666.24         8.6964
   666.38         8.6665
   666.52         8.6343
   666.66         8.5976
   666.80         8.5553
   666.94         8.5080
   667.08         8.4583
   667.22         8.4093
   667.36         8.3642
   667.50         8.3263
   667.64         8.2983
   667.78         8.2824
   667.92         8.2810
   668.06         8.2964
   668.20         8.3296
   668.34         8.3788
   668.48         8.4395
   668.62         8.5055
   668.76         8.5701
   668.90         8.6274
   669.04         8.6734
   669.18         8.7069
   669.32         8.7288
   669.46         8.7414
   669.60         8.7480
   669.74         8.7518
   669.88         8.7545
   670.02         8.7569
   670.16         8.7589
   670.30         8.7592
   670.44         8.7563
   670.58         8.7496
   670.72         8.7388
   670.86         8.7229
   671.00         8.7018
   671.14         8.6760
   671.28         8.6468
   671.42         8.6161
   671.56         8.5865
   671.70         8.5604
   671.84         8.5396
   671.98         8.5252
   672.12         8.5187
   672.26         8.5212
   672.40         8.5317
   672.54         8.5466
   672.68         8.5621
   672.82         8.5749
   672.96         8.5834
   673.10         8.5869
   673.24         8.5857
   673.38         8.5801
   673.52         8.5710
   673.66         8.5595
   673.80         8.5460
   673.94         8.5308
   674.08         8.5152
   674.22         8.5000
   674.36         8.4863
   674.50         8.4751
   674.64         8.4670
   674.78         8.4622
   674.92         8.4600
   675.06         8.4590
   675.20         8.4580
   675.34         8.4574
   675.48         8.4584
   675.62         8.4618
   675.76         8.4677
   675.90         8.4752
   676.04         8.4832
   676.18         8.4900
   676.32         8.4935
   676.46         8.4918
   676.60         8.4848
   676.74         8.4738
   676.88         8.4609
   677.02         8.4478
   677.16         8.4355
   677.30         8.4244
   677.44         8.4146
   677.58         8.4055
   677.72         8.3955
   677.86         8.3834
   678.00         8.3690
   678.14         8.3526
   678.28         8.3355
   678.42         8.3187
   678.56         8.3028
   678.70         8.2883
   678.84         8.2755
   678.98         8.2657
   679.12         8.2609
   679.26         8.2626
   679.40         8.2701
   679.54         8.2810
   679.68         8.2923
   679.82         8.3009
   679.96         8.3049
   680.10         8.3033
   680.24         8.2961
   680.38         8.2843
   680.52         8.2705
   680.66         8.2575
   680.80         8.2476
   680.94         8.2413
   681.08         8.2374
   681.22         8.2339
   681.36         8.2294
   681.50         8.2237
   681.64         8.2175
   681.78         8.2110
   681.92         8.2037
   682.06         8.1963
   682.20         8.1901
   682.34         8.1863
   682.48         8.1861
   682.62         8.1907
   682.76         8.2011
   682.90         8.2168
   683.04         8.2371
   683.18         8.2607
   683.32         8.2855
   683.46         8.3088
   683.60         8.3291
   683.74         8.3463
   683.88         8.3615
   684.02         8.3762
   684.16         8.3914
   684.30         8.4074
   684.44         8.4236
   684.58         8.4387
   684.72         8.4516
   684.86         8.4607
   685.00         8.4646
   685.14         8.4620
   685.28         8.4505
   685.42         8.4258
   685.56         8.3818
   685.70         8.3109
   685.84         8.2076
   685.98         8.0695
   686.12         7.8992
   686.26         7.7034
   686.40         7.4928
   686.54         7.2809
   686.68         7.0824
   686.82         6.9120
   686.96         6.7814
   687.10         6.6984
   687.24         6.6659
   687.38         6.6813
   687.52         6.7377
   687.66         6.8240
   687.80         6.9260
   687.94         7.0291
   688.08         7.1198
   688.22         7.1883
   688.36         7.2312
   688.50         7.2515
   688.64         7.2557
   688.78         7.2523
   688.92         7.2498
   689.06         7.2548
   689.20         7.2704
   689.34         7.2958
   689.48         7.3283
   689.62         7.3641
   689.76         7.3998
   689.90         7.4339
   690.04         7.4645
   690.18         7.4899
   690.32         7.5095
   690.46         7.5237
   690.60         7.5337
   690.74         7.5420
   690.88         7.5516
   691.02         7.5654
   691.16         7.5853
   691.30         7.6118
   691.44         7.6437
   691.58         7.6786
   691.72         7.7135
   691.86         7.7459
   692.00         7.7745
   692.14         7.7983
   692.28         7.8168
   692.42         7.8295
   692.56         7.8364
   692.70         7.8379
   692.84         7.8350
   692.98         7.8294
   693.12         7.8229
   693.26         7.8169
   693.40         7.8128
   693.54         7.8107
   693.68         7.8102
   693.82         7.8116
   693.96         7.8159
   694.10         7.8235
   694.24         7.8338
   694.38         7.8450
   694.52         7.8558
   694.66         7.8656
   694.80         7.8738
   694.94         7.8800
   695.08         7.8842
   695.22         7.8879
   695.36         7.8934
   695.50         7.9038
   695.64         7.9229
   695.78         7.9533
   695.92         7.9968
   696.06         8.0536
   696.20         8.1221
   696.34         8.1993
   696.48         8.2810
   696.62         8.3607
   696.76         8.4312
   696.90         8.4862
   697.04         8.5220
   697.18         8.5374
   697.32         8.5335
   697.46         8.5125
   697.60         8.4775
   697.74         8.4336
   697.88         8.3864
   698.02         8.3397
   698.16         8.2952
   698.30         8.2534
   698.44         8.2139
   698.58         8.1768
   698.72         8.1430
   698.86         8.1136
   699.00         8.0894
   699.14         8.0706
   699.28         8.0568
   699.42         8.0482
   699.56         8.0442
   699.70         8.0421
   699.84         8.0391
   699.98         8.0321
   700.12         8.0177
   700.26         7.9929
   700.40         7.9562
   700.54         7.9072
   700.68         7.8478
   700.82         7.7821
   700.96         7.7151
   701.10         7.6507
   701.24         7.5915
   701.38         7.5386
   701.52         7.4919
   701.66         7.4508
   701.80         7.4154
   701.94         7.3866
   702.08         7.3650
   702.22         7.3496
   702.36         7.3403
   702.50         7.3375
   702.64         7.3414
   702.78         7.3505
   702.92         7.3634
   703.06         7.3784
   703.20         7.3937
   703.34         7.4071
   703.48         7.4156
   703.62         7.4156
   703.76         7.4048
   703.90         7.3834
   704.04         7.3551
   704.18         7.3245
   704.32         7.2962
   704.46         7.2746
   704.60         7.2620
   704.74         7.2578
   704.88         7.2593
   705.02         7.2625
   705.16         7.2618
   705.30         7.2515
   705.44         7.2282
   705.58         7.1917
   705.72         7.1449
   705.86         7.0920
   706.00         7.0380
   706.14         6.9879
   706.28         6.9463
   706.42         6.9177
   706.56         6.9057
   706.70         6.9121
   706.84         6.9358
   706.98         6.9742
   707.12         7.0231
   707.26         7.0770
   707.40         7.1301
   707.54         7.1777
   707.68         7.2172
   707.82         7.2476
   707.96         7.2707
   708.10         7.2898
   708.24         7.3075
   708.38         7.3237
   708.52         7.3370
   708.66         7.3467
   708.80         7.3522
   708.94         7.3537
   709.08         7.3518
   709.22         7.3478
   709.36         7.3420
   709.50         7.3341
   709.64         7.3251
   709.78         7.3165
   709.92         7.3097
   710.06         7.3055
   710.20         7.3047
   710.34         7.3082
   710.48         7.3160
   710.62         7.3267
   710.76         7.3376
   710.90         7.3450
   711.04         7.3457
   711.18         7.3390
   711.32         7.3260
   711.46         7.3091
   711.60         7.2914
   711.74         7.2764
   711.88         7.2670
   712.02         7.2665
   712.16         7.2772
   712.30         7.2995
   712.44         7.3326
   712.58         7.3747
   712.72         7.4226
   712.86         7.4721
   713.00         7.5175
   713.14         7.5537
   713.28         7.5786
   713.42         7.5930
   713.56         7.5996
   713.70         7.6021
   713.84         7.6050
   713.98         7.6109
   714.12         7.6195
   714.26         7.6289
   714.40         7.6371
   714.54         7.6426
   714.68         7.6433
   714.82         7.6362
   714.96         7.6200
   715.10         7.5951
   715.24         7.5612
   715.38         7.5175
   715.52         7.4635
   715.66         7.4014
   715.80         7.3359
   715.94         7.2730
   716.08         7.2165
   716.22         7.1671
   716.36         7.1233
   716.50         7.0828
   716.64         7.0448
   716.78         7.0104
   716.92         6.9816
   717.06         6.9596
   717.20         6.9428
   717.34         6.9284
   717.48         6.9131
   717.62         6.8957
   717.76         6.8761
   717.90         6.8539
   718.04         6.8294
   718.18         6.8044
   718.32         6.7822
   718.46         6.7653
   718.60         6.7543
   718.74         6.7475
   718.88         6.7417
   719.02         6.7347
   719.16         6.7273
   719.30         6.7216
   719.44         6.7202
   719.58         6.7249
   719.72         6.7376
   719.86         6.7607
   720.00         6.7983
   720.14         6.8546
   720.28         6.9320
   720.42         7.0288
   720.56         7.1394
   720.70         7.2565
   720.84         7.3714
   720.98         7.4736
   721.12         7.5536
   721.26         7.6059
   721.40         7.6290
   721.54         7.6262
   721.68         7.6046
   721.82         7.5725
   721.96         7.5373
   722.10         7.5042
   722.24         7.4748
   722.38         7.4499
   722.52         7.4301
   722.66         7.4158
   722.80         7.4052
   722.94         7.3951
   723.08         7.3826
   723.22         7.3656
   723.36         7.3442
   723.50         7.3211
   723.64         7.3014
   723.78         7.2911
   723.92         7.2945
   724.06         7.3115
   724.20         7.3382
   724.34         7.3696
   724.48         7.4004
   724.62         7.4253
   724.76         7.4406
   724.90         7.4445
   725.04         7.4355
   725.18         7.4125
   725.32         7.3746
   725.46         7.3233
   725.60         7.2637
   725.74         7.2030
   725.88         7.1492
   726.02         7.1096
   726.16         7.0888
   726.30         7.0867
   726.44         7.0996
   726.58         7.1216
   726.72         7.1477
   726.86         7.1761
   727.00         7.2073
   727.14         7.2416
   727.28         7.2790
   727.42         7.3182
   727.56         7.3560
   727.70         7.3889
   727.84         7.4150
   727.98         7.4341
   728.12         7.4477
   728.26         7.4566
   728.40         7.4604
   728.54         7.4576
   728.68         7.4469
   728.82         7.4271
   728.96         7.3976
   729.10         7.3594
   729.24         7.3165
   729.38         7.2747
   729.52         7.2392
   729.66         7.2119
   729.80         7.1925
   729.94         7.1793
   730.08         7.1706
   730.22         7.1653
   730.36         7.1634
   730.50         7.1652
   730.64         7.1713
   730.78         7.1820
   730.92         7.1969
   731.06         7.2148
   731.20         7.2336
   731.34         7.2502
   731.48         7.2623
   731.62         7.2689
   731.76         7.2715
   731.90         7.2734
   732.04         7.2774
   732.18         7.2845
   732.32         7.2942
   732.46         7.3058
   732.60         7.3184
   732.74         7.3314
   732.88         7.3449
   733.02         7.3590
   733.16         7.3723
   733.30         7.3823
   733.44         7.3867
   733.58         7.3820
   733.72         7.3643
   733.86         7.3301
   734.00         7.2804
   734.14         7.2219
   734.28         7.1631
   734.42         7.1113
   734.56         7.0714
   734.70         7.0458
   734.84         7.0356
   734.98         7.0418
   735.12         7.0644
   735.26         7.1023
   735.40         7.1526
   735.54         7.2111
   735.68         7.2713
   735.82         7.3267
   735.96         7.3732
   736.10         7.4094
   736.24         7.4348
   736.38         7.4506
   736.52         7.4595
   736.66         7.4650
   736.80         7.4685
   736.94         7.4688
   737.08         7.4647
   737.22         7.4570
   737.36         7.4484
   737.50         7.4419
   737.64         7.4392
   737.78         7.4396
   737.92         7.4414
   738.06         7.4432
   738.20         7.4438
   738.34         7.4411
   738.48         7.4321
   738.62         7.4142
   738.76         7.3851
   738.90         7.3425
   739.04         7.2860
   739.18         7.2172
   739.32         7.1409
   739.46         7.0635
   739.60         6.9919
   739.74         6.9316
   739.88         6.8863
   740.02         6.8579
   740.16         6.8467
   740.30         6.8521
   740.44         6.8738
   740.58         6.9116
   740.72         6.9648
   740.86         7.0302
   741.00         7.1035
   741.14         7.1796
   741.28         7.2538
   741.42         7.3215
   741.56         7.3792
   741.70         7.4239
   741.84         7.4539
   741.98         7.4688
   742.12         7.4693
   742.26         7.4573
   742.40         7.4371
   742.54         7.4145
   742.68         7.3955
   742.82         7.3845
   742.96         7.3845
   743.10         7.3955
   743.24         7.4145
   743.38         7.4371
   743.52         7.4573
   743.66         7.4693
   743.80         7.4688
   743.94         7.4539
   744.08         7.4239
   744.22         7.3792
