# File HD12842
# Wavelength [nm]    Normalized Amplitude
   349.70         59.7421
   349.84         59.8532
   349.98         60.1826
   350.12         60.7122
   350.26         61.4234
   350.40         62.2689
   350.54         63.1696
   350.68         64.0268
   350.82         64.7333
   350.96         65.1983
   351.10         65.3609
   351.24         65.1983
   351.38         64.7333
   351.52         64.0268
   351.66         63.1696
   351.80         62.2689
   351.94         61.4234
   352.08         60.7122
   352.22         60.1826
   352.36         59.8532
   352.50         59.7421
   352.64         59.8775
   352.78         60.2726
   352.92         60.8991
   353.06         61.6971
   353.20         62.5980
   353.34         63.5304
   353.48         64.4285
   353.62         65.2452
   353.76         65.9518
   353.90         66.5367
   354.04         67.0278
   354.18         67.4546
   354.32         67.7964
   354.46         68.0028
   354.60         68.0377
   354.74         67.9080
   354.88         67.6483
   355.02         67.3131
   355.16         66.9654
   355.30         66.6433
   355.44         66.3566
   355.58         66.0928
   355.72         65.8166
   355.86         65.4853
   356.00         65.0670
   356.14         64.5489
   356.28         63.9360
   356.42         63.2460
   356.56         62.5240
   356.70         61.8395
   356.84         61.2329
   356.98         60.7170
   357.12         60.3161
   357.26         60.0428
   357.40         59.8663
   357.54         59.7116
   357.68         59.5027
   357.82         59.1849
   357.96         58.7391
   358.10         58.2044
   358.24         57.6610
   358.38         57.2095
   358.52         56.9624
   358.66         57.0161
   358.80         57.4127
   358.94         58.1408
   359.08         59.1546
   359.22         60.3774
   359.36         61.6965
   359.50         62.9640
   359.64         64.0372
   359.78         64.8191
   359.92         65.2568
   360.06         65.3389
   360.20         65.1025
   360.34         64.6364
   360.48         64.0573
   360.62         63.4702
   360.76         62.9395
   360.90         62.4955
   361.04         62.1550
   361.18         61.9313
   361.32         61.8306
   361.46         61.8445
   361.60         61.9579
   361.74         62.1470
   361.88         62.3691
   362.02         62.5695
   362.16         62.6885
   362.30         62.6974
   362.44         62.6098
   362.58         62.4531
   362.72         62.2628
   362.86         62.0811
   363.00         61.9464
   363.14         61.8685
   363.28         61.8337
   363.42         61.8491
   363.56         61.9471
   363.70         62.1480
   363.84         62.4361
   363.98         62.7753
   364.12         63.1297
   364.26         63.4768
   364.40         63.8261
   364.54         64.2209
   364.68         64.7155
   364.82         65.3498
   364.96         66.1503
   365.10         67.1126
   365.24         68.1801
   365.38         69.2688
   365.52         70.2999
   365.66         71.2133
   365.80         71.9564
   365.94         72.4933
   366.08         72.8188
   366.22         72.9385
   366.36         72.8683
   366.50         72.6544
   366.64         72.3784
   366.78         72.1265
   366.92         71.9630
   367.06         71.9246
   367.20         72.0096
   367.34         72.1805
   367.48         72.3920
   367.62         72.6164
   367.76         72.8446
   367.90         73.0911
   368.04         73.4041
   368.18         73.8460
   368.32         74.4652
   368.46         75.2813
   368.60         76.2996
   368.74         77.5329
   368.88         78.9938
   369.02         80.6694
   369.16         82.4977
   369.30         84.3596
   369.44         86.1027
   369.58         87.5821
   369.72         88.6892
   369.86         89.3667
   370.00         89.6164
   370.14         89.5000
   370.28         89.1356
   370.42         88.6972
   370.56         88.3838
   370.70         88.3628
   370.84         88.7116
   370.98         89.3927
   371.12         90.3085
   371.26         91.3767
   371.40         92.5449
   371.54         93.7591
   371.68         94.9447
   371.82         96.0236
   371.96         96.9237
   372.10         97.5732
   372.24         97.9042
   372.38         97.8725
   372.52         97.4920
   372.66         96.8606
   372.80         96.1467
   372.94         95.5484
   373.08         95.2390
   373.22         95.3126
   373.36         95.7606
   373.50         96.4790
   373.64         97.3127
   373.78         98.1224
   373.92         98.8046
   374.06         99.2979
   374.20         99.6001
   374.34         99.7547
   374.48         99.8134
   374.62         99.8101
   374.76         99.7837
   374.90         99.8275
   375.04         100.1044
   375.18         100.8023
   375.32         102.0458
   375.46         103.8224
   375.60         105.9654
   375.74         108.1858
   375.88         110.1489
   376.02         111.5708
   376.16         112.2915
   376.30         112.3210
   376.44         111.8568
   376.58         111.2501
   376.72         110.9114
   376.86         111.1985
   377.00         112.3408
   377.14         114.4191
   377.28         117.3912
   377.42         121.1132
   377.56         125.3500
   377.70         129.7888
   377.84         134.0583
   377.98         137.7678
   378.12         140.5461
   378.26         142.0885
   378.40         142.2056
   378.54         140.8538
   378.68         138.1458
   378.82         134.3502
   378.96         129.8888
   379.10         125.2963
   379.24         121.1282
   379.38         117.8567
   379.52         115.8104
   379.66         115.1836
   379.80         116.0593
   379.94         118.3943
   380.08         121.9909
   380.22         126.5278
   380.36         131.6266
   380.50         136.8992
   380.64         141.9759
   380.78         146.5107
   380.92         150.2234
   381.06         152.9510
   381.20         154.6483
   381.34         155.3628
   381.48         155.2065
   381.62         154.3090
   381.76         152.7699
   381.90         150.6323
   382.04         147.8862
   382.18         144.5000
   382.32         140.4582
   382.46         135.7823
   382.60         130.5532
   382.74         124.9554
   382.88         119.3110
   383.02         114.0545
   383.16         109.6495
   383.30         106.4975
   383.44         104.8793
   383.58         104.9415
   383.72         106.6879
   383.86         109.9765
   384.00         114.5600
   384.14         120.1345
   384.28         126.3633
   384.42         132.8829
   384.56         139.3020
   384.70         145.2468
   384.84         150.4447
   384.98         154.7732
   385.12         158.2666
   385.26         161.0564
   385.40         163.3063
   385.54         165.1953
   385.68         166.8951
   385.82         168.5176
   385.96         170.0757
   386.10         171.4979
   386.24         172.6778
   386.38         173.5234
   386.52         173.9735
   386.66         173.9856
   386.80         173.5266
   386.94         172.5665
   387.08         171.0667
   387.22         168.9813
   387.36         166.2801
   387.50         162.9492
   387.64         158.9751
   387.78         154.3678
   387.92         149.2064
   388.06         143.6692
   388.20         138.0117
   388.34         132.5033
   388.48         127.3923
   388.62         122.9170
   388.76         119.3326
   388.90         116.8978
   389.04         115.8119
   389.18         116.1423
   389.32         117.8061
   389.46         120.6036
   389.60         124.2560
   389.74         128.4491
   389.88         132.8756
   390.02         137.2535
   390.16         141.3407
   390.30         144.9638
   390.44         148.0304
   390.58         150.4927
   390.72         152.2986
   390.86         153.3903
   391.00         153.7437
   391.14         153.3895
   391.28         152.3874
   391.42         150.7832
   391.56         148.5717
   391.70         145.6698
   391.84         141.9259
   391.98         137.1710
   392.12         131.2844
   392.26         124.2460
   392.40         116.1716
   392.54         107.3329
   392.68         98.1532
   392.82         89.1826
   392.96         81.0448
   393.10         74.3579
   393.24         69.6616
   393.38         67.3613
   393.52         67.6680
   393.66         70.5438
   393.80         75.6864
   393.94         82.5705
   394.08         90.5431
   394.22         98.9288
   394.36         107.1021
   394.50         114.5432
   394.64         120.8950
   394.78         125.9792
   394.92         129.7525
   395.06         132.2414
   395.20         133.4753
   395.34         133.4293
   395.48         132.0107
   395.62         129.1035
   395.76         124.6551
   395.90         118.7521
   396.04         111.6549
   396.18         103.7982
   396.32         95.7710
   396.46         88.2679
   396.60         82.0067
   396.74         77.6293
   396.88         75.6006
   397.02         76.1477
   397.16         79.2629
   397.30         84.7277
   397.44         92.1233
   397.58         100.8582
   397.72         110.2558
   397.86         119.6634
   398.00         128.5310
   398.14         136.4532
   398.28         143.1926
   398.42         148.6784
   398.56         152.9679
   398.70         156.2084
   398.84         158.6045
   398.98         160.3716
   399.12         161.6854
   399.26         162.6531
   399.40         163.3339
   399.54         163.7941
   399.68         164.1374
   399.82         164.4876
   399.96         164.9476
   400.10         165.5718
   400.24         166.3721
   400.38         167.3486
   400.52         168.4982
   400.66         169.7983
   400.80         171.1954
   400.94         172.6106
   401.08         173.9502
   401.22         175.1284
   401.36         176.1000
   401.50         176.8463
   401.64         177.3254
   401.78         177.4455
   401.92         177.1103
   402.06         176.2987
   402.20         175.0802
   402.34         173.5747
   402.48         171.9355
   402.62         170.3441
   402.76         168.9832
   402.90         168.0024
   403.04         167.4877
   403.18         167.4495
   403.32         167.8219
   403.46         168.4879
   403.60         169.3209
   403.74         170.2128
   403.88         171.0764
   404.02         171.8223
   404.16         172.3279
   404.30         172.4689
   404.44         172.1917
   404.58         171.5622
   404.72         170.7485
   404.86         169.9462
   405.00         169.2970
   405.14         168.8489
   405.28         168.5784
   405.42         168.4192
   405.56         168.2936
   405.70         168.1502
   405.84         167.9615
   405.98         167.7128
   406.12         167.3920
   406.26         166.9541
   406.40         166.2975
   406.54         165.3071
   406.68         163.9323
   406.82         162.2237
   406.96         160.3227
   407.10         158.4020
   407.24         156.6094
   407.38         155.0540
   407.52         153.8087
   407.66         152.9250
   407.80         152.4534
   407.94         152.4384
   408.08         152.8672
   408.22         153.6418
   408.36         154.5816
   408.50         155.4325
   408.64         155.9014
   408.78         155.6779
   408.92         154.4814
   409.06         152.1690
   409.20         148.8108
   409.34         144.6652
   409.48         140.0886
   409.62         135.4617
   409.76         131.1592
   409.90         127.5396
   410.04         124.9326
   410.18         123.6069
   410.32         123.7179
   410.46         125.2614
   410.60         128.0611
   410.74         131.8021
   410.88         136.0868
   411.02         140.4876
   411.16         144.6051
   411.30         148.1257
   411.44         150.8514
   411.58         152.7146
   411.72         153.7693
   411.86         154.1344
   412.00         153.9487
   412.14         153.3669
   412.28         152.5691
   412.42         151.7636
   412.56         151.1750
   412.70         151.0149
   412.84         151.4282
   412.98         152.4383
   413.12         153.9456
   413.26         155.7866
   413.40         157.7992
   413.54         159.8377
   413.68         161.7574
   413.82         163.4263
   413.96         164.7429
   414.10         165.6337
   414.24         166.0527
   414.38         166.0054
   414.52         165.5676
   414.66         164.8712
   414.80         164.0612
   414.94         163.2652
   415.08         162.5859
   415.22         162.1008
   415.36         161.8545
   415.50         161.8498
   415.64         162.0587
   415.78         162.4411
   415.92         162.9344
   416.06         163.4295
   416.20         163.7778
   416.34         163.8290
   416.48         163.4606
   416.62         162.5897
   416.76         161.1945
   416.90         159.3304
   417.04         157.1244
   417.18         154.7498
   417.32         152.3873
   417.46         150.2020
   417.60         148.3492
   417.74         146.9765
   417.88         146.1987
   418.02         146.0684
   418.16         146.5681
   418.30         147.6164
   418.44         149.0618
   418.58         150.7034
   418.72         152.3485
   418.86         153.8461
   419.00         155.0793
   419.14         155.9533
   419.28         156.4120
   419.42         156.4549
   419.56         156.1269
   419.70         155.5048
   419.84         154.7013
   419.98         153.8637
   420.12         153.1552
   420.26         152.7240
   420.40         152.6760
   420.54         153.0582
   420.68         153.8554
   420.82         154.9988
   420.96         156.3620
   421.10         157.7626
   421.24         158.9952
   421.38         159.8737
   421.52         160.2688
   421.66         160.1427
   421.80         159.5580
   421.94         158.6385
   422.08         157.5185
   422.22         156.3213
   422.36         155.1536
   422.50         154.0966
   422.64         153.2025
   422.78         152.5043
   422.92         152.0292
   423.06         151.8038
   423.20         151.8386
   423.34         152.1026
   423.48         152.5142
   423.62         152.9599
   423.76         153.3333
   423.90         153.5709
   424.04         153.6699
   424.18         153.6813
   424.32         153.6749
   424.46         153.6953
   424.60         153.7361
   424.74         153.7622
   424.88         153.7569
   425.02         153.7476
   425.16         153.7955
   425.30         153.9812
   425.44         154.3811
   425.58         155.0244
   425.72         155.8601
   425.86         156.7621
   426.00         157.5748
   426.14         158.1693
   426.28         158.4790
   426.42         158.5046
   426.56         158.2991
   426.70         157.9441
   426.84         157.5222
   426.98         157.0941
   427.12         156.6919
   427.26         156.3320
   427.40         156.0309
   427.54         155.7995
   427.68         155.6083
   427.82         155.3749
   427.96         154.9998
   428.10         154.4013
   428.24         153.5283
   428.38         152.3683
   428.52         150.9546
   428.66         149.3579
   428.80         147.6569
   428.94         145.9112
   429.08         144.1730
   429.22         142.5027
   429.36         140.9555
   429.50         139.5730
   429.64         138.3970
   429.78         137.4894
   429.92         136.9268
   430.06         136.7471
   430.20         136.9185
   430.34         137.3775
   430.48         138.0901
   430.62         139.0515
   430.76         140.2348
   430.90         141.5656
   431.04         142.9387
   431.18         144.2410
   431.32         145.3562
   431.46         146.1972
   431.60         146.7490
   431.74         147.0615
   431.88         147.1906
   432.02         147.1555
   432.16         146.9512
   432.30         146.5583
   432.44         145.9192
   432.58         144.9038
   432.72         143.3265
   432.86         141.0311
   433.00         137.9770
   433.14         134.2575
   433.28         130.0739
   433.42         125.7089
   433.56         121.5025
   433.70         117.8068
   433.84         114.9223
   433.98         113.0629
   434.12         112.3717
   434.26         112.9277
   434.40         114.7147
   434.54         117.6069
   434.68         121.3890
   434.82         125.7808
   434.96         130.4648
   435.10         135.1357
   435.24         139.5535
   435.38         143.5770
   435.52         147.1514
   435.66         150.2762
   435.80         152.9783
   435.94         155.2846
   436.08         157.1903
   436.22         158.6364
   436.36         159.5411
   436.50         159.8730
   436.64         159.6983
   436.78         159.1682
   436.92         158.4555
   437.06         157.6794
   437.20         156.8719
   437.34         156.0107
   437.48         155.0836
   437.62         154.1234
   437.76         153.1833
   437.90         152.3000
   438.04         151.4779
   438.18         150.6931
   438.32         149.9220
   438.46         149.1671
   438.60         148.4392
   438.74         147.7243
   438.88         147.0023
   439.02         146.3015
   439.16         145.6918
   439.30         145.2250
   439.44         144.9066
   439.58         144.7015
   439.72         144.5600
   439.86         144.4598
   440.00         144.4354
   440.14         144.5447
   440.28         144.7886
   440.42         145.0822
   440.56         145.3067
   440.70         145.3702
   440.84         145.2321
   440.98         144.8999
   441.12         144.4133
   441.26         143.8256
   441.40         143.2048
   441.54         142.6381
   441.68         142.2091
   441.82         141.9615
   441.96         141.8897
   442.10         141.9555
   442.24         142.1037
   442.38         142.2895
   442.52         142.5094
   442.66         142.7895
   442.80         143.1362
   442.94         143.5100
   443.08         143.8456
   443.22         144.0959
   443.36         144.2559
   443.50         144.3370
   443.64         144.3440
   443.78         144.2831
   443.92         144.1763
   444.06         144.0550
   444.20         143.9324
   444.34         143.8009
   444.48         143.6564
   444.62         143.5168
   444.76         143.4080
   444.90         143.3438
   445.04         143.3212
   445.18         143.3199
   445.32         143.2916
   445.46         143.1658
   445.60         142.8818
   445.74         142.4312
   445.88         141.8868
   446.02         141.3774
   446.16         141.0259
   446.30         140.9235
   446.44         141.1354
   446.58         141.6957
   446.72         142.5775
   446.86         143.6828
   447.00         144.8854
   447.14         146.0846
   447.28         147.2172
   447.42         148.2344
   447.56         149.0869
   447.70         149.7278
   447.84         150.1249
   447.98         150.2676
   448.12         150.1628
   448.26         149.8412
   448.40         149.3714
   448.54         148.8628
   448.68         148.4281
   448.82         148.1418
   448.96         148.0382
   449.10         148.1382
   449.24         148.4539
   449.38         148.9694
   449.52         149.6516
   449.66         150.4709
   449.80         151.4084
   449.94         152.4415
   450.08         153.5177
   450.22         154.5525
   450.36         155.4557
   450.50         156.1599
   450.64         156.6181
   450.78         156.7910
   450.92         156.6524
   451.06         156.2014
   451.20         155.4614
   451.34         154.4703
   451.48         153.2686
   451.62         151.9034
   451.76         150.4343
   451.90         148.9100
   452.04         147.3556
   452.18         145.8028
   452.32         144.3237
   452.46         143.0405
   452.60         142.0785
   452.74         141.5033
   452.88         141.3152
   453.02         141.4773
   453.16         141.9313
   453.30         142.5998
   453.44         143.3907
   453.58         144.1972
   453.72         144.9039
   453.86         145.4110
   454.00         145.6387
   454.14         145.5147
   454.28         145.0024
   454.42         144.1357
   454.56         143.0110
   454.70         141.7697
   454.84         140.5848
   454.98         139.6210
   455.12         138.9832
   455.26         138.6972
   455.40         138.7396
   455.54         139.0880
   455.68         139.7265
   455.82         140.6126
   455.96         141.6604
   456.10         142.7637
   456.24         143.8304
   456.38         144.8095
   456.52         145.6888
   456.66         146.4557
   456.80         147.0771
   456.94         147.5145
   457.08         147.7322
   457.22         147.7035
   457.36         147.4251
   457.50         146.9137
   457.64         146.1871
   457.78         145.2765
   457.92         144.2535
   458.06         143.2166
   458.20         142.2635
   458.34         141.4684
   458.48         140.8820
   458.62         140.5484
   458.76         140.5076
   458.90         140.7725
   459.04         141.3051
   459.18         142.0276
   459.32         142.8504
   459.46         143.6940
   459.60         144.5069
   459.74         145.2772
   459.88         146.0265
   460.02         146.7766
   460.16         147.5161
   460.30         148.2038
   460.44         148.8036
   460.58         149.2921
   460.72         149.6466
   460.86         149.8543
   461.00         149.9204
   461.14         149.8658
   461.28         149.7243
   461.42         149.5349
   461.56         149.3344
   461.70         149.1580
   461.84         149.0477
   461.98         149.0364
   462.12         149.1209
   462.26         149.2673
   462.40         149.4305
   462.54         149.5658
   462.68         149.6404
   462.82         149.6476
   462.96         149.6039
   463.10         149.5338
   463.24         149.4620
   463.38         149.4124
   463.52         149.4077
   463.66         149.4589
   463.80         149.5642
   463.94         149.7137
   464.08         149.8887
   464.22         150.0566
   464.36         150.1755
   464.50         150.2052
   464.64         150.1309
   464.78         149.9811
   464.92         149.8141
   465.06         149.6786
   465.20         149.5901
   465.34         149.5298
   465.48         149.4396
   465.62         149.2303
   465.76         148.8149
   465.90         148.1477
   466.04         147.2544
   466.18         146.2322
   466.32         145.2185
   466.46         144.3524
   466.60         143.7409
   466.74         143.4412
   466.88         143.4637
   467.02         143.7948
   467.16         144.4202
   467.30         145.3262
   467.44         146.4658
   467.58         147.7227
   467.72         148.9423
   467.86         149.9881
   468.00         150.7636
   468.14         151.2246
   468.28         151.3861
   468.42         151.3004
   468.56         151.0349
   468.70         150.6606
   468.84         150.2201
   468.98         149.7163
   469.12         149.1328
   469.26         148.4540
   469.40         147.6812
   469.54         146.8387
   469.68         145.9638
   469.82         145.1000
   469.96         144.2945
   470.10         143.5803
   470.24         142.9718
   470.38         142.4877
   470.52         142.1530
   470.66         141.9850
   470.80         141.9964
   470.94         142.1887
   471.08         142.5402
   471.22         143.0170
   471.36         143.5765
   471.50         144.1555
   471.64         144.6752
   471.78         145.0542
   471.92         145.2144
   472.06         145.0992
   472.20         144.6875
   472.34         143.9978
   472.48         143.0934
   472.62         142.0707
   472.76         141.0294
   472.90         140.0662
   473.04         139.2746
   473.18         138.7325
   473.32         138.4953
   473.46         138.5921
   473.60         139.0178
   473.74         139.7296
   473.88         140.6565
   474.02         141.7062
   474.16         142.7721
   474.30         143.7551
   474.44         144.5751
   474.58         145.1797
   474.72         145.5487
   474.86         145.6753
   475.00         145.5503
   475.14         145.1601
   475.28         144.4937
   475.42         143.5640
   475.56         142.4302
   475.70         141.1917
   475.84         139.9603
   475.98         138.8430
   476.12         137.9302
   476.26         137.2880
   476.40         136.9561
   476.54         136.9491
   476.68         137.2463
   476.82         137.7950
   476.96         138.5270
   477.10         139.3574
   477.24         140.1836
   477.38         140.8987
   477.52         141.4117
   477.66         141.6632
   477.80         141.6337
   477.94         141.3552
   478.08         140.9093
   478.22         140.3991
   478.36         139.9081
   478.50         139.4799
   478.64         139.1327
   478.78         138.8761
   478.92         138.7160
   479.06         138.6515
   479.20         138.6634
   479.34         138.7166
   479.48         138.7799
   479.62         138.8318
   479.76         138.8565
   479.90         138.8466
   480.04         138.8042
   480.18         138.7431
   480.32         138.6848
   480.46         138.6625
   480.60         138.7122
   480.74         138.8493
   480.88         139.0559
   481.02         139.2786
   481.16         139.4518
   481.30         139.5288
   481.44         139.4895
   481.58         139.3330
   481.72         139.0610
   481.86         138.6775
   482.00         138.2179
   482.14         137.7357
   482.28         137.2694
   482.42         136.8465
   482.56         136.4843
   482.70         136.1876
   482.84         135.9545
   482.98         135.7816
   483.12         135.6624
   483.26         135.5723
   483.40         135.4647
   483.54         135.2809
   483.68         134.9613
   483.82         134.4653
   483.96         133.7897
   484.10         132.9433
   484.24         131.9054
   484.38         130.6275
   484.52         129.0666
   484.66         127.1913
   484.80         124.9466
   484.94         122.2734
   485.08         119.1677
   485.22         115.6989
   485.36         112.0144
   485.50         108.3276
   485.64         104.8854
   485.78         101.9186
   485.92         99.5998
   486.06         98.0346
   486.20         97.2756
   486.34         97.3359
   486.48         98.1837
   486.62         99.7230
   486.76         101.7882
   486.90         104.1819
   487.04         106.7219
   487.18         109.2404
   487.32         111.5793
   487.46         113.6297
   487.60         115.3662
   487.74         116.8276
   487.88         118.0712
   488.02         119.1450
   488.16         120.0835
   488.30         120.9113
   488.44         121.6479
   488.58         122.3165
   488.72         122.9413
   488.86         123.5418
   489.00         124.1372
   489.14         124.7437
   489.28         125.3784
   489.42         126.0779
   489.56         126.8789
   489.70         127.7720
   489.84         128.6926
   489.98         129.5637
   490.12         130.3312
   490.26         130.9613
   490.40         131.4391
   490.54         131.7647
   490.68         131.9362
   490.82         131.9336
   490.96         131.7157
   491.10         131.2365
   491.24         130.4702
   491.38         129.4385
   491.52         128.2282
   491.66         126.9848
   491.80         125.8734
   491.94         125.0382
   492.08         124.5682
   492.22         124.4711
   492.36         124.6953
   492.50         125.1844
   492.64         125.8987
   492.78         126.7948
   492.92         127.8120
   493.06         128.8769
   493.20         129.9033
   493.34         130.8040
   493.48         131.5277
   493.62         132.0786
   493.76         132.4991
   493.90         132.8505
   494.04         133.1977
   494.18         133.5755
   494.32         133.9725
   494.46         134.3356
   494.60         134.5745
   494.74         134.5990
   494.88         134.3677
   495.02         133.8995
   495.16         133.2564
   495.30         132.5201
   495.44         131.7733
   495.58         131.0898
   495.72         130.5201
   495.86         130.0841
   496.00         129.7873
   496.14         129.6328
   496.28         129.6111
   496.42         129.7011
   496.56         129.8786
   496.70         130.1021
   496.84         130.3077
   496.98         130.4264
   497.12         130.3857
   497.26         130.1261
   497.40         129.6410
   497.54         128.9736
   497.68         128.1834
   497.82         127.3390
   497.96         126.5116
   498.10         125.7546
   498.24         125.1028
   498.38         124.5885
   498.52         124.2518
   498.66         124.1327
   498.80         124.2419
   498.94         124.5516
   499.08         125.0055
   499.22         125.5196
   499.36         125.9847
   499.50         126.2928
   499.64         126.3708
   499.78         126.2038
   499.92         125.8318
   500.06         125.3172
   500.20         124.7107
   500.34         124.0392
   500.48         123.3173
   500.62         122.5498
   500.76         121.7272
   500.90         120.8515
   501.04         119.9585
   501.18         119.1061
   501.32         118.3551
   501.46         117.7556
   501.60         117.3452
   501.74         117.1511
   501.88         117.1840
   502.02         117.4380
   502.16         117.9033
   502.30         118.5700
   502.44         119.4043
   502.58         120.3312
   502.72         121.2543
   502.86         122.0796
   503.00         122.7233
   503.14         123.1308
   503.28         123.2940
   503.42         123.2559
   503.56         123.0997
   503.70         122.9123
   503.84         122.7466
   503.98         122.6254
   504.12         122.5525
   504.26         122.5178
   504.40         122.5127
   504.54         122.5379
   504.68         122.6069
   504.82         122.7425
   504.96         122.9628
   505.10         123.2704
   505.24         123.6509
   505.38         124.0775
   505.52         124.5135
   505.66         124.9254
   505.80         125.2990
   505.94         125.6275
   506.08         125.8791
   506.22         125.9938
   506.36         125.9155
   506.50         125.6250
   506.64         125.1507
   506.78         124.5386
   506.92         123.8285
   507.06         123.0654
   507.20         122.3013
   507.34         121.5867
   507.48         120.9608
   507.62         120.4477
   507.76         120.0622
   507.90         119.8183
   508.04         119.7314
   508.18         119.8102
   508.32         120.0518
   508.46         120.4349
   508.60         120.9085
   508.74         121.4007
   508.88         121.8472
   509.02         122.2065
   509.16         122.4542
   509.30         122.5777
   509.44         122.5781
   509.58         122.4795
   509.72         122.3211
   509.86         122.1378
   510.00         121.9555
   510.14         121.7947
   510.28         121.6708
   510.42         121.5931
   510.56         121.5680
   510.70         121.5935
   510.84         121.6495
   510.98         121.7043
   511.12         121.7269
   511.26         121.6895
   511.40         121.5717
   511.54         121.3652
   511.68         121.0688
   511.82         120.6823
   511.96         120.2086
   512.10         119.6607
   512.24         119.0628
   512.38         118.4497
   512.52         117.8657
   512.66         117.3522
   512.80         116.9317
   512.94         116.6135
   513.08         116.4095
   513.22         116.3263
   513.36         116.3459
   513.50         116.4303
   513.64         116.5394
   513.78         116.6441
   513.92         116.7289
   514.06         116.7809
   514.20         116.7793
   514.34         116.7044
   514.48         116.5607
   514.62         116.3815
   514.76         116.2060
   514.90         116.0582
   515.04         115.9418
   515.18         115.8494
   515.32         115.7638
   515.46         115.6503
   515.60         115.4600
   515.74         115.1379
   515.88         114.6332
   516.02         113.9170
   516.16         112.9982
   516.30         111.9325
   516.44         110.8186
   516.58         109.7743
   516.72         108.9087
   516.86         108.3150
   517.00         108.0657
   517.14         108.1906
   517.28         108.6553
   517.42         109.3653
   517.56         110.1946
   517.70         111.0124
   517.84         111.6917
   517.98         112.1176
   518.12         112.2038
   518.26         111.9162
   518.40         111.2900
   518.54         110.4134
   518.68         109.4001
   518.82         108.3793
   518.96         107.4772
   519.10         106.7831
   519.24         106.3261
   519.38         106.0832
   519.52         106.0026
   519.66         106.0315
   519.80         106.1362
   519.94         106.3045
   520.08         106.5402
   520.22         106.8534
   520.36         107.2372
   520.50         107.6693
   520.64         108.1355
   520.78         108.6348
   520.92         109.1766
   521.06         109.7740
   521.20         110.4231
   521.34         111.0844
   521.48         111.6789
   521.62         112.1115
   521.76         112.3063
   521.90         112.2246
   522.04         111.8685
   522.18         111.2718
   522.32         110.4896
   522.46         109.5945
   522.60         108.6728
   522.74         107.8129
   522.88         107.0912
   523.02         106.5708
   523.16         106.3098
   523.30         106.3523
   523.44         106.6999
   523.58         107.3039
   523.72         108.0793
   523.86         108.9195
   524.00         109.7150
   524.14         110.3832
   524.28         110.8888
   524.42         111.2266
   524.56         111.4037
   524.70         111.4415
   524.84         111.3700
   524.98         111.2140
   525.12         110.9812
   525.26         110.6544
   525.40         110.1986
   525.54         109.5778
   525.68         108.7677
   525.82         107.7562
   525.96         106.5536
   526.10         105.1988
   526.24         103.7522
   526.38         102.2913
   526.52         100.9091
   526.66         99.7067
   526.80         98.7761
   526.94         98.1826
   527.08         97.9528
   527.22         98.0727
   527.36         98.4929
   527.50         99.1385
   527.64         99.9304
   527.78         100.8095
   527.92         101.7441
   528.06         102.7202
   528.20         103.7276
   528.34         104.7518
   528.48         105.7698
   528.62         106.7521
   528.76         107.6629
   528.90         108.4592
   529.04         109.1064
   529.18         109.5868
   529.32         109.8921
   529.46         110.0193
   529.60         109.9791
   529.74         109.7978
   529.88         109.5154
   530.02         109.1809
   530.16         108.8360
   530.30         108.5025
   530.44         108.1812
   530.58         107.8579
   530.72         107.5156
   530.86         107.1513
   531.00         106.7778
   531.14         106.4087
   531.28         106.0485
   531.42         105.6945
   531.56         105.3368
   531.70         104.9604
   531.84         104.5581
   531.98         104.1407
   532.12         103.7272
   532.26         103.3349
   532.40         102.9758
   532.54         102.6536
   532.68         102.3633
   532.82         102.0997
   532.96         101.8743
   533.10         101.7175
   533.24         101.6656
   533.38         101.7447
   533.52         101.9587
   533.66         102.2863
   533.80         102.6893
   533.94         103.1284
   534.08         103.5753
   534.22         104.0219
   534.36         104.4794
   534.50         104.9675
   534.64         105.4939
   534.78         106.0425
   534.92         106.5790
   535.06         107.0566
   535.20         107.4268
   535.34         107.6553
   535.48         107.7288
   535.62         107.6502
   535.76         107.4253
   535.90         107.0592
   536.04         106.5661
   536.18         105.9782
   536.32         105.3491
   536.46         104.7473
   536.60         104.2377
   536.74         103.8674
   536.88         103.6586
   537.02         103.6053
   537.16         103.6786
   537.30         103.8388
   537.44         104.0464
   537.58         104.2641
   537.72         104.4594
   537.86         104.6114
   538.00         104.7117
   538.14         104.7604
   538.28         104.7619
   538.42         104.7110
   538.56         104.5912
   538.70         104.3938
   538.84         104.1296
   538.98         103.8179
   539.12         103.4663
   539.26         103.0624
   539.40         102.5896
   539.54         102.0520
   539.68         101.4777
   539.82         100.9042
   539.96         100.3675
   540.10         99.9040
   540.24         99.5430
   540.38         99.2966
   540.52         99.1706
   540.66         99.1686
   540.80         99.2876
   540.94         99.5125
   541.08         99.8132
   541.22         100.1576
   541.36         100.5247
   541.50         100.8945
   541.64         101.2333
   541.78         101.5013
   541.92         101.6748
   542.06         101.7530
   542.20         101.7452
   542.34         101.6660
   542.48         101.5426
   542.62         101.4156
   542.76         101.3313
   542.90         101.3274
   543.04         101.4296
   543.18         101.6491
   543.32         101.9667
   543.46         102.3352
   543.60         102.6931
   543.74         102.9847
   543.88         103.1842
   544.02         103.2951
   544.16         103.3240
   544.30         103.2638
   544.44         103.1031
   544.58         102.8515
   544.72         102.5429
   544.86         102.2243
   545.00         101.9480
   545.14         101.7560
   545.28         101.6671
   545.42         101.6756
   545.56         101.7536
   545.70         101.8620
   545.84         101.9663
   545.98         102.0447
   546.12         102.0903
   546.26         102.1071
   546.40         102.0979
   546.54         102.0518
   546.68         101.9455
   546.82         101.7571
   546.96         101.4835
   547.10         101.1547
   547.24         100.8228
   547.38         100.5292
   547.52         100.2879
   547.66         100.0979
   547.80         99.9570
   547.94         99.8641
   548.08         99.8161
   548.22         99.8116
   548.36         99.8539
   548.50         99.9441
   548.64         100.0686
   548.78         100.1967
   548.92         100.2940
   549.06         100.3362
   549.20         100.3160
   549.34         100.2455
   549.48         100.1352
   549.62         99.9821
   549.76         99.7792
   549.90         99.5203
   550.04         99.2040
   550.18         98.8428
   550.32         98.4700
   550.46         98.1319
   550.60         97.8707
   550.74         97.7184
   550.88         97.7006
   551.02         97.8277
   551.16         98.0814
   551.30         98.4154
   551.44         98.7680
   551.58         99.0735
   551.72         99.2733
   551.86         99.3281
   552.00         99.2235
   552.14         98.9649
   552.28         98.5728
   552.42         98.0803
   552.56         97.5364
   552.70         97.0018
   552.84         96.5396
   552.98         96.2053
   553.12         96.0313
   553.26         96.0212
   553.40         96.1603
   553.54         96.4211
   553.68         96.7629
   553.82         97.1422
   553.96         97.5283
   554.10         97.9042
   554.24         98.2622
   554.38         98.6029
   554.52         98.9259
   554.66         99.2146
   554.80         99.4389
   554.94         99.5733
   555.08         99.6111
   555.22         99.5643
   555.36         99.4504
   555.50         99.2839
   555.64         99.0710
   555.78         98.8118
   555.92         98.5150
   556.06         98.2021
   556.20         97.8978
   556.34         97.6235
   556.48         97.3954
   556.62         97.2224
   556.76         97.1045
   556.90         97.0340
   557.04         96.9985
   557.18         96.9840
   557.32         96.9787
   557.46         96.9735
   557.60         96.9505
   557.74         96.8790
   557.88         96.7304
   558.02         96.4913
   558.16         96.1627
   558.30         95.7565
   558.44         95.3006
   558.58         94.8338
   558.72         94.3870
   558.86         93.9791
   559.00         93.6234
   559.14         93.3277
   559.28         93.0953
   559.42         92.9309
   559.56         92.8427
   559.70         92.8405
   559.84         92.9289
   559.98         93.1067
   560.12         93.3665
   560.26         93.6904
   560.40         94.0498
   560.54         94.4110
   560.68         94.7391
   560.82         94.9993
   560.96         95.1631
   561.10         95.2140
   561.24         95.1457
   561.38         94.9631
   561.52         94.6849
   561.66         94.3415
   561.80         93.9720
   561.94         93.6235
   562.08         93.3441
   562.22         93.1688
   562.36         93.1106
   562.50         93.1619
   562.64         93.3051
   562.78         93.5111
   562.92         93.7395
   563.06         93.9536
   563.20         94.1340
   563.34         94.2771
   563.48         94.3893
   563.62         94.4821
   563.76         94.5615
   563.90         94.6251
   564.04         94.6684
   564.18         94.6871
   564.32         94.6761
   564.46         94.6294
   564.60         94.5342
   564.74         94.3674
   564.88         94.1033
   565.02         93.7293
   565.16         93.2516
   565.30         92.6899
   565.44         92.0700
   565.58         91.4255
   565.72         90.7946
   565.86         90.2128
   566.00         89.7172
   566.14         89.3481
   566.28         89.1374
   566.42         89.0959
   566.56         89.2156
   566.70         89.4789
   566.84         89.8578
   566.98         90.3114
   567.12         90.7892
   567.26         91.2371
   567.40         91.6101
   567.54         91.8788
   567.68         92.0257
   567.82         92.0413
   567.96         91.9292
   568.10         91.7094
   568.24         91.4126
   568.38         91.0711
   568.52         90.7224
   568.66         90.4116
   568.80         90.1785
   568.94         90.0401
   569.08         89.9896
   569.22         90.0101
   569.36         90.0826
   569.50         90.1814
   569.64         90.2713
   569.78         90.3127
   569.92         90.2779
   570.06         90.1626
   570.20         89.9789
   570.34         89.7484
   570.48         89.5006
   570.62         89.2673
   570.76         89.0724
   570.90         88.9281
   571.04         88.8438
   571.18         88.8348
   571.32         88.9141
   571.46         89.0846
   571.60         89.3380
   571.74         89.6552
   571.88         90.0117
   572.02         90.3826
   572.16         90.7424
   572.30         91.0668
   572.44         91.3366
   572.58         91.5418
   572.72         91.6783
   572.86         91.7417
   573.00         91.7293
   573.14         91.6472
   573.28         91.5091
   573.42         91.3261
   573.56         91.1068
   573.70         90.8640
   573.84         90.6140
   573.98         90.3702
   574.12         90.1403
   574.26         89.9242
   574.40         89.7217
   574.54         89.5409
   574.68         89.3910
   574.82         89.2763
   574.96         89.1928
   575.10         89.1318
   575.24         89.0848
   575.38         89.0460
   575.52         89.0115
   575.66         88.9782
   575.80         88.9465
   575.94         88.9180
   576.08         88.8897
   576.22         88.8589
   576.36         88.8303
   576.50         88.8095
   576.64         88.7955
   576.78         88.7751
   576.92         88.7218
   577.06         88.6058
   577.20         88.4048
   577.34         88.1095
   577.48         87.7268
   577.62         87.2780
   577.76         86.7934
   577.90         86.3077
   578.04         85.8598
   578.18         85.4908
   578.32         85.2330
   578.46         85.0997
   578.60         85.0841
   578.74         85.1677
   578.88         85.3320
   579.02         85.5586
   579.16         85.8253
   579.30         86.1065
   579.44         86.3740
   579.58         86.6065
   579.72         86.8043
   579.86         86.9819
   580.00         87.1512
   580.14         87.3178
   580.28         87.4804
   580.42         87.6304
   580.56         87.7575
   580.70         87.8542
   580.84         87.9172
   580.98         87.9485
   581.12         87.9573
   581.26         87.9601
   581.40         87.9767
   581.54         88.0222
   581.68         88.1022
   581.82         88.2160
   581.96         88.3562
   582.10         88.5065
   582.24         88.6490
   582.38         88.7687
   582.52         88.8529
   582.66         88.8943
   582.80         88.8933
   582.94         88.8541
   583.08         88.7840
   583.22         88.6923
   583.36         88.5887
   583.50         88.4808
   583.64         88.3697
   583.78         88.2493
   583.92         88.1093
   584.06         87.9395
   584.20         87.7281
   584.34         87.4626
   584.48         87.1365
   584.62         86.7516
   584.76         86.3200
   584.90         85.8679
   585.04         85.4319
   585.18         85.0478
   585.32         84.7478
   585.46         84.5583
   585.60         84.4948
   585.74         84.5628
   585.88         84.7564
   586.02         85.0547
   586.16         85.4283
   586.30         85.8482
   586.44         86.2811
   586.58         86.6861
   586.72         87.0268
   586.86         87.2774
   587.00         87.4181
   587.14         87.4379
   587.28         87.3370
   587.42         87.1233
   587.56         86.7974
   587.70         86.3289
   587.84         85.6684
   587.98         84.8011
   588.12         83.7611
   588.26         82.5899
   588.40         81.3140
   588.54         79.9667
   588.68         78.6120
   588.82         77.3448
   588.96         76.2699
   589.10         75.4759
   589.24         75.0283
   589.38         74.9688
   589.52         75.3025
   589.66         75.9934
   589.80         76.9735
   589.94         78.1499
   590.08         79.4085
   590.22         80.6299
   590.36         81.7192
   590.50         82.6357
   590.64         83.3808
   590.78         83.9502
   590.92         84.3216
   591.06         84.4984
   591.20         84.5296
   591.34         84.4731
   591.48         84.3662
   591.62         84.2259
   591.76         84.0573
   591.90         83.8604
   592.04         83.6315
   592.18         83.3671
   592.32         83.0709
   592.46         82.7597
   592.60         82.4583
   592.74         82.1929
   592.88         81.9885
   593.02         81.8594
   593.16         81.8021
   593.30         81.8045
   593.44         81.8511
   593.58         81.9235
   593.72         82.0025
   593.86         82.0652
   594.00         82.0900
   594.14         82.0694
   594.28         82.0094
   594.42         81.9213
   594.56         81.8165
   594.70         81.7100
   594.84         81.6219
   594.98         81.5750
   595.12         81.5851
   595.26         81.6528
   595.40         81.7673
   595.54         81.9096
   595.68         82.0570
   595.82         82.1933
   595.96         82.3129
   596.10         82.4042
   596.24         82.4497
   596.38         82.4395
   596.52         82.3701
   596.66         82.2403
   596.80         82.0576
   596.94         81.8394
   597.08         81.6020
   597.22         81.3544
   597.36         81.1030
   597.50         80.8570
   597.64         80.6239
   597.78         80.4021
   597.92         80.1848
   598.06         79.9730
   598.20         79.7779
   598.34         79.6173
   598.48         79.5120
   598.62         79.4733
   598.76         79.4977
   598.90         79.5799
   599.04         79.7168
   599.18         79.8998
   599.32         80.1169
   599.46         80.3523
   599.60         80.5769
   599.74         80.7510
   599.88         80.8418
   600.02         80.8362
   600.16         80.7362
   600.30         80.5463
   600.44         80.2761
   600.58         79.9486
   600.72         79.5969
   600.86         79.2498
   601.00         78.9292
   601.14         78.6497
   601.28         78.4158
   601.42         78.2294
   601.56         78.0907
   601.70         77.9879
   601.84         77.9037
   601.98         77.8222
   602.12         77.7247
   602.26         77.6026
   602.40         77.4668
   602.54         77.3340
   602.68         77.2169
   602.82         77.1213
   602.96         77.0456
   603.10         76.9883
   603.24         76.9547
   603.38         76.9473
   603.52         76.9626
   603.66         77.0001
   603.80         77.0590
   603.94         77.1359
   604.08         77.2270
   604.22         77.3251
   604.36         77.4244
   604.50         77.5313
   604.64         77.6594
   604.78         77.8181
   604.92         78.0097
   605.06         78.2203
   605.20         78.4200
   605.34         78.5766
   605.48         78.6656
   605.62         78.6758
   605.76         78.6128
   605.90         78.4967
   606.04         78.3506
   606.18         78.1969
   606.32         78.0544
   606.46         77.9316
   606.60         77.8343
   606.74         77.7693
   606.88         77.7381
   607.02         77.7332
   607.16         77.7391
   607.30         77.7359
   607.44         77.7045
   607.58         77.6330
   607.72         77.5213
   607.86         77.3841
   608.00         77.2457
   608.14         77.1302
   608.28         77.0538
   608.42         77.0207
   608.56         77.0229
   608.70         77.0420
   608.84         77.0526
   608.98         77.0304
   609.12         76.9629
   609.26         76.8503
   609.40         76.6980
   609.54         76.5165
   609.68         76.3239
   609.82         76.1419
   609.96         75.9908
   610.10         75.8824
   610.24         75.8152
   610.38         75.7808
   610.52         75.7696
   610.66         75.7677
   610.80         75.7574
   610.94         75.7213
   611.08         75.6484
   611.22         75.5388
   611.36         75.4008
   611.50         75.2472
   611.64         75.0970
   611.78         74.9701
   611.92         74.8791
   612.06         74.8289
   612.20         74.8154
   612.34         74.8187
   612.48         74.8094
   612.62         74.7649
   612.76         74.6707
   612.90         74.5153
   613.04         74.2962
   613.18         74.0221
   613.32         73.7061
   613.46         73.3654
   613.60         73.0196
   613.74         72.6953
   613.88         72.4264
   614.02         72.2424
   614.16         72.1595
   614.30         72.1786
   614.44         72.2874
   614.58         72.4678
   614.72         72.6978
   614.86         72.9457
   615.00         73.1760
   615.14         73.3641
   615.28         73.4982
   615.42         73.5700
   615.56         73.5757
   615.70         73.5193
   615.84         73.4071
   615.98         73.2468
   616.12         73.0511
   616.26         72.8378
   616.40         72.6283
   616.54         72.4420
   616.68         72.2897
   616.82         72.1752
   616.96         72.1036
   617.10         72.0849
   617.24         72.1277
   617.38         72.2285
   617.52         72.3718
   617.66         72.5420
   617.80         72.7252
   617.94         72.9043
   618.08         73.0602
   618.22         73.1789
   618.36         73.2535
   618.50         73.2857
   618.64         73.2860
   618.78         73.2660
   618.92         73.2373
   619.06         73.2130
   619.20         73.2093
   619.34         73.2416
   619.48         73.3183
   619.62         73.4395
   619.76         73.5987
   619.90         73.7821
   620.04         73.9695
   620.18         74.1411
   620.32         74.2801
   620.46         74.3723
   620.60         74.4086
   620.74         74.3874
   620.88         74.3141
   621.02         74.1985
   621.16         74.0562
   621.30         73.9062
   621.44         73.7647
   621.58         73.6429
   621.72         73.5440
   621.86         73.4603
   622.00         73.3774
   622.14         73.2806
   622.28         73.1612
   622.42         73.0151
   622.56         72.8357
   622.70         72.6137
   622.84         72.3473
   622.98         72.0501
   623.12         71.7462
   623.26         71.4576
   623.40         71.1979
   623.54         70.9738
   623.68         70.7957
   623.82         70.6794
   623.96         70.6314
   624.10         70.6437
   624.24         70.7014
   624.38         70.7879
   624.52         70.8882
   624.66         70.9966
   624.80         71.1155
   624.94         71.2440
   625.08         71.3732
   625.22         71.4901
   625.36         71.5870
   625.50         71.6671
   625.64         71.7348
   625.78         71.7836
   625.92         71.8029
   626.06         71.7924
   626.20         71.7659
   626.34         71.7426
   626.48         71.7252
   626.62         71.6911
   626.76         71.6086
   626.90         71.4517
   627.04         71.2025
   627.18         70.8491
   627.32         70.3904
   627.46         69.8432
   627.60         69.2411
   627.74         68.6294
   627.88         68.0621
   628.02         67.5934
   628.16         67.2714
   628.30         67.1297
   628.44         67.1828
   628.58         67.4282
   628.72         67.8412
   628.86         68.3739
   629.00         68.9622
   629.14         69.5426
   629.28         70.0632
   629.42         70.4855
   629.56         70.7850
   629.70         70.9508
   629.84         70.9887
   629.98         70.9236
   630.12         70.7918
   630.26         70.6237
   630.40         70.4389
   630.54         70.2509
   630.68         70.0674
   630.82         69.8962
   630.96         69.7453
   631.10         69.6225
   631.24         69.5354
   631.38         69.4894
   631.52         69.4896
   631.66         69.5429
   631.80         69.6528
   631.94         69.8085
   632.08         69.9882
   632.22         70.1708
   632.36         70.3394
   632.50         70.4818
   632.64         70.5937
   632.78         70.6763
   632.92         70.7325
   633.06         70.7674
   633.20         70.7852
   633.34         70.7874
   633.48         70.7733
   633.62         70.7401
   633.76         70.6842
   633.90         70.6024
   634.04         70.4963
   634.18         70.3731
   634.32         70.2414
   634.46         70.1084
   634.60         69.9826
   634.74         69.8766
   634.88         69.8033
   635.02         69.7696
   635.16         69.7755
   635.30         69.8174
   635.44         69.8846
   635.58         69.9564
   635.72         70.0049
   635.86         70.0017
   636.00         69.9288
   636.14         69.7861
   636.28         69.5921
   636.42         69.3750
   636.56         69.1644
   636.70         68.9856
   636.84         68.8531
   636.98         68.7717
   637.12         68.7443
   637.26         68.7688
   637.40         68.8358
   637.54         68.9333
   637.68         69.0482
   637.82         69.1695
   637.96         69.2872
   638.10         69.3867
   638.24         69.4526
   638.38         69.4788
   638.52         69.4714
   638.66         69.4400
   638.80         69.3893
   638.94         69.3207
   639.08         69.2362
   639.22         69.1389
   639.36         69.0309
   639.50         68.9132
   639.64         68.7884
   639.78         68.6599
   639.92         68.5271
   640.06         68.3900
   640.20         68.2494
   640.34         68.1034
   640.48         67.9473
   640.62         67.7769
   640.76         67.5908
   640.90         67.3955
   641.04         67.2063
   641.18         67.0394
   641.32         66.9080
   641.46         66.8245
   641.60         66.8013
   641.74         66.8401
   641.88         66.9270
   642.02         67.0402
   642.16         67.1620
   642.30         67.2825
   642.44         67.3931
   642.58         67.4842
   642.72         67.5492
   642.86         67.5888
   643.00         67.6101
   643.14         67.6245
   643.28         67.6405
   643.42         67.6605
   643.56         67.6826
   643.70         67.7026
   643.84         67.7140
   643.98         67.7114
   644.12         67.6900
   644.26         67.6386
   644.40         67.5380
   644.54         67.3741
   644.68         67.1504
   644.82         66.8811
   644.96         66.5806
   645.10         66.2606
   645.24         65.9393
   645.38         65.6450
   645.52         65.4066
   645.66         65.2430
   645.80         65.1574
   645.94         65.1428
   646.08         65.1934
   646.22         65.3082
   646.36         65.4868
   646.50         65.7265
   646.64         66.0130
   646.78         66.3162
   646.92         66.6025
   647.06         66.8499
   647.20         67.0509
   647.34         67.2023
   647.48         67.2971
   647.62         67.3302
   647.76         67.2995
   647.90         67.2037
   648.04         67.0363
   648.18         66.7832
   648.32         66.4294
   648.46         65.9738
   648.60         65.4407
   648.74         64.8786
   648.88         64.3446
   649.02         63.8909
   649.16         63.5604
   649.30         63.3816
   649.44         63.3673
   649.58         63.5236
   649.72         63.8464
   649.86         64.3125
   650.00         64.8833
   650.14         65.5096
   650.28         66.1329
   650.42         66.6911
   650.56         67.1344
   650.70         67.4373
   650.84         67.5997
   650.98         67.6444
   651.12         67.6110
   651.26         67.5440
   651.40         67.4767
   651.54         67.4230
   651.68         67.3846
   651.82         67.3604
   651.96         67.3487
   652.10         67.3490
   652.24         67.3654
   652.38         67.3986
   652.52         67.4417
   652.66         67.4855
   652.80         67.5214
   652.94         67.5450
   653.08         67.5592
   653.22         67.5685
   653.36         67.5688
   653.50         67.5458
   653.64         67.4833
   653.78         67.3690
   653.92         67.1942
   654.06         66.9511
   654.20         66.6352
   654.34         66.2453
   654.48         65.7755
   654.62         65.2086
   654.76         64.5136
   654.90         63.6479
   655.04         62.5743
   655.18         61.2888
   655.32         59.8353
   655.46         58.2999
   655.60         56.7919
   655.74         55.4254
   655.88         54.3074
   656.02         53.5292
   656.16         53.1591
   656.30         53.2335
   656.44         53.7490
   656.58         54.6618
   656.72         55.8929
   656.86         57.3372
   657.00         58.8755
   657.14         60.3873
   657.28         61.7653
   657.42         62.9299
   657.56         63.8431
   657.70         64.5150
   657.84         64.9875
   657.98         65.3049
   658.12         65.5016
   658.26         65.6034
   658.40         65.6336
   658.54         65.6148
   658.68         65.5706
   658.82         65.5235
   658.96         65.4925
   659.10         65.4889
   659.24         65.5156
   659.38         65.5700
   659.52         65.6479
   659.66         65.7445
   659.80         65.8528
   659.94         65.9618
   660.08         66.0589
   660.22         66.1344
   660.36         66.1836
   660.50         66.2057
   660.64         66.2035
   660.78         66.1834
   660.92         66.1530
   661.06         66.1171
   661.20         66.0763
   661.34         66.0282
   661.48         65.9684
   661.62         65.8943
   661.76         65.8076
   661.90         65.7142
   662.04         65.6219
   662.18         65.5384
   662.32         65.4705
   662.46         65.4218
   662.60         65.3921
   662.74         65.3800
   662.88         65.3832
   663.02         65.3952
   663.16         65.4051
   663.30         65.3996
   663.44         65.3676
   663.58         65.3040
   663.72         65.2090
   663.86         65.0882
   664.00         64.9541
   664.14         64.8217
   664.28         64.7035
   664.42         64.6049
   664.56         64.5255
   664.70         64.4636
   664.84         64.4166
   664.98         64.3783
   665.12         64.3374
   665.26         64.2837
   665.40         64.2133
   665.54         64.1259
   665.68         64.0247
   665.82         63.9181
   665.96         63.8178
   666.10         63.7326
   666.24         63.6651
   666.38         63.6098
   666.52         63.5558
   666.66         63.4922
   666.80         63.4126
   666.94         63.3173
   667.08         63.2123
   667.22         63.1082
   667.36         63.0192
   667.50         62.9588
   667.64         62.9367
   667.78         62.9601
   667.92         63.0335
   668.06         63.1534
   668.20         63.3060
   668.34         63.4730
   668.48         63.6354
   668.62         63.7747
   668.76         63.8757
   668.90         63.9307
   669.04         63.9407
   669.18         63.9148
   669.32         63.8685
   669.46         63.8163
   669.60         63.7641
   669.74         63.7094
   669.88         63.6469
   670.02         63.5696
   670.16         63.4671
   670.30         63.3275
   670.44         63.1416
   670.58         62.9064
   670.72         62.6292
   670.86         62.3286
   671.00         62.0307
   671.14         61.7629
   671.28         61.5477
   671.42         61.4011
   671.56         61.3296
   671.70         61.3291
   671.84         61.3871
   671.98         61.4876
   672.12         61.6144
   672.26         61.7511
   672.40         61.8854
   672.54         62.0093
   672.68         62.1174
   672.82         62.2048
   672.96         62.2679
   673.10         62.3053
   673.24         62.3217
   673.38         62.3249
   673.52         62.3181
   673.66         62.2975
   673.80         62.2571
   673.94         62.1950
   674.08         62.1132
   674.22         62.0165
   674.36         61.9108
   674.50         61.8051
   674.64         61.7115
   674.78         61.6405
   674.92         61.5977
   675.06         61.5869
   675.20         61.6103
   675.34         61.6644
   675.48         61.7382
   675.62         61.8162
   675.76         61.8836
   675.90         61.9291
   676.04         61.9432
   676.18         61.9177
   676.32         61.8514
   676.46         61.7523
   676.60         61.6324
   676.74         61.5028
   676.88         61.3735
   677.02         61.2531
   677.16         61.1491
   677.30         61.0656
   677.44         61.0032
   677.58         60.9608
   677.72         60.9359
   677.86         60.9234
   678.00         60.9151
   678.14         60.9042
   678.28         60.8878
   678.42         60.8675
   678.56         60.8490
   678.70         60.8386
   678.84         60.8394
   678.98         60.8498
   679.12         60.8664
   679.26         60.8860
   679.40         60.9060
   679.54         60.9260
   679.68         60.9497
   679.82         60.9843
   679.96         61.0384
   680.10         61.1188
   680.24         61.2273
   680.38         61.3579
   680.52         61.4968
   680.66         61.6264
   680.80         61.7277
   680.94         61.7826
   681.08         61.7777
   681.22         61.7082
   681.36         61.5764
   681.50         61.3879
   681.64         61.1539
   681.78         60.8934
   681.92         60.6288
   682.06         60.3808
   682.20         60.1663
   682.34         59.9961
   682.48         59.8723
   682.62         59.7881
   682.76         59.7289
   682.90         59.6739
   683.04         59.6020
   683.18         59.5005
   683.32         59.3680
   683.46         59.2116
   683.60         59.0432
   683.74         58.8777
   683.88         58.7309
   684.02         58.6144
   684.16         58.5347
   684.30         58.4944
   684.44         58.4941
   684.58         58.5295
   684.72         58.5914
   684.86         58.6683
   685.00         58.7468
   685.14         58.8133
   685.28         58.8550
   685.42         58.8505
   685.56         58.7631
   685.70         58.5452
   685.84         58.1522
   685.98         57.5534
   686.12         56.7368
   686.26         55.7135
   686.40         54.5209
   686.54         53.2200
   686.68         51.8920
   686.82         50.6314
   686.96         49.5364
   687.10         48.6951
   687.24         48.1700
   687.38         47.9877
   687.52         48.1354
   687.66         48.5629
   687.80         49.1912
   687.94         49.9248
   688.08         50.6617
   688.22         51.3108
   688.36         51.8148
   688.50         52.1554
   688.64         52.3444
   688.78         52.4102
   688.92         52.3908
   689.06         52.3301
   689.20         52.2709
   689.34         52.2481
   689.48         52.2854
   689.62         52.3914
   689.76         52.5590
   689.90         52.7728
   690.04         53.0166
   690.18         53.2749
   690.32         53.5359
   690.46         53.7934
   690.60         54.0422
   690.74         54.2742
   690.88         54.4843
   691.02         54.6719
   691.16         54.8352
   691.30         54.9733
   691.44         55.0889
   691.58         55.1872
   691.72         55.2720
   691.86         55.3441
   692.00         55.4059
   692.14         55.4643
   692.28         55.5258
   692.42         55.5962
   692.56         55.6803
   692.70         55.7771
   692.84         55.8793
   692.98         55.9800
   693.12         56.0745
   693.26         56.1599
   693.40         56.2365
   693.54         56.3072
   693.68         56.3736
   693.82         56.4363
   693.96         56.4977
   694.10         56.5605
   694.24         56.6247
   694.38         56.6875
   694.52         56.7469
   694.66         56.8014
   694.80         56.8483
   694.94         56.8845
   695.08         56.9082
   695.22         56.9193
   695.36         56.9192
   695.50         56.9142
   695.64         56.9141
   695.78         56.9291
   695.92         56.9664
   696.06         57.0308
   696.20         57.1221
   696.34         57.2330
   696.48         57.3507
   696.62         57.4603
   696.76         57.5479
   696.90         57.6023
   697.04         57.6166
   697.18         57.5913
   697.32         57.5339
   697.46         57.4552
   697.60         57.3656
   697.74         57.2741
   697.88         57.1883
   698.02         57.1147
   698.16         57.0593
   698.30         57.0275
   698.44         57.0191
   698.58         57.0252
   698.72         57.0301
   698.86         57.0164
   699.00         56.9704
   699.14         56.8842
   699.28         56.7559
   699.42         56.5898
   699.56         56.3965
   699.70         56.1913
   699.84         55.9915
   699.98         55.8126
   700.12         55.6674
   700.26         55.5635
   700.40         55.5040
   700.54         55.4890
   700.68         55.5165
   700.82         55.5798
   700.96         55.6655
   701.10         55.7542
   701.24         55.8272
   701.38         55.8719
   701.52         55.8817
   701.66         55.8552
   701.80         55.7966
   701.94         55.7159
   702.08         55.6267
   702.22         55.5415
   702.36         55.4694
   702.50         55.4160
   702.64         55.3835
   702.78         55.3710
   702.92         55.3740
   703.06         55.3863
   703.20         55.4022
   703.34         55.4166
   703.48         55.4236
   703.62         55.4190
   703.76         55.4019
   703.90         55.3736
   704.04         55.3375
   704.18         55.3016
   704.32         55.2770
   704.46         55.2718
   704.60         55.2872
   704.74         55.3196
   704.88         55.3637
   705.02         55.4152
   705.16         55.4719
   705.30         55.5328
   705.44         55.5953
   705.58         55.6543
   705.72         55.7068
   705.86         55.7544
   706.00         55.8027
   706.14         55.8567
   706.28         55.9174
   706.42         55.9807
   706.56         56.0416
   706.70         56.0964
   706.84         56.1425
   706.98         56.1736
   707.12         56.1814
   707.26         56.1593
   707.40         56.1041
   707.54         56.0155
   707.68         55.8975
   707.82         55.7597
   707.96         55.6143
   708.10         55.4729
   708.24         55.3482
   708.38         55.2519
   708.52         55.1887
   708.66         55.1542
   708.80         55.1387
   708.94         55.1333
   709.08         55.1338
   709.22         55.1403
   709.36         55.1521
   709.50         55.1655
   709.64         55.1756
   709.78         55.1788
   709.92         55.1727
   710.06         55.1586
   710.20         55.1438
   710.34         55.1370
   710.48         55.1418
   710.62         55.1555
   710.76         55.1723
   710.90         55.1867
   711.04         55.1915
   711.18         55.1797
   711.32         55.1527
   711.46         55.1207
   711.60         55.0954
   711.74         55.0837
   711.88         55.0864
   712.02         55.1004
   712.16         55.1227
   712.30         55.1523
   712.44         55.1885
   712.58         55.2298
   712.72         55.2746
   712.86         55.3158
   713.00         55.3383
   713.14         55.3265
   713.28         55.2717
   713.42         55.1709
   713.56         55.0255
   713.70         54.8439
   713.84         54.6425
   713.98         54.4425
   714.12         54.2671
   714.26         54.1352
   714.40         54.0588
   714.54         54.0446
   714.68         54.0952
   714.82         54.2084
   714.96         54.3725
   715.10         54.5643
   715.24         54.7538
   715.38         54.9125
   715.52         55.0172
   715.66         55.0535
   715.80         55.0152
   715.94         54.9036
   716.08         54.7270
   716.22         54.5019
   716.36         54.2468
   716.50         53.9741
   716.64         53.6908
   716.78         53.4016
   716.92         53.1059
   717.06         52.7976
   717.20         52.4659
   717.34         52.0979
   717.48         51.6889
   717.62         51.2487
   717.76         50.7965
   717.90         50.3556
   718.04         49.9501
   718.18         49.6063
   718.32         49.3499
   718.46         49.1994
   718.60         49.1629
   718.74         49.2345
   718.88         49.3944
   719.02         49.6137
   719.16         49.8603
   719.30         50.1057
   719.44         50.3295
   719.58         50.5224
   719.72         50.6847
   719.86         50.8232
   720.00         50.9533
   720.14         51.0975
   720.28         51.2733
   720.42         51.4864
   720.56         51.7385
   720.70         52.0311
   720.84         52.3581
   720.98         52.6940
   721.12         52.9986
   721.26         53.2349
   721.40         53.3812
   721.54         53.4351
   721.68         53.4081
   721.82         53.3163
   721.96         53.1751
   722.10         52.9981
   722.24         52.7976
   722.38         52.5835
   722.52         52.3642
   722.66         52.1463
   722.80         51.9340
   722.94         51.7307
   723.08         51.5394
   723.22         51.3630
   723.36         51.2033
   723.50         51.0610
   723.64         50.9417
   723.78         50.8579
   723.92         50.8220
   724.06         50.8376
   724.20         50.8982
   724.34         50.9909
   724.48         51.1019
   724.62         51.2203
   724.76         51.3377
   724.90         51.4483
   725.04         51.5454
   725.18         51.6178
   725.32         51.6557
   725.46         51.6581
   725.60         51.6338
   725.74         51.5964
   725.88         51.5573
   726.02         51.5197
   726.16         51.4784
   726.30         51.4217
   726.44         51.3346
   726.58         51.2101
   726.72         51.0543
   726.86         50.8791
   727.00         50.6927
   727.14         50.5027
   727.28         50.3154
   727.42         50.1319
   727.56         49.9506
   727.70         49.7674
   727.84         49.5783
   727.98         49.3849
   728.12         49.1931
   728.26         49.0098
   728.40         48.8422
   728.54         48.6972
   728.68         48.5820
   728.82         48.5041
   728.96         48.4691
   729.10         48.4808
   729.24         48.5400
   729.38         48.6401
   729.52         48.7630
   729.66         48.8875
   729.80         48.9990
   729.94         49.0882
   730.08         49.1523
   730.22         49.1969
   730.36         49.2311
   730.50         49.2653
   730.64         49.3114
   730.78         49.3771
   730.92         49.4651
   731.06         49.5741
   731.20         49.6974
   731.34         49.8237
   731.48         49.9395
   731.62         50.0317
   731.76         50.0891
   731.90         50.1075
   732.04         50.0912
   732.18         50.0467
   732.32         49.9832
   732.46         49.9136
   732.60         49.8523
   732.74         49.8111
   732.88         49.7939
   733.02         49.7985
   733.16         49.8224
   733.30         49.8648
   733.44         49.9241
   733.58         49.9960
   733.72         50.0732
   733.86         50.1471
   734.00         50.2079
   734.14         50.2444
   734.28         50.2444
   734.42         50.2007
   734.56         50.1153
   734.70         49.9948
   734.84         49.8449
   734.98         49.6748
   735.12         49.4995
   735.26         49.3360
   735.40         49.2008
   735.54         49.1073
   735.68         49.0645
   735.82         49.0727
   735.96         49.1236
   736.10         49.2057
   736.24         49.3082
   736.38         49.4203
   736.52         49.5282
   736.66         49.6155
   736.80         49.6698
   736.94         49.6846
   737.08         49.6564
   737.22         49.5786
   737.36         49.4403
   737.50         49.2366
   737.64         48.9736
   737.78         48.6630
   737.92         48.3198
   738.06         47.9651
   738.20         47.6212
   738.34         47.3054
   738.48         47.0299
   738.62         46.8082
   738.76         46.6592
   738.90         46.6002
   739.04         46.6386
   739.18         46.7694
   739.32         46.9781
   739.46         47.2404
   739.60         47.5219
   739.74         47.7847
   739.88         47.9967
   740.02         48.1400
   740.16         48.2104
   740.30         48.2103
   740.44         48.1451
   740.58         48.0261
   740.72         47.8707
   740.86         47.6969
   741.00         47.5218
   741.14         47.3642
   741.28         47.2431
   741.42         47.1725
   741.56         47.1540
   741.70         47.1766
   741.84         47.2253
   741.98         47.2862
   742.12         47.3477
   742.26         47.4029
   742.40         47.4504
   742.54         47.4904
   742.68         47.5209
   742.82         47.5378
   742.96         47.5378
   743.10         47.5209
   743.24         47.4904
   743.38         47.4504
   743.52         47.4029
   743.66         47.3477
   743.80         47.2862
   743.94         47.2253
   744.08         47.1766
   744.22         47.1540
