# File HD12027
# Wavelength [nm]    Normalized Amplitude
   349.70         28.4870
   349.84         28.4662
   349.98         28.3996
   350.12         28.2848
   350.26         28.1244
   350.40         27.9270
   350.54         27.7106
   350.68         27.4989
   350.82         27.3186
   350.96         27.1960
   351.10         27.1522
   351.24         27.1960
   351.38         27.3186
   351.52         27.4989
   351.66         27.7106
   351.80         27.9270
   351.94         28.1244
   352.08         28.2848
   352.22         28.3996
   352.36         28.4662
   352.50         28.4870
   352.64         28.4693
   352.78         28.4226
   352.92         28.3599
   353.06         28.3001
   353.20         28.2651
   353.34         28.2695
   353.48         28.3156
   353.62         28.3965
   353.76         28.5016
   353.90         28.6175
   354.04         28.7265
   354.18         28.8111
   354.32         28.8586
   354.46         28.8603
   354.60         28.8114
   354.74         28.7127
   354.88         28.5724
   355.02         28.4025
   355.16         28.2155
   355.30         28.0211
   355.44         27.8261
   355.58         27.6384
   355.72         27.4649
   355.86         27.3060
   356.00         27.1552
   356.14         27.0038
   356.28         26.8470
   356.42         26.6797
   356.56         26.4955
   356.70         26.2923
   356.84         26.0778
   356.98         25.8633
   357.12         25.6573
   357.26         25.4629
   357.40         25.2801
   357.54         25.1073
   357.68         24.9413
   357.82         24.7802
   357.96         24.6257
   358.10         24.4832
   358.24         24.3612
   358.38         24.2693
   358.52         24.2188
   358.66         24.2188
   358.80         24.2719
   358.94         24.3748
   359.08         24.5172
   359.22         24.6843
   359.36         24.8592
   359.50         25.0199
   359.64         25.1402
   359.78         25.1989
   359.92         25.1870
   360.06         25.1083
   360.20         24.9771
   360.34         24.8136
   360.48         24.6375
   360.62         24.4649
   360.76         24.3082
   360.90         24.1778
   361.04         24.0822
   361.18         24.0243
   361.32         23.9999
   361.46         24.0055
   361.60         24.0395
   361.74         24.0961
   361.88         24.1675
   362.02         24.2475
   362.16         24.3286
   362.30         24.4019
   362.44         24.4631
   362.58         24.5133
   362.72         24.5574
   362.86         24.6021
   363.00         24.6533
   363.14         24.7130
   363.28         24.7795
   363.42         24.8511
   363.56         24.9274
   363.70         25.0088
   363.84         25.0966
   363.98         25.1934
   364.12         25.2996
   364.26         25.4099
   364.40         25.5175
   364.54         25.6217
   364.68         25.7253
   364.82         25.8299
   364.96         25.9368
   365.10         26.0472
   365.24         26.1586
   365.38         26.2641
   365.52         26.3545
   365.66         26.4218
   365.80         26.4629
   365.94         26.4821
   366.08         26.4903
   366.22         26.5011
   366.36         26.5262
   366.50         26.5702
   366.64         26.6264
   366.78         26.6824
   366.92         26.7290
   367.06         26.7607
   367.20         26.7728
   367.34         26.7626
   367.48         26.7295
   367.62         26.6746
   367.76         26.5996
   367.90         26.5081
   368.04         26.4091
   368.18         26.3168
   368.32         26.2450
   368.46         26.2021
   368.60         26.1917
   368.74         26.2128
   368.88         26.2591
   369.02         26.3173
   369.16         26.3689
   369.30         26.3978
   369.44         26.3988
   369.58         26.3773
   369.72         26.3391
   369.86         26.2855
   370.00         26.2154
   370.14         26.1313
   370.28         26.0459
   370.42         25.9805
   370.56         25.9597
   370.70         26.0006
   370.84         26.1018
   370.98         26.2421
   371.12         26.3957
   371.26         26.5511
   371.40         26.7126
   371.54         26.8935
   371.68         27.1133
   371.82         27.3898
   371.96         27.7260
   372.10         28.0999
   372.24         28.4672
   372.38         28.7775
   372.52         28.9944
   372.66         29.1119
   372.80         29.1552
   372.94         29.1638
   373.08         29.1747
   373.22         29.2135
   373.36         29.2872
   373.50         29.3862
   373.64         29.4941
   373.78         29.5942
   373.92         29.6709
   374.06         29.7104
   374.20         29.7096
   374.34         29.6761
   374.48         29.6186
   374.62         29.5469
   374.76         29.4832
   374.90         29.4731
   375.04         29.5766
   375.18         29.8467
   375.32         30.3078
   375.46         30.9377
   375.60         31.6634
   375.74         32.3752
   375.88         32.9528
   376.02         33.2976
   376.16         33.3608
   376.30         33.1551
   376.44         32.7531
   376.58         32.2790
   376.72         31.8865
   376.86         31.7238
   377.00         31.8983
   377.14         32.4672
   377.28         33.4457
   377.42         34.8078
   377.56         36.4815
   377.70         38.3486
   377.84         40.2552
   377.98         42.0307
   378.12         43.5053
   378.26         44.5298
   378.40         44.9974
   378.54         44.8591
   378.68         44.1351
   378.82         42.9139
   378.96         41.3385
   379.10         39.5884
   379.24         37.8596
   379.38         36.3352
   379.52         35.1632
   379.66         34.4570
   379.80         34.2951
   379.94         34.7069
   380.08         35.6627
   380.22         37.0811
   380.36         38.8506
   380.50         40.8482
   380.64         42.9452
   380.78         45.0108
   380.92         46.9261
   381.06         48.5994
   381.20         49.9723
   381.34         51.0125
   381.48         51.7011
   381.62         52.0229
   381.76         51.9645
   381.90         51.5133
   382.04         50.6557
   382.18         49.3876
   382.32         47.7294
   382.46         45.7277
   382.60         43.4583
   382.74         41.0373
   382.88         38.6210
   383.02         36.3894
   383.16         34.5178
   383.30         33.1500
   383.44         32.3860
   383.58         32.2789
   383.72         32.8354
   383.86         34.0163
   384.00         35.7398
   384.14         37.8915
   384.28         40.3350
   384.42         42.9217
   384.56         45.5031
   384.70         47.9475
   384.84         50.1631
   384.98         52.1068
   385.12         53.7751
   385.26         55.1907
   385.40         56.3902
   385.54         57.4096
   385.68         58.2752
   385.82         59.0008
   385.96         59.5868
   386.10         60.0217
   386.24         60.2906
   386.38         60.3793
   386.52         60.2693
   386.66         59.9347
   386.80         59.3524
   386.94         58.5087
   387.08         57.3972
   387.22         56.0169
   387.36         54.3708
   387.50         52.4678
   387.64         50.3250
   387.78         47.9733
   387.92         45.4695
   388.06         42.9007
   388.20         40.3801
   388.34         38.0370
   388.48         36.0016
   388.62         34.3893
   388.76         33.2936
   388.90         32.7823
   389.04         32.8839
   389.18         33.5798
   389.32         34.8134
   389.46         36.5033
   389.60         38.5477
   389.74         40.8342
   389.88         43.2510
   390.02         45.6917
   390.16         48.0668
   390.30         50.3109
   390.44         52.3829
   390.58         54.2608
   390.72         55.9339
   390.86         57.3990
   391.00         58.6597
   391.14         59.7253
   391.28         60.6115
   391.42         61.3367
   391.56         61.9124
   391.70         62.3365
   391.84         62.5859
   391.98         62.6110
   392.12         62.3433
   392.26         61.7221
   392.40         60.7298
   392.54         59.4086
   392.68         57.8570
   392.82         56.2145
   392.96         54.6361
   393.10         53.2706
   393.24         52.2465
   393.38         51.6622
   393.52         51.5693
   393.66         51.9554
   393.80         52.7462
   393.94         53.8181
   394.08         55.0183
   394.22         56.1824
   394.36         57.1514
   394.50         57.7901
   394.64         58.0110
   394.78         57.7953
   394.92         57.1880
   395.06         56.2653
   395.20         55.0940
   395.34         53.7057
   395.48         52.0982
   395.62         50.2505
   395.76         48.1460
   395.90         45.7968
   396.04         43.2525
   396.18         40.6005
   396.32         37.9648
   396.46         35.4984
   396.60         33.3639
   396.74         31.7125
   396.88         30.6643
   397.02         30.2944
   397.16         30.6284
   397.30         31.6428
   397.44         33.2670
   397.58         35.3870
   397.72         37.8603
   397.86         40.5337
   398.00         43.2581
   398.14         45.9025
   398.28         48.3681
   398.42         50.5983
   398.56         52.5759
   398.70         54.3113
   398.84         55.8292
   398.98         57.1552
   399.12         58.3095
   399.26         59.3055
   399.40         60.1536
   399.54         60.8686
   399.68         61.4729
   399.82         61.9958
   399.96         62.4666
   400.10         62.9091
   400.24         63.3409
   400.38         63.7750
   400.52         64.2177
   400.66         64.6680
   400.80         65.1220
   400.94         65.5722
   401.08         66.0042
   401.22         66.3993
   401.36         66.7418
   401.50         67.0221
   401.64         67.2319
   401.78         67.3614
   401.92         67.4018
   402.06         67.3521
   402.20         67.2234
   402.34         67.0351
   402.48         66.8121
   402.62         66.5831
   402.76         66.3786
   402.90         66.2257
   403.04         66.1412
   403.18         66.1288
   403.32         66.1776
   403.46         66.2655
   403.60         66.3665
   403.74         66.4593
   403.88         66.5314
   404.02         66.5754
   404.16         66.5832
   404.30         66.5457
   404.44         66.4581
   404.58         66.3256
   404.72         66.1644
   404.86         65.9946
   405.00         65.8297
   405.14         65.6682
   405.28         65.4959
   405.42         65.2941
   405.56         65.0478
   405.70         64.7513
   405.84         64.4043
   405.98         64.0082
   406.12         63.5687
   406.26         63.0939
   406.40         62.5856
   406.54         62.0365
   406.68         61.4366
   406.82         60.7846
   406.96         60.0899
   407.10         59.3657
   407.24         58.6265
   407.38         57.8847
   407.52         57.1480
   407.66         56.4182
   407.80         55.6940
   407.94         54.9722
   408.08         54.2424
   408.22         53.4816
   408.36         52.6536
   408.50         51.7121
   408.64         50.6076
   408.78         49.2957
   408.92         47.7403
   409.06         45.9249
   409.20         43.8707
   409.34         41.6459
   409.48         39.3578
   409.62         37.1359
   409.76         35.1160
   409.90         33.4283
   410.04         32.1852
   410.18         31.4714
   410.32         31.3353
   410.46         31.7842
   410.60         32.7831
   410.74         34.2554
   410.88         36.0943
   411.02         38.1784
   411.16         40.3829
   411.30         42.5897
   411.44         44.6955
   411.58         46.6229
   411.72         48.3293
   411.86         49.8028
   412.00         51.0477
   412.14         52.0795
   412.28         52.9242
   412.42         53.6155
   412.56         54.1918
   412.70         54.6944
   412.84         55.1616
   412.98         55.6209
   413.12         56.0844
   413.26         56.5556
   413.40         57.0372
   413.54         57.5333
   413.68         58.0416
   413.82         58.5500
   413.96         59.0369
   414.10         59.4749
   414.24         59.8386
   414.38         60.1105
   414.52         60.2854
   414.66         60.3746
   414.80         60.4002
   414.94         60.3843
   415.08         60.3461
   415.22         60.3047
   415.36         60.2764
   415.50         60.2706
   415.64         60.2899
   415.78         60.3375
   415.92         60.4148
   416.06         60.5132
   416.20         60.6102
   416.34         60.6764
   416.48         60.6850
   416.62         60.6128
   416.76         60.4455
   416.90         60.1862
   417.04         59.8576
   417.18         59.4948
   417.32         59.1321
   417.46         58.7957
   417.60         58.5087
   417.74         58.2928
   417.88         58.1634
   418.02         58.1260
   418.16         58.1789
   418.30         58.3129
   418.44         58.5089
   418.58         58.7360
   418.72         58.9578
   418.86         59.1411
   419.00         59.2612
   419.14         59.3026
   419.28         59.2608
   419.42         59.1472
   419.56         58.9852
   419.70         58.8006
   419.84         58.6164
   419.98         58.4546
   420.12         58.3391
   420.26         58.2908
   420.40         58.3189
   420.54         58.4200
   420.68         58.5813
   420.82         58.7833
   420.96         59.0002
   421.10         59.2030
   421.24         59.3641
   421.38         59.4602
   421.52         59.4747
   421.66         59.4052
   421.80         59.2679
   421.94         59.0901
   422.08         58.8949
   422.22         58.6956
   422.36         58.4999
   422.50         58.3151
   422.64         58.1488
   422.78         58.0057
   422.92         57.8862
   423.06         57.7906
   423.20         57.7210
   423.34         57.6773
   423.48         57.6535
   423.62         57.6386
   423.76         57.6183
   423.90         57.5780
   424.04         57.5102
   424.18         57.4212
   424.32         57.3295
   424.46         57.2541
   424.60         57.2020
   424.74         57.1683
   424.88         57.1474
   425.02         57.1395
   425.16         57.1506
   425.30         57.1898
   425.44         57.2640
   425.58         57.3723
   425.72         57.5027
   425.86         57.6321
   426.00         57.7317
   426.14         57.7762
   426.28         57.7522
   426.42         57.6614
   426.56         57.5185
   426.70         57.3473
   426.84         57.1709
   426.98         57.0034
   427.12         56.8504
   427.26         56.7127
   427.40         56.5915
   427.54         56.4889
   427.68         56.4029
   427.82         56.3235
   427.96         56.2342
   428.10         56.1170
   428.24         55.9575
   428.38         55.7498
   428.52         55.4981
   428.66         55.2147
   428.80         54.9154
   428.94         54.6141
   429.08         54.3188
   429.22         54.0290
   429.36         53.7388
   429.50         53.4414
   429.64         53.1298
   429.78         52.8008
   429.92         52.4563
   430.06         52.0981
   430.20         51.7250
   430.34         51.3371
   430.48         50.9430
   430.62         50.5608
   430.76         50.2088
   430.90         49.8971
   431.04         49.6257
   431.18         49.3818
   431.32         49.1401
   431.46         48.8686
   431.60         48.5392
   431.74         48.1330
   431.88         47.6368
   432.02         47.0379
   432.16         46.3212
   432.30         45.4695
   432.44         44.4682
   432.58         43.3038
   432.72         41.9626
   432.86         40.4391
   433.00         38.7472
   433.14         36.9271
   433.28         35.0439
   433.42         33.1827
   433.56         31.4433
   433.70         29.9277
   433.84         28.7267
   433.98         27.9141
   434.12         27.5433
   434.26         27.6435
   434.40         28.2127
   434.54         29.2129
   434.68         30.5751
   434.82         32.2113
   434.96         34.0245
   435.10         35.9194
   435.24         37.8110
   435.38         39.6340
   435.52         41.3477
   435.66         42.9330
   435.80         44.3853
   435.94         45.7075
   436.08         46.9027
   436.22         47.9682
   436.36         48.8942
   436.50         49.6727
   436.64         50.3081
   436.78         50.8189
   436.92         51.2291
   437.06         51.5565
   437.20         51.8102
   437.34         51.9965
   437.48         52.1244
   437.62         52.2097
   437.76         52.2702
   437.90         52.3214
   438.04         52.3756
   438.18         52.4389
   438.32         52.5133
   438.46         52.5995
   438.60         52.6964
   438.74         52.7982
   438.88         52.8963
   439.02         52.9849
   439.16         53.0636
   439.30         53.1340
   439.44         53.1960
   439.58         53.2468
   439.72         53.2846
   439.86         53.3153
   440.00         53.3514
   440.14         53.4056
   440.28         53.4783
   440.42         53.5529
   440.56         53.6067
   440.70         53.6217
   440.84         53.5881
   440.98         53.5088
   441.12         53.3955
   441.26         53.2613
   441.40         53.1200
   441.54         52.9882
   441.68         52.8836
   441.82         52.8216
   441.96         52.8123
   442.10         52.8568
   442.24         52.9443
   442.38         53.0564
   442.52         53.1760
   442.66         53.2892
   442.80         53.3825
   442.94         53.4433
   443.08         53.4627
   443.22         53.4383
   443.36         53.3726
   443.50         53.2703
   443.64         53.1377
   443.78         52.9802
   443.92         52.8037
   444.06         52.6178
   444.20         52.4343
   444.34         52.2610
   444.48         52.0979
   444.62         51.9416
   444.76         51.7873
   444.90         51.6336
   445.04         51.4864
   445.18         51.3550
   445.32         51.2439
   445.46         51.1505
   445.60         51.0663
   445.74         50.9831
   445.88         50.9019
   446.02         50.8351
   446.16         50.7978
   446.30         50.7985
   446.44         50.8359
   446.58         50.9012
   446.72         50.9773
   446.86         51.0385
   447.00         51.0565
   447.14         51.0152
   447.28         50.9183
   447.42         50.7829
   447.56         50.6317
   447.70         50.4821
   447.84         50.3414
   447.98         50.2120
   448.12         50.0971
   448.26         50.0028
   448.40         49.9385
   448.54         49.9148
   448.68         49.9387
   448.82         50.0083
   448.96         50.1126
   449.10         50.2398
   449.24         50.3812
   449.38         50.5294
   449.52         50.6781
   449.66         50.8260
   449.80         50.9776
   449.94         51.1345
   450.08         51.2905
   450.22         51.4322
   450.36         51.5419
   450.50         51.6060
   450.64         51.6206
   450.78         51.5870
   450.92         51.5042
   451.06         51.3713
   451.20         51.1933
   451.34         50.9793
   451.48         50.7385
   451.62         50.4794
   451.76         50.2122
   451.90         49.9476
   452.04         49.6923
   452.18         49.4497
   452.32         49.2281
   452.46         49.0449
   452.60         48.9187
   452.74         48.8615
   452.88         48.8742
   453.02         48.9508
   453.16         49.0840
   453.30         49.2655
   453.44         49.4816
   453.58         49.7079
   453.72         49.9122
   453.86         50.0626
   454.00         50.1344
   454.14         50.1119
   454.28         49.9874
   454.42         49.7642
   454.56         49.4583
   454.70         49.0945
   454.84         48.7041
   454.98         48.3240
   455.12         47.9887
   455.26         47.7207
   455.40         47.5330
   455.54         47.4345
   455.68         47.4294
   455.82         47.5130
   455.96         47.6687
   456.10         47.8710
   456.24         48.0907
   456.38         48.3062
   456.52         48.5067
   456.66         48.6877
   456.80         48.8443
   456.94         48.9668
   457.08         49.0433
   457.22         49.0648
   457.36         49.0270
   457.50         48.9299
   457.64         48.7779
   457.78         48.5810
   457.92         48.3545
   458.06         48.1170
   458.20         47.8868
   458.34         47.6789
   458.48         47.5047
   458.62         47.3744
   458.76         47.2973
   458.90         47.2784
   459.04         47.3172
   459.18         47.4062
   459.32         47.5354
   459.46         47.6936
   459.60         47.8665
   459.74         48.0421
   459.88         48.2163
   460.02         48.3873
   460.16         48.5493
   460.30         48.6968
   460.44         48.8274
   460.58         48.9371
   460.72         49.0198
   460.86         49.0706
   461.00         49.0872
   461.14         49.0688
   461.28         49.0163
   461.42         48.9322
   461.56         48.8185
   461.70         48.6753
   461.84         48.5020
   461.98         48.3011
   462.12         48.0782
   462.26         47.8396
   462.40         47.5951
   462.54         47.3561
   462.68         47.1321
   462.82         46.9338
   462.96         46.7734
   463.10         46.6598
   463.24         46.5959
   463.38         46.5803
   463.52         46.6092
   463.66         46.6758
   463.80         46.7709
   463.94         46.8827
   464.08         46.9972
   464.22         47.1006
   464.36         47.1831
   464.50         47.2432
   464.64         47.2852
   464.78         47.3143
   464.92         47.3326
   465.06         47.3377
   465.20         47.3273
   465.34         47.3004
   465.48         47.2545
   465.62         47.1857
   465.76         47.0930
   465.90         46.9816
   466.04         46.8641
   466.18         46.7559
   466.32         46.6699
   466.46         46.6160
   466.60         46.5993
   466.74         46.6193
   466.88         46.6730
   467.02         46.7573
   467.16         46.8667
   467.30         46.9929
   467.44         47.1254
   467.58         47.2525
   467.72         47.3640
   467.86         47.4529
   468.00         47.5132
   468.14         47.5413
   468.28         47.5425
   468.42         47.5274
   468.56         47.5045
   468.70         47.4768
   468.84         47.4415
   468.98         47.3923
   469.12         47.3240
   469.26         47.2351
   469.40         47.1273
   469.54         47.0050
   469.68         46.8719
   469.82         46.7308
   469.96         46.5866
   470.10         46.4441
   470.24         46.3066
   470.38         46.1777
   470.52         46.0616
   470.66         45.9635
   470.80         45.8877
   470.94         45.8341
   471.08         45.7971
   471.22         45.7706
   471.36         45.7504
   471.50         45.7308
   471.64         45.7048
   471.78         45.6688
   471.92         45.6205
   472.06         45.5569
   472.20         45.4744
   472.34         45.3711
   472.48         45.2484
   472.62         45.1089
   472.76         44.9554
   472.90         44.7927
   473.04         44.6278
   473.18         44.4700
   473.32         44.3302
   473.46         44.2172
   473.60         44.1365
   473.74         44.0955
   473.88         44.0990
   474.02         44.1416
   474.16         44.2084
   474.30         44.2827
   474.44         44.3500
   474.58         44.3996
   474.72         44.4279
   474.86         44.4352
   475.00         44.4211
   475.14         44.3852
   475.28         44.3281
   475.42         44.2531
   475.56         44.1650
   475.70         44.0689
   475.84         43.9724
   475.98         43.8830
   476.12         43.8047
   476.26         43.7383
   476.40         43.6853
   476.54         43.6439
   476.68         43.6070
   476.82         43.5688
   476.96         43.5263
   477.10         43.4786
   477.24         43.4254
   477.38         43.3645
   477.52         43.2887
   477.66         43.1896
   477.80         43.0634
   477.94         42.9135
   478.08         42.7516
   478.22         42.5940
   478.36         42.4574
   478.50         42.3574
   478.64         42.3043
   478.78         42.3001
   478.92         42.3416
   479.06         42.4227
   479.20         42.5305
   479.34         42.6462
   479.48         42.7500
   479.62         42.8240
   479.76         42.8546
   479.90         42.8348
   480.04         42.7653
   480.18         42.6543
   480.32         42.5153
   480.46         42.3623
   480.60         42.2089
   480.74         42.0647
   480.88         41.9313
   481.02         41.8038
   481.16         41.6715
   481.30         41.5193
   481.44         41.3352
   481.58         41.1152
   481.72         40.8592
   481.86         40.5692
   482.00         40.2510
   482.14         39.9147
   482.28         39.5722
   482.42         39.2360
   482.56         38.9175
   482.70         38.6259
   482.84         38.3654
   482.98         38.1297
   483.12         37.9044
   483.26         37.6754
   483.40         37.4292
   483.54         37.1523
   483.68         36.8323
   483.82         36.4588
   483.96         36.0260
   484.10         35.5326
   484.24         34.9747
   484.38         34.3424
   484.52         33.6232
   484.66         32.8064
   484.80         31.8844
   484.94         30.8545
   485.08         29.7226
   485.22         28.5087
   485.36         27.2486
   485.50         25.9903
   485.64         24.7908
   485.78         23.7148
   485.92         22.8260
   486.06         22.1753
   486.20         21.7971
   486.34         21.7092
   486.48         21.9110
   486.62         22.3834
   486.76         23.0916
   486.90         23.9876
   487.04         25.0125
   487.18         26.1036
   487.32         27.2014
   487.46         28.2559
   487.60         29.2307
   487.74         30.1065
   487.88         30.8773
   488.02         31.5456
   488.16         32.1213
   488.30         32.6186
   488.44         33.0518
   488.58         33.4325
   488.72         33.7713
   488.86         34.0804
   489.00         34.3712
   489.14         34.6532
   489.28         34.9344
   489.42         35.2199
   489.56         35.5092
   489.70         35.7955
   489.84         36.0775
   489.98         36.3619
   490.12         36.6536
   490.26         36.9554
   490.40         37.2667
   490.54         37.5820
   490.68         37.8932
   490.82         38.1878
   490.96         38.4479
   491.10         38.6533
   491.24         38.7881
   491.38         38.8473
   491.52         38.8387
   491.66         38.7797
   491.80         38.6937
   491.94         38.6064
   492.08         38.5382
   492.22         38.4997
   492.36         38.4956
   492.50         38.5295
   492.64         38.5973
   492.78         38.6885
   492.92         38.7935
   493.06         38.9017
   493.20         39.0017
   493.34         39.0846
   493.48         39.1493
   493.62         39.2026
   493.76         39.2558
   493.90         39.3204
   494.04         39.4048
   494.18         39.5109
   494.32         39.6314
   494.46         39.7505
   494.60         39.8476
   494.74         39.9010
   494.88         39.8963
   495.02         39.8311
   495.16         39.7121
   495.30         39.5525
   495.44         39.3690
   495.58         39.1765
   495.72         38.9891
   495.86         38.8208
   496.00         38.6841
   496.14         38.5895
   496.28         38.5421
   496.42         38.5379
   496.56         38.5665
   496.70         38.6168
   496.84         38.6752
   496.98         38.7229
   497.12         38.7406
   497.26         38.7158
   497.40         38.6458
   497.54         38.5376
   497.68         38.4024
   497.82         38.2524
   497.96         38.0983
   498.10         37.9480
   498.24         37.8098
   498.38         37.6942
   498.52         37.6087
   498.66         37.5562
   498.80         37.5353
   498.94         37.5399
   499.08         37.5592
   499.22         37.5829
   499.36         37.6017
   499.50         37.6035
   499.64         37.5790
   499.78         37.5276
   499.92         37.4529
   500.06         37.3557
   500.20         37.2327
   500.34         37.0785
   500.48         36.8904
   500.62         36.6693
   500.76         36.4229
   500.90         36.1674
   501.04         35.9216
   501.18         35.7009
   501.32         35.5174
   501.46         35.3808
   501.60         35.2987
   501.74         35.2739
   501.88         35.3044
   502.02         35.3847
   502.16         35.5057
   502.30         35.6557
   502.44         35.8192
   502.58         35.9791
   502.72         36.1207
   502.86         36.2337
   503.00         36.3128
   503.14         36.3592
   503.28         36.3809
   503.42         36.3893
   503.56         36.3935
   503.70         36.3970
   503.84         36.3996
   503.98         36.4026
   504.12         36.4089
   504.26         36.4206
   504.40         36.4377
   504.54         36.4600
   504.68         36.4881
   504.82         36.5224
   504.96         36.5628
   505.10         36.6087
   505.24         36.6595
   505.38         36.7117
   505.52         36.7613
   505.66         36.8069
   505.80         36.8471
   505.94         36.8758
   506.08         36.8822
   506.22         36.8570
   506.36         36.7969
   506.50         36.7039
   506.64         36.5828
   506.78         36.4374
   506.92         36.2712
   507.06         36.0900
   507.20         35.9014
   507.34         35.7138
   507.48         35.5360
   507.62         35.3761
   507.76         35.2413
   507.90         35.1377
   508.04         35.0709
   508.18         35.0440
   508.32         35.0550
   508.46         35.0963
   508.60         35.1568
   508.74         35.2264
   508.88         35.2984
   509.02         35.3687
   509.16         35.4324
   509.30         35.4834
   509.44         35.5146
   509.58         35.5227
   509.72         35.5102
   509.86         35.4841
   510.00         35.4553
   510.14         35.4358
   510.28         35.4342
   510.42         35.4540
   510.56         35.4949
   510.70         35.5528
   510.84         35.6187
   510.98         35.6822
   511.12         35.7344
   511.26         35.7682
   511.40         35.7799
   511.54         35.7686
   511.68         35.7327
   511.82         35.6684
   511.96         35.5726
   512.10         35.4465
   512.24         35.2983
   512.38         35.1405
   512.52         34.9842
   512.66         34.8375
   512.80         34.7059
   512.94         34.5943
   513.08         34.5064
   513.22         34.4416
   513.36         34.3952
   513.50         34.3626
   513.64         34.3415
   513.78         34.3298
   513.92         34.3269
   514.06         34.3334
   514.20         34.3477
   514.34         34.3662
   514.48         34.3881
   514.62         34.4133
   514.76         34.4417
   514.90         34.4714
   515.04         34.4984
   515.18         34.5162
   515.32         34.5156
   515.46         34.4841
   515.60         34.4072
   515.74         34.2707
   515.88         34.0683
   516.02         33.8060
   516.16         33.5015
   516.30         33.1802
   516.44         32.8713
   516.58         32.6059
   516.72         32.4103
   516.86         32.2998
   517.00         32.2781
   517.14         32.3358
   517.28         32.4535
   517.42         32.6095
   517.56         32.7815
   517.70         32.9482
   517.84         33.0887
   517.98         33.1864
   518.12         33.2343
   518.26         33.2359
   518.40         33.2020
   518.54         33.1482
   518.68         33.0922
   518.82         33.0510
   518.96         33.0376
   519.10         33.0569
   519.24         33.1032
   519.38         33.1623
   519.52         33.2177
   519.66         33.2566
   519.80         33.2734
   519.94         33.2721
   520.08         33.2596
   520.22         33.2409
   520.36         33.2194
   520.50         33.1977
   520.64         33.1815
   520.78         33.1791
   520.92         33.1974
   521.06         33.2393
   521.20         33.3029
   521.34         33.3793
   521.48         33.4521
   521.62         33.5022
   521.76         33.5142
   521.90         33.4797
   522.04         33.3997
   522.18         33.2814
   522.32         33.1345
   522.46         32.9723
   522.60         32.8105
   522.74         32.6639
   522.88         32.5448
   523.02         32.4638
   523.16         32.4297
   523.30         32.4474
   523.44         32.5148
   523.58         32.6224
   523.72         32.7549
   523.86         32.8943
   524.00         33.0226
   524.14         33.1278
   524.28         33.2069
   524.42         33.2599
   524.56         33.2867
   524.70         33.2883
   524.84         33.2660
   524.98         33.2218
   525.12         33.1582
   525.26         33.0764
   525.40         32.9776
   525.54         32.8636
   525.68         32.7361
   525.82         32.5962
   525.96         32.4442
   526.10         32.2817
   526.24         32.1110
   526.38         31.9343
   526.52         31.7550
   526.66         31.5799
   526.80         31.4195
   526.94         31.2832
   527.08         31.1763
   527.22         31.1004
   527.36         31.0548
   527.50         31.0365
   527.64         31.0426
   527.78         31.0728
   527.92         31.1308
   528.06         31.2204
   528.20         31.3408
   528.34         31.4865
   528.48         31.6485
   528.62         31.8154
   528.76         31.9761
   528.90         32.1206
   529.04         32.2411
   529.18         32.3341
   529.32         32.4004
   529.46         32.4404
   529.60         32.4546
   529.74         32.4468
   529.88         32.4248
   530.02         32.3966
   530.16         32.3673
   530.30         32.3381
   530.44         32.3056
   530.58         32.2627
   530.72         32.2012
   530.86         32.1175
   531.00         32.0132
   531.14         31.8918
   531.28         31.7574
   531.42         31.6138
   531.56         31.4622
   531.70         31.3029
   531.84         31.1379
   531.98         30.9717
   532.12         30.8107
   532.26         30.6639
   532.40         30.5407
   532.54         30.4468
   532.68         30.3832
   532.82         30.3490
   532.96         30.3441
   533.10         30.3707
   533.24         30.4332
   533.38         30.5341
   533.52         30.6698
   533.66         30.8284
   533.80         30.9940
   533.94         31.1530
   534.08         31.2950
   534.22         31.4137
   534.36         31.5090
   534.50         31.5865
   534.64         31.6513
   534.78         31.7039
   534.92         31.7417
   535.06         31.7591
   535.20         31.7501
   535.34         31.7109
   535.48         31.6407
   535.62         31.5413
   535.76         31.4165
   535.90         31.2706
   536.04         31.1085
   536.18         30.9394
   536.32         30.7776
   536.46         30.6402
   536.60         30.5407
   536.74         30.4851
   536.88         30.4736
   537.02         30.5010
   537.16         30.5566
   537.30         30.6249
   537.44         30.6895
   537.58         30.7383
   537.72         30.7627
   537.86         30.7578
   538.00         30.7221
   538.14         30.6575
   538.28         30.5695
   538.42         30.4664
   538.56         30.3562
   538.70         30.2470
   538.84         30.1466
   538.98         30.0605
   539.12         29.9894
   539.26         29.9300
   539.40         29.8780
   539.54         29.8310
   539.68         29.7903
   539.82         29.7597
   539.96         29.7428
   540.10         29.7417
   540.24         29.7568
   540.38         29.7867
   540.52         29.8295
   540.66         29.8856
   540.80         29.9547
   540.94         30.0334
   541.08         30.1158
   541.22         30.1944
   541.36         30.2614
   541.50         30.3096
   541.64         30.3326
   541.78         30.3263
   541.92         30.2902
   542.06         30.2265
   542.20         30.1393
   542.34         30.0349
   542.48         29.9232
   542.62         29.8169
   542.76         29.7282
   542.90         29.6681
   543.04         29.6444
   543.18         29.6597
   543.32         29.7081
   543.46         29.7757
   543.60         29.8472
   543.74         29.9108
   543.88         29.9589
   544.02         29.9871
   544.16         29.9939
   544.30         29.9785
   544.44         29.9397
   544.58         29.8767
   544.72         29.7920
   544.86         29.6938
   545.00         29.5948
   545.14         29.5077
   545.28         29.4389
   545.42         29.3884
   545.56         29.3550
   545.70         29.3366
   545.84         29.3306
   545.98         29.3342
   546.12         29.3463
   546.26         29.3675
   546.40         29.3953
   546.54         29.4231
   546.68         29.4433
   546.82         29.4490
   546.96         29.4375
   547.10         29.4100
   547.24         29.3724
   547.38         29.3328
   547.52         29.2988
   547.66         29.2734
   547.80         29.2566
   547.94         29.2482
   548.08         29.2496
   548.22         29.2626
   548.36         29.2868
   548.50         29.3208
   548.64         29.3621
   548.78         29.4071
   548.92         29.4510
   549.06         29.4888
   549.20         29.5171
   549.34         29.5346
   549.48         29.5400
   549.62         29.5331
   549.76         29.5143
   549.90         29.4843
   550.04         29.4441
   550.18         29.3968
   550.32         29.3467
   550.46         29.2994
   550.60         29.2616
   550.74         29.2386
   550.88         29.2326
   551.02         29.2421
   551.16         29.2624
   551.30         29.2855
   551.44         29.3019
   551.58         29.3009
   551.72         29.2730
   551.86         29.2142
   552.00         29.1261
   552.14         29.0140
   552.28         28.8845
   552.42         28.7454
   552.56         28.6056
   552.70         28.4761
   552.84         28.3680
   552.98         28.2883
   553.12         28.2402
   553.26         28.2228
   553.40         28.2308
   553.54         28.2558
   553.68         28.2898
   553.82         28.3260
   553.96         28.3586
   554.10         28.3827
   554.24         28.3938
   554.38         28.3912
   554.52         28.3782
   554.66         28.3594
   554.80         28.3386
   554.94         28.3197
   555.08         28.3065
   555.22         28.3022
   555.36         28.3076
   555.50         28.3198
   555.64         28.3338
   555.78         28.3432
   555.92         28.3411
   556.06         28.3214
   556.20         28.2812
   556.34         28.2209
   556.48         28.1417
   556.62         28.0469
   556.76         27.9432
   556.90         27.8398
   557.04         27.7475
   557.18         27.6754
   557.32         27.6276
   557.46         27.6028
   557.60         27.5957
   557.74         27.6001
   557.88         27.6110
   558.02         27.6240
   558.16         27.6337
   558.30         27.6346
   558.44         27.6225
   558.58         27.5973
   558.72         27.5637
   558.86         27.5290
   559.00         27.4996
   559.14         27.4801
   559.28         27.4726
   559.42         27.4784
   559.56         27.4992
   559.70         27.5363
   559.84         27.5877
   559.98         27.6480
   560.12         27.7096
   560.26         27.7644
   560.40         27.8048
   560.54         27.8231
   560.68         27.8116
   560.82         27.7673
   560.96         27.6946
   561.10         27.6034
   561.24         27.5049
   561.38         27.4090
   561.52         27.3225
   561.66         27.2522
   561.80         27.2044
   561.94         27.1826
   562.08         27.1865
   562.22         27.2120
   562.36         27.2510
   562.50         27.2925
   562.64         27.3260
   562.78         27.3448
   562.92         27.3468
   563.06         27.3354
   563.20         27.3180
   563.34         27.3037
   563.48         27.3010
   563.62         27.3143
   563.76         27.3424
   563.90         27.3800
   564.04         27.4203
   564.18         27.4576
   564.32         27.4853
   564.46         27.4959
   564.60         27.4823
   564.74         27.4392
   564.88         27.3662
   565.02         27.2670
   565.16         27.1472
   565.30         27.0143
   565.44         26.8776
   565.58         26.7466
   565.72         26.6293
   565.86         26.5315
   566.00         26.4578
   566.14         26.4116
   566.28         26.3928
   566.42         26.3980
   566.56         26.4218
   566.70         26.4584
   566.84         26.4997
   566.98         26.5351
   567.12         26.5561
   567.26         26.5577
   567.40         26.5368
   567.54         26.4940
   567.68         26.4319
   567.82         26.3551
   567.96         26.2709
   568.10         26.1868
   568.24         26.1101
   568.38         26.0486
   568.52         26.0090
   568.66         25.9935
   568.80         25.9991
   568.94         26.0203
   569.08         26.0503
   569.22         26.0806
   569.36         26.1031
   569.50         26.1110
   569.64         26.1002
   569.78         26.0707
   569.92         26.0233
   570.06         25.9596
   570.20         25.8839
   570.34         25.8047
   570.48         25.7329
   570.62         25.6791
   570.76         25.6507
   570.90         25.6518
   571.04         25.6827
   571.18         25.7395
   571.32         25.8147
   571.46         25.9010
   571.60         25.9915
   571.74         26.0781
   571.88         26.1539
   572.02         26.2161
   572.16         26.2656
   572.30         26.3038
   572.44         26.3308
   572.58         26.3466
   572.72         26.3520
   572.86         26.3484
   573.00         26.3394
   573.14         26.3287
   573.28         26.3182
   573.42         26.3080
   573.56         26.2969
   573.70         26.2831
   573.84         26.2649
   573.98         26.2392
   574.12         26.2012
   574.26         26.1456
   574.40         26.0692
   574.54         25.9732
   574.68         25.8628
   574.82         25.7457
   574.96         25.6291
   575.10         25.5190
   575.24         25.4236
   575.38         25.3523
   575.52         25.3130
   575.66         25.3106
   575.80         25.3432
   575.94         25.4031
   576.08         25.4804
   576.22         25.5640
   576.36         25.6438
   576.50         25.7115
   576.64         25.7606
   576.78         25.7863
   576.92         25.7864
   577.06         25.7622
   577.20         25.7160
   577.34         25.6519
   577.48         25.5761
   577.62         25.4940
   577.76         25.4111
   577.90         25.3342
   578.04         25.2673
   578.18         25.2123
   578.32         25.1697
   578.46         25.1404
   578.60         25.1270
   578.74         25.1310
   578.88         25.1507
   579.02         25.1829
   579.16         25.2238
   579.30         25.2678
   579.44         25.3099
   579.58         25.3493
   579.72         25.3893
   579.86         25.4321
   580.00         25.4776
   580.14         25.5236
   580.28         25.5668
   580.42         25.6042
   580.56         25.6334
   580.70         25.6522
   580.84         25.6590
   580.98         25.6518
   581.12         25.6297
   581.26         25.5933
   581.40         25.5433
   581.54         25.4801
   581.68         25.4052
   581.82         25.3216
   581.96         25.2328
   582.10         25.1431
   582.24         25.0563
   582.38         24.9750
   582.52         24.9020
   582.66         24.8411
   582.80         24.7967
   582.94         24.7724
   583.08         24.7680
   583.22         24.7807
   583.36         24.8073
   583.50         24.8436
   583.64         24.8845
   583.78         24.9261
   583.92         24.9648
   584.06         24.9984
   584.20         25.0269
   584.34         25.0517
   584.48         25.0734
   584.62         25.0918
   584.76         25.1076
   584.90         25.1244
   585.04         25.1467
   585.18         25.1769
   585.32         25.2148
   585.46         25.2579
   585.60         25.3031
   585.74         25.3497
   585.88         25.3982
   586.02         25.4482
   586.16         25.4975
   586.30         25.5444
   586.44         25.5878
   586.58         25.6289
   586.72         25.6713
   586.86         25.7155
   587.00         25.7575
   587.14         25.7920
   587.28         25.8148
   587.42         25.8227
   587.56         25.8110
   587.70         25.7696
   587.84         25.6859
   587.98         25.5527
   588.12         25.3719
   588.26         25.1525
   588.40         24.9028
   588.54         24.6297
   588.68         24.3434
   588.82         24.0600
   588.96         23.7996
   589.10         23.5837
   589.24         23.4321
   589.38         23.3566
   589.52         23.3579
   589.66         23.4281
   589.80         23.5544
   589.94         23.7207
   590.08         23.9088
   590.22         24.1017
   590.36         24.2857
   590.50         24.4527
   590.64         24.5997
   590.78         24.7233
   590.92         24.8169
   591.06         24.8754
   591.20         24.9017
   591.34         24.9059
   591.48         24.8978
   591.62         24.8839
   591.76         24.8662
   591.90         24.8426
   592.04         24.8090
   592.18         24.7623
   592.32         24.7031
   592.46         24.6340
   592.60         24.5574
   592.74         24.4771
   592.88         24.3968
   593.02         24.3190
   593.16         24.2449
   593.30         24.1756
   593.44         24.1124
   593.58         24.0574
   593.72         24.0130
   593.86         23.9814
   594.00         23.9622
   594.14         23.9523
   594.28         23.9475
   594.42         23.9445
   594.56         23.9407
   594.70         23.9352
   594.84         23.9284
   594.98         23.9205
   595.12         23.9106
   595.26         23.8986
   595.40         23.8855
   595.54         23.8725
   595.68         23.8594
   595.82         23.8463
   595.96         23.8331
   596.10         23.8199
   596.24         23.8066
   596.38         23.7933
   596.52         23.7800
   596.66         23.7667
   596.80         23.7533
   596.94         23.7400
   597.08         23.7267
   597.22         23.7133
   597.36         23.7000
   597.50         23.6867
   597.64         23.6733
   597.78         23.6600
   597.92         23.6466
   598.06         23.6332
   598.20         23.6198
   598.34         23.6063
   598.48         23.5922
   598.62         23.5765
   598.76         23.5586
   598.90         23.5378
   599.04         23.5121
   599.18         23.4779
   599.32         23.4312
   599.46         23.3712
   599.60         23.3016
   599.74         23.2291
   599.88         23.1603
   600.02         23.1022
   600.16         23.0599
   600.30         23.0359
   600.44         23.0320
   600.58         23.0482
   600.72         23.0821
   600.86         23.1289
   601.00         23.1831
   601.14         23.2393
   601.28         23.2922
   601.42         23.3371
   601.56         23.3700
   601.70         23.3885
   601.84         23.3932
   601.98         23.3872
   602.12         23.3735
   602.26         23.3540
   602.40         23.3294
   602.54         23.2991
   602.68         23.2612
   602.82         23.2121
   602.96         23.1496
   603.10         23.0745
   603.24         22.9896
   603.38         22.8996
   603.52         22.8116
   603.66         22.7337
   603.80         22.6719
   603.94         22.6285
   604.08         22.6039
   604.22         22.5961
   604.36         22.6015
   604.50         22.6144
   604.64         22.6276
   604.78         22.6361
   604.92         22.6388
   605.06         22.6361
   605.20         22.6271
   605.34         22.6114
   605.48         22.5914
   605.62         22.5728
   605.76         22.5630
   605.90         22.5674
   606.04         22.5876
   606.18         22.6207
   606.32         22.6608
   606.46         22.7001
   606.60         22.7331
   606.74         22.7565
   606.88         22.7685
   607.02         22.7685
   607.16         22.7565
   607.30         22.7340
   607.44         22.7037
   607.58         22.6682
   607.72         22.6294
   607.86         22.5890
   608.00         22.5494
   608.14         22.5114
   608.28         22.4739
   608.42         22.4354
   608.56         22.3962
   608.70         22.3571
   608.84         22.3179
   608.98         22.2784
   609.12         22.2375
   609.26         22.1934
   609.40         22.1449
   609.54         22.0926
   609.68         22.0393
   609.82         21.9890
   609.96         21.9463
   610.10         21.9152
   610.24         21.8972
   610.38         21.8917
   610.52         21.8982
   610.66         21.9153
   610.80         21.9407
   610.94         21.9725
   611.08         22.0089
   611.22         22.0465
   611.36         22.0795
   611.50         22.1028
   611.64         22.1127
   611.78         22.1084
   611.92         22.0924
   612.06         22.0700
   612.20         22.0460
   612.34         22.0233
   612.48         22.0024
   612.62         21.9814
   612.76         21.9572
   612.90         21.9273
   613.04         21.8900
   613.18         21.8452
   613.32         21.7932
   613.46         21.7355
   613.60         21.6734
   613.74         21.6094
   613.88         21.5469
   614.02         21.4899
   614.16         21.4419
   614.30         21.4058
   614.44         21.3852
   614.58         21.3830
   614.72         21.4000
   614.86         21.4347
   615.00         21.4826
   615.14         21.5368
   615.28         21.5893
   615.42         21.6343
   615.56         21.6694
   615.70         21.6927
   615.84         21.7028
   615.98         21.7002
   616.12         21.6862
   616.26         21.6625
   616.40         21.6322
   616.54         21.5982
   616.68         21.5628
   616.82         21.5283
   616.96         21.4966
   617.10         21.4683
   617.24         21.4435
   617.38         21.4215
   617.52         21.4022
   617.66         21.3846
   617.80         21.3690
   617.94         21.3565
   618.08         21.3498
   618.22         21.3501
   618.36         21.3555
   618.50         21.3638
   618.64         21.3742
   618.78         21.3863
   618.92         21.3986
   619.06         21.4085
   619.20         21.4132
   619.34         21.4118
   619.48         21.4054
   619.62         21.3959
   619.76         21.3854
   619.90         21.3754
   620.04         21.3666
   620.18         21.3596
   620.32         21.3549
   620.46         21.3527
   620.60         21.3523
   620.74         21.3516
   620.88         21.3474
   621.02         21.3366
   621.16         21.3181
   621.30         21.2932
   621.44         21.2645
   621.58         21.2342
   621.72         21.2027
   621.86         21.1699
   622.00         21.1357
   622.14         21.1006
   622.28         21.0652
   622.42         21.0301
   622.56         20.9956
   622.70         20.9606
   622.84         20.9234
   622.98         20.8835
   623.12         20.8408
   623.26         20.7961
   623.40         20.7491
   623.54         20.6993
   623.68         20.6466
   623.82         20.5925
   623.96         20.5402
   624.10         20.4926
   624.24         20.4519
   624.38         20.4202
   624.52         20.4006
   624.66         20.3966
   624.80         20.4108
   624.94         20.4445
   625.08         20.4964
   625.22         20.5634
   625.36         20.6410
   625.50         20.7263
   625.64         20.8161
   625.78         20.9048
   625.92         20.9841
   626.06         21.0460
   626.20         21.0853
   626.34         21.1014
   626.48         21.0948
   626.62         21.0650
   626.76         21.0110
   626.90         20.9330
   627.04         20.8335
   627.18         20.7178
   627.32         20.5933
   627.46         20.4681
   627.60         20.3498
   627.74         20.2455
   627.88         20.1614
   628.02         20.1025
   628.16         20.0717
   628.30         20.0689
   628.44         20.0908
   628.58         20.1327
   628.72         20.1890
   628.86         20.2533
   629.00         20.3168
   629.14         20.3710
   629.28         20.4097
   629.42         20.4301
   629.56         20.4326
   629.70         20.4200
   629.84         20.3955
   629.98         20.3629
   630.12         20.3259
   630.26         20.2888
   630.40         20.2559
   630.54         20.2302
   630.68         20.2120
   630.82         20.1994
   630.96         20.1896
   631.10         20.1802
   631.24         20.1700
   631.38         20.1579
   631.52         20.1426
   631.66         20.1232
   631.80         20.0999
   631.94         20.0734
   632.08         20.0441
   632.22         20.0131
   632.36         19.9824
   632.50         19.9551
   632.64         19.9333
   632.78         19.9189
   632.92         19.9132
   633.06         19.9156
   633.20         19.9229
   633.34         19.9299
   633.48         19.9313
   633.62         19.9229
   633.76         19.9031
   633.90         19.8727
   634.04         19.8340
   634.18         19.7896
   634.32         19.7436
   634.46         19.7005
   634.60         19.6637
   634.74         19.6362
   634.88         19.6206
   635.02         19.6189
   635.16         19.6313
   635.30         19.6564
   635.44         19.6922
   635.58         19.7350
   635.72         19.7788
   635.86         19.8166
   636.00         19.8410
   636.14         19.8471
   636.28         19.8348
   636.42         19.8071
   636.56         19.7672
   636.70         19.7179
   636.84         19.6629
   636.98         19.6061
   637.12         19.5510
   637.26         19.5012
   637.40         19.4611
   637.54         19.4363
   637.68         19.4308
   637.82         19.4456
   637.96         19.4783
   638.10         19.5232
   638.24         19.5728
   638.38         19.6200
   638.52         19.6586
   638.66         19.6846
   638.80         19.6974
   638.94         19.6977
   639.08         19.6864
   639.22         19.6651
   639.36         19.6365
   639.50         19.6036
   639.64         19.5688
   639.78         19.5343
   639.92         19.5025
   640.06         19.4763
   640.20         19.4566
   640.34         19.4412
   640.48         19.4263
   640.62         19.4089
   640.76         19.3874
   640.90         19.3623
   641.04         19.3346
   641.18         19.3056
   641.32         19.2768
   641.46         19.2519
   641.60         19.2353
   641.74         19.2297
   641.88         19.2356
   642.02         19.2517
   642.16         19.2746
   642.30         19.2999
   642.44         19.3229
   642.58         19.3403
   642.72         19.3490
   642.86         19.3472
   643.00         19.3348
   643.14         19.3131
   643.28         19.2841
   643.42         19.2503
   643.56         19.2138
   643.70         19.1748
   643.84         19.1328
   643.98         19.0885
   644.12         19.0440
   644.26         18.9999
   644.40         18.9549
   644.54         18.9068
   644.68         18.8547
   644.82         18.7992
   644.96         18.7431
   645.10         18.6908
   645.24         18.6469
   645.38         18.6163
   645.52         18.6025
   645.66         18.6064
   645.80         18.6251
   645.94         18.6555
   646.08         18.6944
   646.22         18.7384
   646.36         18.7840
   646.50         18.8292
   646.64         18.8736
   646.78         18.9159
   646.92         18.9539
   647.06         18.9859
   647.20         19.0122
   647.34         19.0350
   647.48         19.0566
   647.62         19.0780
   647.76         19.0978
   647.90         19.1127
   648.04         19.1194
   648.18         19.1151
   648.32         19.0964
   648.46         19.0603
   648.60         19.0063
   648.74         18.9365
   648.88         18.8564
   649.02         18.7733
   649.16         18.6946
   649.30         18.6274
   649.44         18.5758
   649.58         18.5415
   649.72         18.5257
   649.86         18.5288
   650.00         18.5495
   650.14         18.5838
   650.28         18.6253
   650.42         18.6662
   650.56         18.7008
   650.70         18.7260
   650.84         18.7404
   650.98         18.7440
   651.12         18.7397
   651.26         18.7331
   651.40         18.7306
   651.54         18.7365
   651.68         18.7508
   651.82         18.7696
   651.96         18.7878
   652.10         18.8004
   652.24         18.8035
   652.38         18.7934
   652.52         18.7671
   652.66         18.7222
   652.80         18.6579
   652.94         18.5763
   653.08         18.4812
   653.22         18.3772
   653.36         18.2680
   653.50         18.1555
   653.64         18.0399
   653.78         17.9188
   653.92         17.7890
   654.06         17.6465
   654.20         17.4858
   654.34         17.3014
   654.48         17.0887
   654.62         16.8445
   654.76         16.5656
   654.90         16.2469
   655.04         15.8829
   655.18         15.4704
   655.32         15.0136
   655.46         14.5263
   655.60         14.0306
   655.74         13.5537
   655.88         13.1256
   656.02         12.7751
   656.16         12.5272
   656.30         12.4002
   656.44         12.4028
   656.58         12.5338
   656.72         12.7821
   656.86         13.1279
   657.00         13.5456
   657.14         14.0051
   657.28         14.4754
   657.42         14.9281
   657.56         15.3404
   657.70         15.6996
   657.84         16.0036
   657.98         16.2583
   658.12         16.4721
   658.26         16.6518
   658.40         16.8033
   658.54         16.9320
   658.68         17.0416
   658.82         17.1349
   658.96         17.2149
   659.10         17.2843
   659.24         17.3457
   659.38         17.4010
   659.52         17.4509
   659.66         17.4955
   659.80         17.5346
   659.94         17.5681
   660.08         17.5963
   660.22         17.6194
   660.36         17.6372
   660.50         17.6491
   660.64         17.6552
   660.78         17.6564
   660.92         17.6538
   661.06         17.6498
   661.20         17.6469
   661.34         17.6473
   661.48         17.6535
   661.62         17.6668
   661.76         17.6860
   661.90         17.7083
   662.04         17.7313
   662.18         17.7533
   662.32         17.7734
   662.46         17.7911
   662.60         17.8069
   662.74         17.8210
   662.88         17.8327
   663.02         17.8405
   663.16         17.8429
   663.30         17.8393
   663.44         17.8306
   663.58         17.8185
   663.72         17.8063
   663.86         17.7973
   664.00         17.7927
   664.14         17.7915
   664.28         17.7917
   664.42         17.7922
   664.56         17.7921
   664.70         17.7895
   664.84         17.7833
   664.98         17.7729
   665.12         17.7584
   665.26         17.7397
   665.40         17.7166
   665.54         17.6886
   665.68         17.6563
   665.82         17.6219
   665.96         17.5893
   666.10         17.5612
   666.24         17.5379
   666.38         17.5170
   666.52         17.4950
   666.66         17.4688
   666.80         17.4364
   666.94         17.3980
   667.08         17.3562
   667.22         17.3146
   667.36         17.2770
   667.50         17.2472
   667.64         17.2273
   667.78         17.2175
   667.92         17.2168
   668.06         17.2241
   668.20         17.2377
   668.34         17.2561
   668.48         17.2771
   668.62         17.2978
   668.76         17.3159
   668.90         17.3297
   669.04         17.3389
   669.18         17.3439
   669.32         17.3444
   669.46         17.3396
   669.60         17.3285
   669.74         17.3104
   669.88         17.2845
   670.02         17.2495
   670.16         17.2060
   670.30         17.1565
   670.44         17.1051
   670.58         17.0566
   670.72         17.0149
   670.86         16.9826
   671.00         16.9613
   671.14         16.9528
   671.28         16.9576
   671.42         16.9744
   671.56         16.9987
   671.70         17.0249
   671.84         17.0480
   671.98         17.0644
   672.12         17.0712
   672.26         17.0674
   672.40         17.0539
   672.54         17.0332
   672.68         17.0083
   672.82         16.9827
   672.96         16.9586
   673.10         16.9363
   673.24         16.9158
   673.38         16.8971
   673.52         16.8802
   673.66         16.8649
   673.80         16.8505
   673.94         16.8359
   674.08         16.8207
   674.22         16.8043
   674.36         16.7864
   674.50         16.7669
   674.64         16.7463
   674.78         16.7257
   674.92         16.7078
   675.06         16.6951
   675.20         16.6886
   675.34         16.6886
   675.48         16.6949
   675.62         16.7068
   675.76         16.7239
   675.90         16.7467
   676.04         16.7749
   676.18         16.8055
   676.32         16.8346
   676.46         16.8577
   676.60         16.8708
   676.74         16.8703
   676.88         16.8547
   677.02         16.8245
   677.16         16.7819
   677.30         16.7300
   677.44         16.6729
   677.58         16.6153
   677.72         16.5610
   677.86         16.5135
   678.00         16.4760
   678.14         16.4502
   678.28         16.4358
   678.42         16.4318
   678.56         16.4364
   678.70         16.4478
   678.84         16.4637
   678.98         16.4815
   679.12         16.4994
   679.26         16.5159
   679.40         16.5294
   679.54         16.5375
   679.68         16.5376
   679.82         16.5284
   679.96         16.5104
   680.10         16.4854
   680.24         16.4554
   680.38         16.4219
   680.52         16.3873
   680.66         16.3545
   680.80         16.3251
   680.94         16.3006
   681.08         16.2818
   681.22         16.2694
   681.36         16.2629
   681.50         16.2605
   681.64         16.2594
   681.78         16.2573
   681.92         16.2530
   682.06         16.2463
   682.20         16.2388
   682.34         16.2322
   682.48         16.2275
   682.62         16.2248
   682.76         16.2226
   682.90         16.2196
   683.04         16.2147
   683.18         16.2074
   683.32         16.1975
   683.46         16.1843
   683.60         16.1674
   683.74         16.1463
   683.88         16.1211
   684.02         16.0925
   684.16         16.0612
   684.30         16.0288
   684.44         15.9982
   684.58         15.9721
   684.72         15.9516
   684.86         15.9356
   685.00         15.9218
   685.14         15.9084
   685.28         15.8940
   685.42         15.8743
   685.56         15.8395
   685.70         15.7740
   685.84         15.6607
   685.98         15.4870
   686.12         15.2470
   686.26         14.9423
   686.40         14.5837
   686.54         14.1909
   686.68         13.7900
   686.82         13.4103
   686.96         13.0808
   687.10         12.8274
   687.24         12.6688
   687.38         12.6133
   687.52         12.6584
   687.66         12.7911
   687.80         12.9888
   687.94         13.2217
   688.08         13.4577
   688.22         13.6689
   688.36         13.8367
   688.50         13.9540
   688.64         14.0225
   688.78         14.0498
   688.92         14.0467
   689.06         14.0263
   689.20         14.0018
   689.34         13.9840
   689.48         13.9798
   689.62         13.9925
   689.76         14.0219
   689.90         14.0645
   690.04         14.1154
   690.18         14.1696
   690.32         14.2233
   690.46         14.2746
   690.60         14.3237
   690.74         14.3719
   690.88         14.4212
   691.02         14.4739
   691.16         14.5320
   691.30         14.5975
   691.44         14.6717
   691.58         14.7539
   691.72         14.8408
   691.86         14.9280
   692.00         15.0118
   692.14         15.0893
   692.28         15.1576
   692.42         15.2130
   692.56         15.2524
   692.70         15.2730
   692.84         15.2733
   692.98         15.2543
   693.12         15.2199
   693.26         15.1765
   693.40         15.1302
   693.54         15.0872
   693.68         15.0519
   693.82         15.0265
   693.96         15.0128
   694.10         15.0125
   694.24         15.0259
   694.38         15.0521
   694.52         15.0896
   694.66         15.1364
   694.80         15.1892
   694.94         15.2439
   695.08         15.2970
   695.22         15.3462
   695.36         15.3904
   695.50         15.4297
   695.64         15.4659
   695.78         15.5014
   695.92         15.5371
   696.06         15.5722
   696.20         15.6059
   696.34         15.6373
   696.48         15.6664
   696.62         15.6919
   696.76         15.7103
   696.90         15.7171
   697.04         15.7085
   697.18         15.6829
   697.32         15.6407
   697.46         15.5841
   697.60         15.5164
   697.74         15.4412
   697.88         15.3626
   698.02         15.2851
   698.16         15.2122
   698.30         15.1467
   698.44         15.0910
   698.58         15.0471
   698.72         15.0174
   698.86         15.0026
   699.00         15.0010
   699.14         15.0077
   699.28         15.0165
   699.42         15.0230
   699.56         15.0258
   699.70         15.0243
   699.84         15.0185
   699.98         15.0087
   700.12         14.9955
   700.26         14.9785
   700.40         14.9573
   700.54         14.9321
   700.68         14.9048
   700.82         14.8782
   700.96         14.8559
   701.10         14.8402
   701.24         14.8314
   701.38         14.8290
   701.52         14.8322
   701.66         14.8399
   701.80         14.8520
   701.94         14.8691
   702.08         14.8921
   702.22         14.9204
   702.36         14.9515
   702.50         14.9828
   702.64         15.0115
   702.78         15.0340
   702.92         15.0470
   703.06         15.0488
   703.20         15.0391
   703.34         15.0178
   703.48         14.9860
   703.62         14.9459
   703.76         14.9008
   703.90         14.8560
   704.04         14.8172
   704.18         14.7871
   704.32         14.7652
   704.46         14.7502
   704.60         14.7407
   704.74         14.7344
   704.88         14.7295
   705.02         14.7259
   705.16         14.7245
   705.30         14.7247
   705.44         14.7243
   705.58         14.7211
   705.72         14.7141
   705.86         14.7034
   706.00         14.6905
   706.14         14.6782
   706.28         14.6690
   706.42         14.6646
   706.56         14.6665
   706.70         14.6755
   706.84         14.6908
   706.98         14.7119
   707.12         14.7388
   707.26         14.7695
   707.40         14.8011
   707.54         14.8311
   707.68         14.8571
   707.82         14.8766
   707.96         14.8867
   708.10         14.8865
   708.24         14.8779
   708.38         14.8643
   708.52         14.8477
   708.66         14.8284
   708.80         14.8060
   708.94         14.7801
   709.08         14.7511
   709.22         14.7210
   709.36         14.6912
   709.50         14.6623
   709.64         14.6348
   709.78         14.6086
   709.92         14.5831
   710.06         14.5595
   710.20         14.5399
   710.34         14.5260
   710.48         14.5187
   710.62         14.5166
   710.76         14.5174
   710.90         14.5179
   711.04         14.5154
   711.18         14.5080
   711.32         14.4961
   711.46         14.4820
   711.60         14.4685
   711.74         14.4593
   711.88         14.4567
   712.02         14.4617
   712.16         14.4745
   712.30         14.4961
   712.44         14.5263
   712.58         14.5639
   712.72         14.6063
   712.86         14.6505
   713.00         14.6930
   713.14         14.7304
   713.28         14.7599
   713.42         14.7795
   713.56         14.7888
   713.70         14.7891
   713.84         14.7823
   713.98         14.7704
   714.12         14.7551
   714.26         14.7382
   714.40         14.7211
   714.54         14.7056
   714.68         14.6941
   714.82         14.6887
   714.96         14.6899
   715.10         14.6966
   715.24         14.7063
   715.38         14.7171
   715.52         14.7272
   715.66         14.7351
   715.80         14.7393
   715.94         14.7384
   716.08         14.7308
   716.22         14.7160
   716.36         14.6944
   716.50         14.6649
   716.64         14.6268
   716.78         14.5800
   716.92         14.5250
   717.06         14.4621
   717.20         14.3918
   717.34         14.3128
   717.48         14.2223
   717.62         14.1199
   717.76         14.0083
   717.90         13.8912
   718.04         13.7738
   718.18         13.6618
   718.32         13.5611
   718.46         13.4767
   718.60         13.4129
   718.74         13.3710
   718.88         13.3495
   719.02         13.3453
   719.16         13.3554
   719.30         13.3770
   719.44         13.4057
   719.58         13.4372
   719.72         13.4688
   719.86         13.4997
   720.00         13.5309
   720.14         13.5664
   720.28         13.6113
   720.42         13.6687
   720.56         13.7392
   720.70         13.8223
   720.84         13.9155
   720.98         14.0149
   721.12         14.1151
   721.26         14.2100
   721.40         14.2930
   721.54         14.3594
   721.68         14.4074
   721.82         14.4371
   721.96         14.4482
   722.10         14.4414
   722.24         14.4191
   722.38         14.3860
   722.52         14.3484
   722.66         14.3131
   722.80         14.2844
   722.94         14.2632
   723.08         14.2479
   723.22         14.2361
   723.36         14.2255
   723.50         14.2147
   723.64         14.2039
   723.78         14.1922
   723.92         14.1762
   724.06         14.1513
   724.20         14.1124
   724.34         14.0570
   724.48         13.9860
   724.62         13.9026
   724.76         13.8113
   724.90         13.7178
   725.04         13.6290
   725.18         13.5517
   725.32         13.4900
   725.46         13.4461
   725.60         13.4230
   725.74         13.4235
   725.88         13.4474
   726.02         13.4903
   726.16         13.5449
   726.30         13.6015
   726.44         13.6500
   726.58         13.6824
   726.72         13.6970
   726.86         13.6974
   727.00         13.6895
   727.14         13.6782
   727.28         13.6658
   727.42         13.6536
   727.56         13.6433
   727.70         13.6362
   727.84         13.6309
   727.98         13.6257
   728.12         13.6195
   728.26         13.6108
   728.40         13.5964
   728.54         13.5734
   728.68         13.5422
   728.82         13.5073
   728.96         13.4733
   729.10         13.4424
   729.24         13.4163
   729.38         13.3968
   729.52         13.3845
   729.66         13.3770
   729.80         13.3704
   729.94         13.3609
   730.08         13.3455
   730.22         13.3221
   730.36         13.2896
   730.50         13.2489
   730.64         13.2036
   730.78         13.1580
   730.92         13.1155
   731.06         13.0790
   731.20         13.0514
   731.34         13.0339
   731.48         13.0252
   731.62         13.0219
   731.76         13.0215
   731.90         13.0237
   732.04         13.0285
   732.18         13.0346
   732.32         13.0393
   732.46         13.0399
   732.60         13.0358
   732.74         13.0291
   732.88         13.0233
   733.02         13.0205
   733.16         13.0216
   733.30         13.0258
   733.44         13.0301
   733.58         13.0313
   733.72         13.0262
   733.86         13.0120
   734.00         12.9879
   734.14         12.9558
   734.28         12.9200
   734.42         12.8846
   734.56         12.8525
   734.70         12.8255
   734.84         12.8056
   734.98         12.7944
   735.12         12.7933
   735.26         12.8023
   735.40         12.8192
   735.54         12.8392
   735.68         12.8565
   735.82         12.8658
   735.96         12.8635
   736.10         12.8484
   736.24         12.8228
   736.38         12.7897
   736.52         12.7537
   736.66         12.7196
   736.80         12.6909
   736.94         12.6692
   737.08         12.6548
   737.22         12.6468
   737.36         12.6441
   737.50         12.6452
   737.64         12.6488
   737.78         12.6540
   737.92         12.6602
   738.06         12.6683
   738.20         12.6801
   738.34         12.6971
   738.48         12.7197
   738.62         12.7471
   738.76         12.7781
   738.90         12.8120
   739.04         12.8488
   739.18         12.8895
   739.32         12.9342
   739.46         12.9821
   739.60         13.0317
   739.74         13.0791
   739.88         13.1191
   740.02         13.1475
   740.16         13.1626
   740.30         13.1658
   740.44         13.1599
   740.58         13.1487
   740.72         13.1363
   740.86         13.1270
   741.00         13.1256
   741.14         13.1354
   741.28         13.1583
   741.42         13.1932
   741.56         13.2365
   741.70         13.2826
   741.84         13.3243
   741.98         13.3542
   742.12         13.3687
   742.26         13.3680
   742.40         13.3554
   742.54         13.3362
   742.68         13.3174
   742.82         13.3058
   742.96         13.3058
   743.10         13.3174
   743.24         13.3362
   743.38         13.3554
   743.52         13.3680
   743.66         13.3687
   743.80         13.3542
   743.94         13.3243
   744.08         13.2826
   744.22         13.2365
