# File HD13505
# Wavelength [nm]    Normalized Amplitude
   349.70         10.3991
   349.84         10.3692
   349.98         10.3625
   350.12         10.3775
   350.26         10.4095
   350.40         10.4521
   350.54         10.4985
   350.68         10.5417
   350.82         10.5760
   350.96         10.5975
   351.10         10.6048
   351.24         10.5975
   351.38         10.5760
   351.52         10.5417
   351.66         10.4985
   351.80         10.4521
   351.94         10.4095
   352.08         10.3775
   352.22         10.3625
   352.36         10.3692
   352.50         10.3991
   352.64         10.4515
   352.78         10.5232
   352.92         10.6095
   353.06         10.7043
   353.20         10.8006
   353.34         10.8918
   353.48         10.9724
   353.62         11.0387
   353.76         11.0895
   353.90         11.1253
   354.04         11.1471
   354.18         11.1556
   354.32         11.1520
   354.46         11.1384
   354.60         11.1173
   354.74         11.0903
   354.88         11.0584
   355.02         11.0208
   355.16         10.9744
   355.30         10.9152
   355.44         10.8406
   355.58         10.7503
   355.72         10.6447
   355.86         10.5266
   356.00         10.3999
   356.14         10.2697
   356.28         10.1413
   356.42         10.0201
   356.56         9.9095
   356.70         9.8104
   356.84         9.7241
   356.98         9.6531
   357.12         9.5984
   357.26         9.5572
   357.40         9.5238
   357.54         9.4918
   357.68         9.4560
   357.82         9.4148
   357.96         9.3717
   358.10         9.3343
   358.24         9.3099
   358.38         9.3039
   358.52         9.3205
   358.66         9.3631
   358.80         9.4322
   358.94         9.5244
   359.08         9.6314
   359.22         9.7428
   359.36         9.8492
   359.50         9.9424
   359.64         10.0141
   359.78         10.0576
   359.92         10.0692
   360.06         10.0493
   360.20         10.0027
   360.34         9.9384
   360.48         9.8658
   360.62         9.7924
   360.76         9.7233
   360.90         9.6613
   361.04         9.6090
   361.18         9.5693
   361.32         9.5452
   361.46         9.5383
   361.60         9.5495
   361.74         9.5777
   361.88         9.6193
   362.02         9.6685
   362.16         9.7178
   362.30         9.7599
   362.44         9.7905
   362.58         9.8080
   362.72         9.8134
   362.86         9.8094
   363.00         9.7985
   363.14         9.7816
   363.28         9.7614
   363.42         9.7425
   363.56         9.7293
   363.70         9.7259
   363.84         9.7353
   363.98         9.7597
   364.12         9.8007
   364.26         9.8578
   364.40         9.9288
   364.54         10.0124
   364.68         10.1084
   364.82         10.2170
   364.96         10.3373
   365.10         10.4653
   365.24         10.5941
   365.38         10.7159
   365.52         10.8239
   365.66         10.9137
   365.80         10.9837
   365.94         11.0348
   366.08         11.0691
   366.22         11.0886
   366.36         11.0956
   366.50         11.0918
   366.64         11.0775
   366.78         11.0519
   366.92         11.0133
   367.06         10.9601
   367.20         10.8909
   367.34         10.8061
   367.48         10.7094
   367.62         10.6070
   367.76         10.5062
   367.90         10.4162
   368.04         10.3470
   368.18         10.3066
   368.32         10.3002
   368.46         10.3287
   368.60         10.3886
   368.74         10.4739
   368.88         10.5766
   369.02         10.6869
   369.16         10.7936
   369.30         10.8857
   369.44         10.9552
   369.58         10.9980
   369.72         11.0126
   369.86         11.0008
   370.00         10.9672
   370.14         10.9186
   370.28         10.8654
   370.42         10.8214
   370.56         10.8005
   370.70         10.8113
   370.84         10.8553
   370.98         10.9267
   371.12         11.0159
   371.26         11.1158
   371.40         11.2227
   371.54         11.3329
   371.68         11.4409
   371.82         11.5408
   371.96         11.6272
   372.10         11.6930
   372.24         11.7286
   372.38         11.7253
   372.52         11.6816
   372.66         11.6075
   372.80         11.5223
   372.94         11.4482
   373.08         11.4028
   373.22         11.3963
   373.36         11.4303
   373.50         11.4992
   373.64         11.5924
   373.78         11.6966
   373.92         11.7986
   374.06         11.8863
   374.20         11.9509
   374.34         11.9905
   374.48         12.0089
   374.62         12.0123
   374.76         12.0096
   374.90         12.0146
   375.04         12.0462
   375.18         12.1232
   375.32         12.2568
   375.46         12.4422
   375.60         12.6573
   375.74         12.8677
   375.88         13.0357
   376.02         13.1298
   376.16         13.1336
   376.30         13.0512
   376.44         12.9070
   376.58         12.7413
   376.72         12.6023
   376.86         12.5345
   377.00         12.5694
   377.14         12.7219
   377.28         12.9914
   377.42         13.3645
   377.56         13.8169
   377.70         14.3156
   377.84         14.8218
   377.98         15.2926
   378.12         15.6848
   378.26         15.9599
   378.40         16.0900
   378.54         16.0620
   378.68         15.8809
   378.82         15.5712
   378.96         15.1734
   379.10         14.7391
   379.24         14.3234
   379.38         13.9755
   379.52         13.7323
   379.66         13.6207
   379.80         13.6587
   379.94         13.8507
   380.08         14.1855
   380.22         14.6382
   380.36         15.1754
   380.50         15.7588
   380.64         16.3472
   380.78         16.8994
   380.92         17.3791
   381.06         17.7616
   381.20         18.0362
   381.34         18.2048
   381.48         18.2776
   381.62         18.2651
   381.76         18.1738
   381.90         18.0050
   382.04         17.7544
   382.18         17.4164
   382.32         16.9901
   382.46         16.4795
   382.60         15.8962
   382.74         15.2654
   382.88         14.6266
   383.02         14.0286
   383.16         13.5212
   383.30         13.1474
   383.44         12.9403
   383.58         12.9226
   383.72         13.1031
   383.86         13.4735
   384.00         14.0100
   384.14         14.6770
   384.28         15.4291
   384.42         16.2143
   384.56         16.9793
   384.70         17.6776
   384.84         18.2778
   384.98         18.7673
   385.12         19.1486
   385.26         19.4359
   385.40         19.6505
   385.54         19.8152
   385.68         19.9487
   385.82         20.0651
   385.96         20.1718
   386.10         20.2696
   386.24         20.3533
   386.38         20.4131
   386.52         20.4365
   386.66         20.4107
   386.80         20.3241
   386.94         20.1688
   387.08         19.9402
   387.22         19.6359
   387.36         19.2549
   387.50         18.7965
   387.64         18.2601
   387.78         17.6495
   387.92         16.9783
   388.06         16.2721
   388.20         15.5644
   388.34         14.8939
   388.48         14.3005
   388.62         13.8207
   388.76         13.4849
   388.90         13.3154
   389.04         13.3232
   389.18         13.5049
   389.32         13.8439
   389.46         14.3127
   389.60         14.8771
   389.74         15.4986
   389.88         16.1389
   390.02         16.7640
   390.16         17.3470
   390.30         17.8706
   390.44         18.3274
   390.58         18.7170
   390.72         19.0426
   390.86         19.3071
   391.00         19.5135
   391.14         19.6649
   391.28         19.7639
   391.42         19.8125
   391.56         19.8095
   391.70         19.7474
   391.84         19.6099
   391.98         19.3735
   392.12         19.0138
   392.26         18.5160
   392.40         17.8826
   392.54         17.1380
   392.68         16.3278
   392.82         15.5138
   392.96         14.7662
   393.10         14.1534
   393.24         13.7338
   393.38         13.5486
   393.52         13.6145
   393.66         13.9216
   393.80         14.4353
   393.94         15.1012
   394.08         15.8524
   394.22         16.6169
   394.36         17.3255
   394.50         17.9199
   394.64         18.3623
   394.78         18.6414
   394.92         18.7683
   395.06         18.7657
   395.20         18.6554
   395.34         18.4496
   395.48         18.1476
   395.62         17.7406
   395.76         17.2190
   395.90         16.5831
   396.04         15.8492
   396.18         15.0516
   396.32         14.2390
   396.46         13.4698
   396.60         12.8047
   396.74         12.2989
   396.88         11.9947
   397.02         11.9175
   397.16         12.0746
   397.30         12.4558
   397.44         13.0338
   397.58         13.7651
   397.72         14.5947
   397.86         15.4645
   398.00         16.3217
   398.14         17.1246
   398.28         17.8462
   398.42         18.4734
   398.56         19.0047
   398.70         19.4470
   398.84         19.8119
   398.98         20.1110
   399.12         20.3542
   399.26         20.5487
   399.40         20.7001
   399.54         20.8146
   399.68         20.9012
   399.82         20.9701
   399.96         21.0319
   400.10         21.0958
   400.24         21.1677
   400.38         21.2516
   400.52         21.3502
   400.66         21.4633
   400.80         21.5881
   400.94         21.7189
   401.08         21.8490
   401.22         21.9731
   401.36         22.0883
   401.50         22.1924
   401.64         22.2817
   401.78         22.3511
   401.92         22.3947
   402.06         22.4082
   402.20         22.3910
   402.34         22.3467
   402.48         22.2830
   402.62         22.2101
   402.76         22.1378
   402.90         22.0754
   403.04         22.0303
   403.18         22.0072
   403.32         22.0062
   403.46         22.0238
   403.60         22.0555
   403.74         22.0974
   403.88         22.1459
   404.02         22.1964
   404.16         22.2431
   404.30         22.2784
   404.44         22.2941
   404.58         22.2839
   404.72         22.2474
   404.86         22.1910
   405.00         22.1232
   405.14         22.0496
   405.28         21.9716
   405.42         21.8892
   405.56         21.8038
   405.70         21.7184
   405.84         21.6359
   405.98         21.5577
   406.12         21.4857
   406.26         21.4216
   406.40         21.3630
   406.54         21.3016
   406.68         21.2265
   406.82         21.1300
   406.96         21.0097
   407.10         20.8690
   407.24         20.7146
   407.38         20.5548
   407.52         20.3964
   407.66         20.2450
   407.80         20.1039
   407.94         19.9740
   408.08         19.8536
   408.22         19.7371
   408.36         19.6144
   408.50         19.4699
   408.64         19.2839
   408.78         19.0358
   408.92         18.7050
   409.06         18.2758
   409.20         17.7463
   409.34         17.1336
   409.48         16.4723
   409.62         15.8082
   409.76         15.1900
   409.90         14.6637
   410.04         14.2694
   410.18         14.0391
   410.32         13.9934
   410.46         14.1360
   410.60         14.4537
   410.74         14.9181
   410.88         15.4900
   411.02         16.1236
   411.16         16.7726
   411.30         17.3947
   411.44         17.9564
   411.58         18.4368
   411.72         18.8301
   411.86         19.1424
   412.00         19.3853
   412.14         19.5720
   412.28         19.7155
   412.42         19.8290
   412.56         19.9266
   412.70         20.0226
   412.84         20.1290
   412.98         20.2521
   413.12         20.3911
   413.26         20.5417
   413.40         20.6993
   413.54         20.8603
   413.68         21.0213
   413.82         21.1765
   413.96         21.3180
   414.10         21.4364
   414.24         21.5242
   414.38         21.5763
   414.52         21.5914
   414.66         21.5741
   414.80         21.5338
   414.94         21.4815
   415.08         21.4284
   415.22         21.3844
   415.36         21.3575
   415.50         21.3528
   415.64         21.3714
   415.78         21.4110
   415.92         21.4668
   416.06         21.5294
   416.20         21.5849
   416.34         21.6181
   416.48         21.6160
   416.62         21.5705
   416.76         21.4801
   416.90         21.3516
   417.04         21.1981
   417.18         21.0366
   417.32         20.8841
   417.46         20.7538
   417.60         20.6556
   417.74         20.5973
   417.88         20.5835
   418.02         20.6148
   418.16         20.6867
   418.30         20.7898
   418.44         20.9108
   418.58         21.0337
   418.72         21.1433
   418.86         21.2282
   419.00         21.2823
   419.14         21.3040
   419.28         21.2952
   419.42         21.2612
   419.56         21.2096
   419.70         21.1499
   419.84         21.0925
   419.98         21.0484
   420.12         21.0281
   420.26         21.0388
   420.40         21.0813
   420.54         21.1495
   420.68         21.2329
   420.82         21.3195
   420.96         21.3976
   421.10         21.4561
   421.24         21.4856
   421.38         21.4799
   421.52         21.4366
   421.66         21.3588
   421.80         21.2554
   421.94         21.1386
   422.08         21.0221
   422.22         20.9178
   422.36         20.8347
   422.50         20.7780
   422.64         20.7487
   422.78         20.7439
   422.92         20.7592
   423.06         20.7908
   423.20         20.8363
   423.34         20.8931
   423.48         20.9567
   423.62         21.0200
   423.76         21.0748
   423.90         21.1141
   424.04         21.1365
   424.18         21.1464
   424.32         21.1509
   424.46         21.1560
   424.60         21.1640
   424.74         21.1734
   424.88         21.1810
   425.02         21.1841
   425.16         21.1829
   425.30         21.1804
   425.44         21.1805
   425.58         21.1854
   425.72         21.1931
   425.86         21.1988
   426.00         21.1969
   426.14         21.1831
   426.28         21.1560
   426.42         21.1176
   426.56         21.0722
   426.70         21.0252
   426.84         20.9815
   426.98         20.9430
   427.12         20.9094
   427.26         20.8802
   427.40         20.8548
   427.54         20.8321
   427.68         20.8092
   427.82         20.7810
   427.96         20.7408
   428.10         20.6823
   428.24         20.6011
   428.38         20.4966
   428.52         20.3724
   428.66         20.2343
   428.80         20.0883
   428.94         19.9398
   429.08         19.7935
   429.22         19.6533
   429.36         19.5224
   429.50         19.4041
   429.64         19.3008
   429.78         19.2144
   429.92         19.1473
   430.06         19.1000
   430.20         19.0702
   430.34         19.0538
   430.48         19.0483
   430.62         19.0541
   430.76         19.0721
   430.90         19.0997
   431.04         19.1320
   431.18         19.1623
   431.32         19.1830
   431.46         19.1861
   431.60         19.1667
   431.74         19.1242
   431.88         19.0600
   432.02         18.9752
   432.16         18.8689
   432.30         18.7372
   432.44         18.5727
   432.58         18.3642
   432.72         18.0965
   432.86         17.7541
   433.00         17.3280
   433.14         16.8224
   433.28         16.2552
   433.42         15.6565
   433.56         15.0660
   433.70         14.5278
   433.84         14.0829
   433.98         13.7651
   434.12         13.5993
   434.26         13.6002
   434.40         13.7708
   434.54         14.1005
   434.68         14.5661
   434.82         15.1335
   434.96         15.7623
   435.10         16.4122
   435.24         17.0483
   435.38         17.6447
   435.52         18.1864
   435.66         18.6686
   435.80         19.0934
   435.94         19.4649
   436.08         19.7858
   436.22         20.0558
   436.36         20.2718
   436.50         20.4325
   436.64         20.5425
   436.78         20.6121
   436.92         20.6542
   437.06         20.6795
   437.20         20.6929
   437.34         20.6952
   437.48         20.6862
   437.62         20.6688
   437.76         20.6484
   437.90         20.6304
   438.04         20.6178
   438.18         20.6101
   438.32         20.6056
   438.46         20.6034
   438.60         20.6037
   438.74         20.6055
   438.88         20.6074
   439.02         20.6090
   439.16         20.6106
   439.30         20.6121
   439.44         20.6123
   439.58         20.6093
   439.72         20.6025
   439.86         20.5941
   440.00         20.5890
   440.14         20.5937
   440.28         20.6117
   440.42         20.6398
   440.56         20.6701
   440.70         20.6933
   440.84         20.7015
   440.98         20.6918
   441.12         20.6660
   441.26         20.6280
   441.40         20.5831
   441.54         20.5382
   441.68         20.5011
   441.82         20.4791
   441.96         20.4778
   442.10         20.4983
   442.24         20.5378
   442.38         20.5892
   442.52         20.6441
   442.66         20.6959
   442.80         20.7394
   442.94         20.7696
   443.08         20.7810
   443.22         20.7708
   443.36         20.7400
   443.50         20.6924
   443.64         20.6344
   443.78         20.5723
   443.92         20.5114
   444.06         20.4552
   444.20         20.4057
   444.34         20.3624
   444.48         20.3234
   444.62         20.2854
   444.76         20.2461
   444.90         20.2055
   445.04         20.1672
   445.18         20.1358
   445.32         20.1144
   445.46         20.1023
   445.60         20.0947
   445.74         20.0860
   445.88         20.0742
   446.02         20.0607
   446.16         20.0491
   446.30         20.0419
   446.44         20.0401
   446.58         20.0433
   446.72         20.0490
   446.86         20.0518
   447.00         20.0459
   447.14         20.0284
   447.28         20.0007
   447.42         19.9677
   447.56         19.9349
   447.70         19.9061
   447.84         19.8817
   447.98         19.8608
   448.12         19.8426
   448.26         19.8285
   448.40         19.8225
   448.54         19.8298
   448.68         19.8547
   448.82         19.8977
   448.96         19.9551
   449.10         20.0214
   449.24         20.0918
   449.38         20.1621
   449.52         20.2291
   449.66         20.2913
   449.80         20.3503
   449.94         20.4081
   450.08         20.4650
   450.22         20.5186
   450.36         20.5641
   450.50         20.5978
   450.64         20.6185
   450.78         20.6258
   450.92         20.6188
   451.06         20.5958
   451.20         20.5565
   451.34         20.5006
   451.48         20.4284
   451.62         20.3405
   451.76         20.2382
   451.90         20.1227
   452.04         19.9948
   452.18         19.8548
   452.32         19.7057
   452.46         19.5563
   452.60         19.4188
   452.74         19.3047
   452.88         19.2231
   453.02         19.1792
   453.16         19.1752
   453.30         19.2090
   453.44         19.2746
   453.58         19.3632
   453.72         19.4630
   453.86         19.5601
   454.00         19.6402
   454.14         19.6915
   454.28         19.7052
   454.42         19.6780
   454.56         19.6147
   454.70         19.5261
   454.84         19.4268
   454.98         19.3333
   455.12         19.2604
   455.26         19.2177
   455.40         19.2096
   455.54         19.2370
   455.68         19.2978
   455.82         19.3871
   455.96         19.4972
   456.10         19.6179
   456.24         19.7383
   456.38         19.8484
   456.52         19.9418
   456.66         20.0145
   456.80         20.0641
   456.94         20.0882
   457.08         20.0856
   457.22         20.0572
   457.36         20.0056
   457.50         19.9338
   457.64         19.8455
   457.78         19.7457
   457.92         19.6408
   458.06         19.5383
   458.20         19.4448
   458.34         19.3654
   458.48         19.3026
   458.62         19.2581
   458.76         19.2338
   458.90         19.2313
   459.04         19.2499
   459.18         19.2863
   459.32         19.3364
   459.46         19.3967
   459.60         19.4633
   459.74         19.5332
   459.88         19.6051
   460.02         19.6784
   460.16         19.7509
   460.30         19.8200
   460.44         19.8825
   460.58         19.9354
   460.72         19.9764
   460.86         20.0050
   461.00         20.0217
   461.14         20.0279
   461.28         20.0255
   461.42         20.0150
   461.56         19.9962
   461.70         19.9681
   461.84         19.9300
   461.98         19.8829
   462.12         19.8279
   462.26         19.7653
   462.40         19.6971
   462.54         19.6269
   462.68         19.5595
   462.82         19.5003
   462.96         19.4543
   463.10         19.4250
   463.24         19.4137
   463.38         19.4200
   463.52         19.4413
   463.66         19.4732
   463.80         19.5106
   463.94         19.5487
   464.08         19.5828
   464.22         19.6097
   464.36         19.6270
   464.50         19.6345
   464.64         19.6331
   464.78         19.6245
   464.92         19.6117
   465.06         19.5991
   465.20         19.5902
   465.34         19.5863
   465.48         19.5852
   465.62         19.5823
   465.76         19.5728
   465.90         19.5546
   466.04         19.5298
   466.18         19.5014
   466.32         19.4726
   466.46         19.4470
   466.60         19.4272
   466.74         19.4145
   466.88         19.4093
   467.02         19.4120
   467.16         19.4235
   467.30         19.4447
   467.44         19.4755
   467.58         19.5138
   467.72         19.5562
   467.86         19.5983
   468.00         19.6360
   468.14         19.6678
   468.28         19.6945
   468.42         19.7172
   468.56         19.7363
   468.70         19.7499
   468.84         19.7550
   468.98         19.7498
   469.12         19.7327
   469.26         19.7020
   469.40         19.6563
   469.54         19.5962
   469.68         19.5243
   469.82         19.4446
   469.96         19.3627
   470.10         19.2847
   470.24         19.2163
   470.38         19.1624
   470.52         19.1262
   470.66         19.1104
   470.80         19.1154
   470.94         19.1392
   471.08         19.1784
   471.22         19.2296
   471.36         19.2894
   471.50         19.3521
   471.64         19.4100
   471.78         19.4556
   471.92         19.4841
   472.06         19.4939
   472.20         19.4851
   472.34         19.4591
   472.48         19.4187
   472.62         19.3659
   472.76         19.3028
   472.90         19.2322
   473.04         19.1590
   473.18         19.0896
   473.32         19.0298
   473.46         18.9834
   473.60         18.9520
   473.74         18.9351
   473.88         18.9305
   474.02         18.9344
   474.16         18.9419
   474.30         18.9487
   474.44         18.9513
   474.58         18.9465
   474.72         18.9322
   474.86         18.9073
   475.00         18.8710
   475.14         18.8225
   475.28         18.7616
   475.42         18.6921
   475.56         18.6199
   475.70         18.5511
   475.84         18.4907
   475.98         18.4432
   476.12         18.4123
   476.26         18.4002
   476.40         18.4083
   476.54         18.4377
   476.68         18.4872
   476.82         18.5520
   476.96         18.6238
   477.10         18.6933
   477.24         18.7524
   477.38         18.7948
   477.52         18.8149
   477.66         18.8097
   477.80         18.7804
   477.94         18.7321
   478.08         18.6721
   478.22         18.6076
   478.36         18.5448
   478.50         18.4887
   478.64         18.4419
   478.78         18.4047
   478.92         18.3760
   479.06         18.3544
   479.20         18.3374
   479.34         18.3203
   479.48         18.2982
   479.62         18.2696
   479.76         18.2359
   479.90         18.2007
   480.04         18.1683
   480.18         18.1438
   480.32         18.1318
   480.46         18.1347
   480.60         18.1517
   480.74         18.1788
   480.88         18.2095
   481.02         18.2364
   481.16         18.2517
   481.30         18.2484
   481.44         18.2229
   481.58         18.1754
   481.72         18.1082
   481.86         18.0254
   482.00         17.9325
   482.14         17.8370
   482.28         17.7469
   482.42         17.6681
   482.56         17.6035
   482.70         17.5536
   482.84         17.5166
   482.98         17.4887
   483.12         17.4646
   483.26         17.4378
   483.40         17.4027
   483.54         17.3554
   483.68         17.2927
   483.82         17.2114
   483.96         17.1087
   484.10         16.9827
   484.24         16.8320
   484.38         16.6533
   484.52         16.4417
   484.66         16.1909
   484.80         15.8936
   484.94         15.5427
   485.08         15.1334
   485.22         14.6685
   485.36         14.1612
   485.50         13.6353
   485.64         13.1213
   485.78         12.6520
   485.92         12.2582
   486.06         11.9652
   486.20         11.7910
   486.34         11.7437
   486.48         11.8218
   486.62         12.0151
   486.76         12.3066
   486.90         12.6726
   487.04         13.0846
   487.18         13.5129
   487.32         13.9293
   487.46         14.3115
   487.60         14.6461
   487.74         14.9295
   487.88         15.1661
   488.02         15.3637
   488.16         15.5313
   488.30         15.6767
   488.44         15.8065
   488.58         15.9265
   488.72         16.0416
   488.86         16.1552
   489.00         16.2684
   489.14         16.3810
   489.28         16.4922
   489.42         16.6005
   489.56         16.7030
   489.70         16.7949
   489.84         16.8733
   489.98         16.9389
   490.12         16.9950
   490.26         17.0464
   490.40         17.0984
   490.54         17.1555
   490.68         17.2197
   490.82         17.2904
   490.96         17.3632
   491.10         17.4314
   491.24         17.4879
   491.38         17.5279
   491.52         17.5501
   491.66         17.5579
   491.80         17.5579
   491.94         17.5571
   492.08         17.5601
   492.22         17.5681
   492.36         17.5823
   492.50         17.6048
   492.64         17.6357
   492.78         17.6724
   492.92         17.7119
   493.06         17.7513
   493.20         17.7873
   493.34         17.8171
   493.48         17.8409
   493.62         17.8628
   493.76         17.8886
   493.90         17.9243
   494.04         17.9740
   494.18         18.0378
   494.32         18.1123
   494.46         18.1904
   494.60         18.2615
   494.74         18.3160
   494.88         18.3498
   495.02         18.3642
   495.16         18.3623
   495.30         18.3476
   495.44         18.3237
   495.58         18.2926
   495.72         18.2564
   495.86         18.2172
   496.00         18.1770
   496.14         18.1377
   496.28         18.1009
   496.42         18.0679
   496.56         18.0400
   496.70         18.0160
   496.84         17.9914
   496.98         17.9597
   497.12         17.9146
   497.26         17.8524
   497.40         17.7741
   497.54         17.6842
   497.68         17.5884
   497.82         17.4934
   497.96         17.4060
   498.10         17.3322
   498.24         17.2779
   498.38         17.2493
   498.52         17.2508
   498.66         17.2826
   498.80         17.3408
   498.94         17.4183
   499.08         17.5045
   499.22         17.5869
   499.36         17.6529
   499.50         17.6933
   499.64         17.7054
   499.78         17.6923
   499.92         17.6595
   500.06         17.6114
   500.20         17.5502
   500.34         17.4777
   500.48         17.3959
   500.62         17.3072
   500.76         17.2154
   500.90         17.1261
   501.04         17.0448
   501.18         16.9764
   501.32         16.9238
   501.46         16.8883
   501.60         16.8710
   501.74         16.8720
   501.88         16.8911
   502.02         16.9269
   502.16         16.9784
   502.30         17.0433
   502.44         17.1161
   502.58         17.1882
   502.72         17.2499
   502.86         17.2938
   503.00         17.3162
   503.14         17.3179
   503.28         17.3036
   503.42         17.2795
   503.56         17.2506
   503.70         17.2208
   503.84         17.1926
   503.98         17.1684
   504.12         17.1524
   504.26         17.1488
   504.40         17.1602
   504.54         17.1869
   504.68         17.2270
   504.82         17.2776
   504.96         17.3344
   505.10         17.3920
   505.24         17.4454
   505.38         17.4905
   505.52         17.5253
   505.66         17.5499
   505.80         17.5653
   505.94         17.5716
   506.08         17.5667
   506.22         17.5479
   506.36         17.5136
   506.50         17.4644
   506.64         17.4032
   506.78         17.3338
   506.92         17.2599
   507.06         17.1853
   507.20         17.1155
   507.34         17.0578
   507.48         17.0188
   507.62         17.0026
   507.76         17.0098
   507.90         17.0380
   508.04         17.0840
   508.18         17.1438
   508.32         17.2124
   508.46         17.2819
   508.60         17.3427
   508.74         17.3866
   508.88         17.4094
   509.02         17.4114
   509.16         17.3964
   509.30         17.3698
   509.44         17.3378
   509.58         17.3069
   509.72         17.2837
   509.86         17.2737
   510.00         17.2801
   510.14         17.3037
   510.28         17.3424
   510.42         17.3922
   510.56         17.4478
   510.70         17.5031
   510.84         17.5515
   510.98         17.5862
   511.12         17.6012
   511.26         17.5940
   511.40         17.5662
   511.54         17.5215
   511.68         17.4641
   511.82         17.3983
   511.96         17.3279
   512.10         17.2571
   512.24         17.1903
   512.38         17.1302
   512.52         17.0772
   512.66         17.0301
   512.80         16.9878
   512.94         16.9501
   513.08         16.9174
   513.22         16.8890
   513.36         16.8643
   513.50         16.8441
   513.64         16.8304
   513.78         16.8257
   513.92         16.8314
   514.06         16.8469
   514.20         16.8704
   514.34         16.8991
   514.48         16.9308
   514.62         16.9634
   514.76         16.9946
   514.90         17.0209
   515.04         17.0388
   515.18         17.0452
   515.32         17.0376
   515.46         17.0135
   515.60         16.9699
   515.74         16.9036
   515.88         16.8129
   516.02         16.6995
   516.16         16.5693
   516.30         16.4313
   516.44         16.2962
   516.58         16.1750
   516.72         16.0781
   516.86         16.0144
   517.00         15.9880
   517.14         15.9972
   517.28         16.0348
   517.42         16.0910
   517.56         16.1552
   517.70         16.2173
   517.84         16.2682
   517.98         16.3009
   518.12         16.3119
   518.26         16.3014
   518.40         16.2733
   518.54         16.2342
   518.68         16.1931
   518.82         16.1603
   518.96         16.1432
   519.10         16.1435
   519.24         16.1581
   519.38         16.1813
   519.52         16.2075
   519.66         16.2328
   519.80         16.2555
   519.94         16.2766
   520.08         16.2980
   520.22         16.3211
   520.36         16.3463
   520.50         16.3736
   520.64         16.4026
   520.78         16.4335
   520.92         16.4671
   521.06         16.5038
   521.20         16.5423
   521.34         16.5786
   521.48         16.6061
   521.62         16.6179
   521.76         16.6101
   521.90         16.5828
   522.04         16.5388
   522.18         16.4829
   522.32         16.4205
   522.46         16.3574
   522.60         16.2996
   522.74         16.2520
   522.88         16.2176
   523.02         16.1979
   523.16         16.1936
   523.30         16.2049
   523.44         16.2308
   523.58         16.2683
   523.72         16.3127
   523.86         16.3585
   524.00         16.4018
   524.14         16.4413
   524.28         16.4776
   524.42         16.5113
   524.56         16.5423
   524.70         16.5701
   524.84         16.5934
   524.98         16.6097
   525.12         16.6160
   525.26         16.6082
   525.40         16.5822
   525.54         16.5351
   525.68         16.4664
   525.82         16.3787
   525.96         16.2767
   526.10         16.1664
   526.24         16.0541
   526.38         15.9462
   526.52         15.8477
   526.66         15.7633
   526.80         15.6980
   526.94         15.6548
   527.08         15.6342
   527.22         15.6346
   527.36         15.6531
   527.50         15.6865
   527.64         15.7321
   527.78         15.7887
   527.92         15.8557
   528.06         15.9323
   528.20         16.0171
   528.34         16.1075
   528.48         16.1992
   528.62         16.2855
   528.76         16.3598
   528.90         16.4170
   529.04         16.4542
   529.18         16.4710
   529.32         16.4690
   529.46         16.4508
   529.60         16.4196
   529.74         16.3796
   529.88         16.3372
   530.02         16.2989
   530.16         16.2691
   530.30         16.2489
   530.44         16.2366
   530.58         16.2290
   530.72         16.2236
   530.86         16.2178
   531.00         16.2095
   531.14         16.1967
   531.28         16.1779
   531.42         16.1523
   531.56         16.1185
   531.70         16.0747
   531.84         16.0201
   531.98         15.9571
   532.12         15.8908
   532.26         15.8273
   532.40         15.7716
   532.54         15.7269
   532.68         15.6943
   532.82         15.6738
   532.96         15.6658
   533.10         15.6714
   533.24         15.6923
   533.38         15.7275
   533.52         15.7733
   533.66         15.8238
   533.80         15.8737
   533.94         15.9191
   534.08         15.9579
   534.22         15.9896
   534.36         16.0158
   534.50         16.0392
   534.64         16.0622
   534.78         16.0854
   534.92         16.1075
   535.06         16.1259
   535.20         16.1385
   535.34         16.1438
   535.48         16.1406
   535.62         16.1278
   535.76         16.1042
   535.90         16.0686
   536.04         16.0208
   536.18         15.9630
   536.32         15.9001
   536.46         15.8382
   536.60         15.7831
   536.74         15.7381
   536.88         15.7051
   537.02         15.6841
   537.16         15.6743
   537.30         15.6748
   537.44         15.6846
   537.58         15.7013
   537.72         15.7224
   537.86         15.7446
   538.00         15.7651
   538.14         15.7811
   538.28         15.7908
   538.42         15.7933
   538.56         15.7885
   538.70         15.7765
   538.84         15.7585
   538.98         15.7355
   539.12         15.7080
   539.26         15.6757
   539.40         15.6385
   539.54         15.5985
   539.68         15.5591
   539.82         15.5243
   539.96         15.4979
   540.10         15.4819
   540.24         15.4772
   540.38         15.4826
   540.52         15.4968
   540.66         15.5182
   540.80         15.5453
   540.94         15.5767
   541.08         15.6099
   541.22         15.6411
   541.36         15.6667
   541.50         15.6838
   541.64         15.6912
   541.78         15.6883
   541.92         15.6751
   542.06         15.6532
   542.20         15.6249
   542.34         15.5927
   542.48         15.5601
   542.62         15.5315
   542.76         15.5112
   542.90         15.5028
   543.04         15.5085
   543.18         15.5292
   543.32         15.5631
   543.46         15.6064
   543.60         15.6534
   543.74         15.6981
   543.88         15.7365
   544.02         15.7677
   544.16         15.7918
   544.30         15.8078
   544.44         15.8135
   544.58         15.8071
   544.72         15.7880
   544.86         15.7578
   545.00         15.7192
   545.14         15.6750
   545.28         15.6276
   545.42         15.5791
   545.56         15.5316
   545.70         15.4872
   545.84         15.4484
   545.98         15.4172
   546.12         15.3952
   546.26         15.3833
   546.40         15.3795
   546.54         15.3803
   546.68         15.3807
   546.82         15.3746
   546.96         15.3577
   547.10         15.3291
   547.24         15.2914
   547.38         15.2494
   547.52         15.2094
   547.66         15.1767
   547.80         15.1561
   547.94         15.1511
   548.08         15.1632
   548.22         15.1916
   548.36         15.2330
   548.50         15.2823
   548.64         15.3332
   548.78         15.3801
   548.92         15.4191
   549.06         15.4473
   549.20         15.4638
   549.34         15.4700
   549.48         15.4686
   549.62         15.4634
   549.76         15.4570
   549.90         15.4507
   550.04         15.4447
   550.18         15.4390
   550.32         15.4341
   550.46         15.4309
   550.60         15.4308
   550.74         15.4345
   550.88         15.4420
   551.02         15.4533
   551.16         15.4674
   551.30         15.4815
   551.44         15.4914
   551.58         15.4918
   551.72         15.4779
   551.86         15.4480
   552.00         15.4033
   552.14         15.3462
   552.28         15.2797
   552.42         15.2081
   552.56         15.1374
   552.70         15.0752
   552.84         15.0283
   552.98         15.0014
   553.12         14.9958
   553.26         15.0103
   553.40         15.0415
   553.54         15.0852
   553.68         15.1367
   553.82         15.1908
   553.96         15.2414
   554.10         15.2846
   554.24         15.3180
   554.38         15.3413
   554.52         15.3560
   554.66         15.3634
   554.80         15.3647
   554.94         15.3612
   555.08         15.3540
   555.22         15.3443
   555.36         15.3328
   555.50         15.3202
   555.64         15.3062
   555.78         15.2897
   555.92         15.2697
   556.06         15.2455
   556.20         15.2169
   556.34         15.1838
   556.48         15.1478
   556.62         15.1121
   556.76         15.0809
   556.90         15.0575
   557.04         15.0449
   557.18         15.0449
   557.32         15.0565
   557.46         15.0769
   557.60         15.1013
   557.74         15.1251
   557.88         15.1443
   558.02         15.1558
   558.16         15.1568
   558.30         15.1453
   558.44         15.1202
   558.58         15.0821
   558.72         15.0328
   558.86         14.9752
   559.00         14.9142
   559.14         14.8552
   559.28         14.8029
   559.42         14.7609
   559.56         14.7324
   559.70         14.7197
   559.84         14.7231
   559.98         14.7408
   560.12         14.7690
   560.26         14.8025
   560.40         14.8363
   560.54         14.8670
   560.68         14.8914
   560.82         14.9073
   560.96         14.9137
   561.10         14.9110
   561.24         14.9012
   561.38         14.8872
   561.52         14.8720
   561.66         14.8577
   561.80         14.8457
   561.94         14.8371
   562.08         14.8322
   562.22         14.8307
   562.36         14.8308
   562.50         14.8299
   562.64         14.8249
   562.78         14.8129
   562.92         14.7927
   563.06         14.7661
   563.20         14.7357
   563.34         14.7045
   563.48         14.6768
   563.62         14.6576
   563.76         14.6503
   563.90         14.6558
   564.04         14.6729
   564.18         14.6996
   564.32         14.7337
   564.46         14.7721
   564.60         14.8103
   564.74         14.8431
   564.88         14.8651
   565.02         14.8717
   565.16         14.8603
   565.30         14.8303
   565.44         14.7840
   565.58         14.7261
   565.72         14.6624
   565.86         14.5991
   566.00         14.5428
   566.14         14.4988
   566.28         14.4707
   566.42         14.4588
   566.56         14.4618
   566.70         14.4777
   566.84         14.5035
   566.98         14.5341
   567.12         14.5641
   567.26         14.5889
   567.40         14.6054
   567.54         14.6120
   567.68         14.6084
   567.82         14.5956
   567.96         14.5752
   568.10         14.5489
   568.24         14.5191
   568.38         14.4887
   568.52         14.4620
   568.66         14.4425
   568.80         14.4318
   568.94         14.4291
   569.08         14.4324
   569.22         14.4378
   569.36         14.4411
   569.50         14.4382
   569.64         14.4267
   569.78         14.4057
   569.92         14.3757
   570.06         14.3385
   570.20         14.2972
   570.34         14.2563
   570.48         14.2200
   570.62         14.1925
   570.76         14.1778
   570.90         14.1785
   571.04         14.1951
   571.18         14.2258
   571.32         14.2672
   571.46         14.3143
   571.60         14.3622
   571.74         14.4059
   571.88         14.4415
   572.02         14.4673
   572.16         14.4840
   572.30         14.4935
   572.44         14.4971
   572.58         14.4952
   572.72         14.4889
   572.86         14.4796
   573.00         14.4688
   573.14         14.4571
   573.28         14.4443
   573.42         14.4293
   573.56         14.4121
   573.70         14.3932
   573.84         14.3746
   573.98         14.3580
   574.12         14.3434
   574.26         14.3309
   574.40         14.3201
   574.54         14.3109
   574.68         14.3025
   574.82         14.2941
   574.96         14.2839
   575.10         14.2698
   575.24         14.2508
   575.38         14.2283
   575.52         14.2046
   575.66         14.1815
   575.80         14.1604
   575.94         14.1427
   576.08         14.1304
   576.22         14.1252
   576.36         14.1285
   576.50         14.1409
   576.64         14.1620
   576.78         14.1893
   576.92         14.2197
   577.06         14.2497
   577.20         14.2755
   577.34         14.2936
   577.48         14.3019
   577.62         14.2997
   577.76         14.2875
   577.90         14.2667
   578.04         14.2391
   578.18         14.2061
   578.32         14.1698
   578.46         14.1323
   578.60         14.0960
   578.74         14.0630
   578.88         14.0352
   579.02         14.0141
   579.16         14.0000
   579.30         13.9910
   579.44         13.9841
   579.58         13.9771
   579.72         13.9692
   579.86         13.9600
   580.00         13.9503
   580.14         13.9408
   580.28         13.9322
   580.42         13.9254
   580.56         13.9211
   580.70         13.9194
   580.84         13.9205
   580.98         13.9246
   581.12         13.9320
   581.26         13.9434
   581.40         13.9600
   581.54         13.9825
   581.68         14.0099
   581.82         14.0388
   581.96         14.0655
   582.10         14.0870
   582.24         14.1022
   582.38         14.1112
   582.52         14.1147
   582.66         14.1136
   582.80         14.1092
   582.94         14.1038
   583.08         14.0989
   583.22         14.0953
   583.36         14.0941
   583.50         14.0972
   583.64         14.1068
   583.78         14.1229
   583.92         14.1428
   584.06         14.1623
   584.20         14.1762
   584.34         14.1794
   584.48         14.1682
   584.62         14.1412
   584.76         14.0992
   584.90         14.0454
   585.04         13.9842
   585.18         13.9207
   585.32         13.8604
   585.46         13.8086
   585.60         13.7694
   585.74         13.7455
   585.88         13.7386
   586.02         13.7486
   586.16         13.7734
   586.30         13.8082
   586.44         13.8469
   586.58         13.8847
   586.72         13.9182
   586.86         13.9455
   587.00         13.9653
   587.14         13.9768
   587.28         13.9804
   587.42         13.9771
   587.56         13.9663
   587.70         13.9442
   587.84         13.9054
   587.98         13.8456
   588.12         13.7623
   588.26         13.6545
   588.40         13.5237
   588.54         13.3742
   588.68         13.2131
   588.82         13.0507
   588.96         12.8994
   589.10         12.7729
   589.24         12.6835
   589.38         12.6394
   589.52         12.6447
   589.66         12.6985
   589.80         12.7939
   589.94         12.9196
   590.08         13.0618
   590.22         13.2061
   590.36         13.3393
   590.50         13.4523
   590.64         13.5392
   590.78         13.5977
   590.92         13.6285
   591.06         13.6358
   591.20         13.6250
   591.34         13.6028
   591.48         13.5764
   591.62         13.5517
   591.76         13.5324
   591.90         13.5199
   592.04         13.5149
   592.18         13.5169
   592.32         13.5238
   592.46         13.5327
   592.60         13.5408
   592.74         13.5462
   592.88         13.5468
   593.02         13.5407
   593.16         13.5266
   593.30         13.5047
   593.44         13.4766
   593.58         13.4438
   593.72         13.4071
   593.86         13.3682
   594.00         13.3298
   594.14         13.2942
   594.28         13.2628
   594.42         13.2364
   594.56         13.2153
   594.70         13.1987
   594.84         13.1857
   594.98         13.1752
   595.12         13.1661
   595.26         13.1576
   595.40         13.1492
   595.54         13.1408
   595.68         13.1324
   595.82         13.1239
   595.96         13.1155
   596.10         13.1070
   596.24         13.0985
   596.38         13.0900
   596.52         13.0814
   596.66         13.0729
   596.80         13.0643
   596.94         13.0557
   597.08         13.0471
   597.22         13.0386
   597.36         13.0300
   597.50         13.0214
   597.64         13.0129
   597.78         13.0042
   597.92         12.9955
   598.06         12.9868
   598.20         12.9781
   598.34         12.9693
   598.48         12.9607
   598.62         12.9522
   598.76         12.9445
   598.90         12.9379
   599.04         12.9320
   599.18         12.9256
   599.32         12.9174
   599.46         12.9066
   599.60         12.8932
   599.74         12.8777
   599.88         12.8604
   600.02         12.8411
   600.16         12.8205
   600.30         12.7996
   600.44         12.7799
   600.58         12.7622
   600.72         12.7461
   600.86         12.7315
   601.00         12.7185
   601.14         12.7065
   601.28         12.6944
   601.42         12.6801
   601.56         12.6616
   601.70         12.6375
   601.84         12.6079
   601.98         12.5745
   602.12         12.5395
   602.26         12.5051
   602.40         12.4724
   602.54         12.4428
   602.68         12.4175
   602.82         12.3972
   602.96         12.3801
   603.10         12.3635
   603.24         12.3460
   603.38         12.3270
   603.52         12.3073
   603.66         12.2880
   603.80         12.2718
   603.94         12.2631
   604.08         12.2665
   604.22         12.2860
   604.36         12.3238
   604.50         12.3804
   604.64         12.4543
   604.78         12.5422
   604.92         12.6386
   605.06         12.7379
   605.20         12.8339
   605.34         12.9203
   605.48         12.9914
   605.62         13.0442
   605.76         13.0788
   605.90         13.0973
   606.04         13.1027
   606.18         13.0992
   606.32         13.0908
   606.46         13.0816
   606.60         13.0732
   606.74         13.0652
   606.88         13.0565
   607.02         13.0460
   607.16         13.0314
   607.30         13.0106
   607.44         12.9815
   607.58         12.9435
   607.72         12.8975
   607.86         12.8457
   608.00         12.7916
   608.14         12.7388
   608.28         12.6905
   608.42         12.6496
   608.56         12.6196
   608.70         12.6030
   608.84         12.5994
   608.98         12.6063
   609.12         12.6201
   609.26         12.6372
   609.40         12.6547
   609.54         12.6710
   609.68         12.6858
   609.82         12.6999
   609.96         12.7150
   610.10         12.7328
   610.24         12.7541
   610.38         12.7788
   610.52         12.8068
   610.66         12.8373
   610.80         12.8683
   610.94         12.8977
   611.08         12.9236
   611.22         12.9444
   611.36         12.9576
   611.50         12.9608
   611.64         12.9538
   611.78         12.9384
   611.92         12.9181
   612.06         12.8965
   612.20         12.8764
   612.34         12.8588
   612.48         12.8423
   612.62         12.8243
   612.76         12.8023
   612.90         12.7746
   613.04         12.7407
   613.18         12.7009
   613.32         12.6557
   613.46         12.6060
   613.60         12.5541
   613.74         12.5034
   613.88         12.4581
   614.02         12.4219
   614.16         12.3978
   614.30         12.3875
   614.44         12.3915
   614.58         12.4078
   614.72         12.4334
   614.86         12.4645
   615.00         12.4964
   615.14         12.5246
   615.28         12.5454
   615.42         12.5577
   615.56         12.5619
   615.70         12.5588
   615.84         12.5493
   615.98         12.5349
   616.12         12.5176
   616.26         12.4993
   616.40         12.4816
   616.54         12.4662
   616.68         12.4544
   616.82         12.4477
   616.96         12.4482
   617.10         12.4571
   617.24         12.4745
   617.38         12.4990
   617.52         12.5278
   617.66         12.5581
   617.80         12.5876
   617.94         12.6148
   618.08         12.6380
   618.22         12.6549
   618.36         12.6624
   618.50         12.6584
   618.64         12.6432
   618.78         12.6189
   618.92         12.5891
   619.06         12.5587
   619.20         12.5327
   619.34         12.5147
   619.48         12.5071
   619.62         12.5104
   619.76         12.5227
   619.90         12.5411
   620.04         12.5625
   620.18         12.5845
   620.32         12.6046
   620.46         12.6202
   620.60         12.6285
   620.74         12.6276
   620.88         12.6168
   621.02         12.5971
   621.16         12.5712
   621.30         12.5422
   621.44         12.5140
   621.58         12.4907
   621.72         12.4739
   621.86         12.4632
   622.00         12.4568
   622.14         12.4531
   622.28         12.4504
   622.42         12.4473
   622.56         12.4426
   622.70         12.4345
   622.84         12.4218
   622.98         12.4043
   623.12         12.3822
   623.26         12.3566
   623.40         12.3285
   623.54         12.2989
   623.68         12.2683
   623.82         12.2376
   623.96         12.2082
   624.10         12.1817
   624.24         12.1589
   624.38         12.1404
   624.52         12.1267
   624.66         12.1193
   624.80         12.1198
   624.94         12.1286
   625.08         12.1449
   625.22         12.1676
   625.36         12.1955
   625.50         12.2273
   625.64         12.2616
   625.78         12.2953
   625.92         12.3250
   626.06         12.3474
   626.20         12.3610
   626.34         12.3665
   626.48         12.3642
   626.62         12.3531
   626.76         12.3309
   626.90         12.2957
   627.04         12.2476
   627.18         12.1883
   627.32         12.1211
   627.46         12.0507
   627.60         11.9818
   627.74         11.9201
   627.88         11.8706
   628.02         11.8371
   628.16         11.8209
   628.30         11.8215
   628.44         11.8370
   628.58         11.8638
   628.72         11.8976
   628.86         11.9337
   629.00         11.9660
   629.14         11.9889
   629.28         11.9984
   629.42         11.9945
   629.56         11.9808
   629.70         11.9626
   629.84         11.9446
   629.98         11.9305
   630.12         11.9226
   630.26         11.9225
   630.40         11.9301
   630.54         11.9437
   630.68         11.9604
   630.82         11.9766
   630.96         11.9893
   631.10         11.9967
   631.24         11.9975
   631.38         11.9922
   631.52         11.9819
   631.66         11.9683
   631.80         11.9536
   631.94         11.9405
   632.08         11.9311
   632.22         11.9258
   632.36         11.9238
   632.50         11.9233
   632.64         11.9221
   632.78         11.9186
   632.92         11.9123
   633.06         11.9029
   633.20         11.8907
   633.34         11.8763
   633.48         11.8610
   633.62         11.8460
   633.76         11.8321
   633.90         11.8210
   634.04         11.8147
   634.18         11.8145
   634.32         11.8214
   634.46         11.8357
   634.60         11.8554
   634.74         11.8768
   634.88         11.8965
   635.02         11.9121
   635.16         11.9215
   635.30         11.9240
   635.44         11.9203
   635.58         11.9116
   635.72         11.8989
   635.86         11.8828
   636.00         11.8637
   636.14         11.8422
   636.28         11.8202
   636.42         11.8010
   636.56         11.7879
   636.70         11.7818
   636.84         11.7813
   636.98         11.7847
   637.12         11.7899
   637.26         11.7943
   637.40         11.7974
   637.54         11.8002
   637.68         11.8032
   637.82         11.8065
   637.96         11.8102
   638.10         11.8138
   638.24         11.8164
   638.38         11.8177
   638.52         11.8170
   638.66         11.8135
   638.80         11.8071
   638.94         11.7989
   639.08         11.7900
   639.22         11.7809
   639.36         11.7719
   639.50         11.7636
   639.64         11.7568
   639.78         11.7518
   639.92         11.7488
   640.06         11.7479
   640.20         11.7482
   640.34         11.7476
   640.48         11.7446
   640.62         11.7375
   640.76         11.7257
   640.90         11.7091
   641.04         11.6877
   641.18         11.6609
   641.32         11.6304
   641.46         11.5997
   641.60         11.5738
   641.74         11.5556
   641.88         11.5454
   642.02         11.5419
   642.16         11.5430
   642.30         11.5473
   642.44         11.5548
   642.58         11.5646
   642.72         11.5744
   642.86         11.5812
   643.00         11.5832
   643.14         11.5806
   643.28         11.5748
   643.42         11.5683
   643.56         11.5629
   643.70         11.5593
   643.84         11.5573
   643.98         11.5569
   644.12         11.5577
   644.26         11.5578
   644.40         11.5543
   644.54         11.5449
   644.68         11.5294
   644.82         11.5082
   644.96         11.4827
   645.10         11.4540
   645.24         11.4227
   645.38         11.3900
   645.52         11.3587
   645.66         11.3326
   645.80         11.3140
   645.94         11.3031
   646.08         11.2986
   646.22         11.2982
   646.36         11.3003
   646.50         11.3043
   646.64         11.3107
   646.78         11.3195
   646.92         11.3296
   647.06         11.3400
   647.20         11.3506
   647.34         11.3608
   647.48         11.3693
   647.62         11.3754
   647.76         11.3789
   647.90         11.3797
   648.04         11.3772
   648.18         11.3707
   648.32         11.3592
   648.46         11.3416
   648.60         11.3184
   648.74         11.2918
   648.88         11.2658
   649.02         11.2449
   649.16         11.2331
   649.30         11.2335
   649.44         11.2470
   649.58         11.2728
   649.72         11.3092
   649.86         11.3538
   650.00         11.4039
   650.14         11.4569
   650.28         11.5096
   650.42         11.5579
   650.56         11.5975
   650.70         11.6263
   650.84         11.6438
   650.98         11.6515
   651.12         11.6527
   651.26         11.6510
   651.40         11.6502
   651.54         11.6527
   651.68         11.6600
   651.82         11.6719
   651.96         11.6870
   652.10         11.7035
   652.24         11.7195
   652.38         11.7344
   652.52         11.7475
   652.66         11.7568
   652.80         11.7589
   652.94         11.7506
   653.08         11.7305
   653.22         11.6986
   653.36         11.6548
   653.50         11.5992
   653.64         11.5326
   653.78         11.4559
   653.92         11.3708
   654.06         11.2792
   654.20         11.1822
   654.34         11.0796
   654.48         10.9701
   654.62         10.8515
   654.76         10.7204
   654.90         10.5713
   655.04         10.3965
   655.18         10.1890
   655.32         9.9464
   655.46         9.6745
   655.60         9.3869
   655.74         9.1026
   655.88         8.8418
   656.02         8.6246
   656.16         8.4687
   656.30         8.3873
   656.44         8.3873
   656.58         8.4683
   656.72         8.6229
   656.86         8.8376
   657.00         9.0957
   657.14         9.3779
   657.28         9.6651
   657.42         9.9391
   657.56         10.1850
   657.70         10.3942
   657.84         10.5655
   657.98         10.7031
   658.12         10.8130
   658.26         10.8994
   658.40         10.9649
   658.54         11.0122
   658.68         11.0438
   658.82         11.0631
   658.96         11.0733
   659.10         11.0770
   659.24         11.0766
   659.38         11.0740
   659.52         11.0709
   659.66         11.0684
   659.80         11.0666
   659.94         11.0652
   660.08         11.0638
   660.22         11.0621
   660.36         11.0595
   660.50         11.0552
   660.64         11.0485
   660.78         11.0388
   660.92         11.0264
   661.06         11.0122
   661.20         10.9972
   661.34         10.9820
   661.48         10.9676
   661.62         10.9549
   661.76         10.9441
   661.90         10.9352
   662.04         10.9283
   662.18         10.9243
   662.32         10.9239
   662.46         10.9274
   662.60         10.9347
   662.74         10.9450
   662.88         10.9571
   663.02         10.9703
   663.16         10.9837
   663.30         10.9970
   663.44         11.0102
   663.58         11.0230
   663.72         11.0349
   663.86         11.0460
   664.00         11.0565
   664.14         11.0657
   664.28         11.0721
   664.42         11.0745
   664.56         11.0725
   664.70         11.0663
   664.84         11.0570
   664.98         11.0456
   665.12         11.0328
   665.26         11.0187
   665.40         11.0030
   665.54         10.9853
   665.68         10.9657
   665.82         10.9446
   665.96         10.9229
   666.10         10.9014
   666.24         10.8804
   666.38         10.8597
   666.52         10.8392
   666.66         10.8179
   666.80         10.7951
   666.94         10.7713
   667.08         10.7481
   667.22         10.7285
   667.36         10.7156
   667.50         10.7110
   667.64         10.7145
   667.78         10.7247
   667.92         10.7393
   668.06         10.7558
   668.20         10.7730
   668.34         10.7900
   668.48         10.8060
   668.62         10.8208
   668.76         10.8343
   668.90         10.8466
   669.04         10.8578
   669.18         10.8680
   669.32         10.8775
   669.46         10.8862
   669.60         10.8941
   669.74         10.9005
   669.88         10.9046
   670.02         10.9047
   670.16         10.8998
   670.30         10.8892
   670.44         10.8734
   670.58         10.8530
   670.72         10.8285
   670.86         10.8012
   671.00         10.7735
   671.14         10.7477
   671.28         10.7255
   671.42         10.7076
   671.56         10.6933
   671.70         10.6819
   671.84         10.6729
   671.98         10.6660
   672.12         10.6606
   672.26         10.6569
   672.40         10.6548
   672.54         10.6541
   672.68         10.6547
   672.82         10.6562
   672.96         10.6577
   673.10         10.6577
   673.24         10.6552
   673.38         10.6499
   673.52         10.6432
   673.66         10.6356
   673.80         10.6272
   673.94         10.6172
   674.08         10.6052
   674.22         10.5911
   674.36         10.5750
   674.50         10.5575
   674.64         10.5391
   674.78         10.5201
   674.92         10.5015
   675.06         10.4846
   675.20         10.4703
   675.34         10.4600
   675.48         10.4543
   675.62         10.4533
   675.76         10.4574
   675.90         10.4674
   676.04         10.4830
   676.18         10.5028
   676.32         10.5248
   676.46         10.5469
   676.60         10.5667
   676.74         10.5813
   676.88         10.5878
   677.02         10.5840
   677.16         10.5692
   677.30         10.5448
   677.44         10.5135
   677.58         10.4791
   677.72         10.4452
   677.86         10.4146
   678.00         10.3902
   678.14         10.3739
   678.28         10.3660
   678.42         10.3651
   678.56         10.3686
   678.70         10.3740
   678.84         10.3796
   678.98         10.3830
   679.12         10.3822
   679.26         10.3758
   679.40         10.3632
   679.54         10.3455
   679.68         10.3245
   679.82         10.3031
   679.96         10.2842
   680.10         10.2696
   680.24         10.2599
   680.38         10.2551
   680.52         10.2548
   680.66         10.2576
   680.80         10.2617
   680.94         10.2654
   681.08         10.2676
   681.22         10.2677
   681.36         10.2653
   681.50         10.2599
   681.64         10.2512
   681.78         10.2402
   681.92         10.2289
   682.06         10.2193
   682.20         10.2129
   682.34         10.2105
   682.48         10.2120
   682.62         10.2166
   682.76         10.2226
   682.90         10.2284
   683.04         10.2319
   683.18         10.2311
   683.32         10.2249
   683.46         10.2131
   683.60         10.1967
   683.74         10.1766
   683.88         10.1541
   684.02         10.1313
   684.16         10.1103
   684.30         10.0934
   684.44         10.0823
   684.58         10.0783
   684.72         10.0816
   684.86         10.0916
   685.00         10.1065
   685.14         10.1245
   685.28         10.1427
   685.42         10.1560
   685.56         10.1564
   685.70         10.1325
   685.84         10.0730
   685.98         9.9698
   686.12         9.8202
   686.26         9.6263
   686.40         9.3963
   686.54         9.1433
   686.68         8.8841
   686.82         8.6374
   686.96         8.4219
   687.10         8.2540
   687.24         8.1448
   687.38         8.0983
   687.52         8.1114
   687.66         8.1757
   687.80         8.2780
   687.94         8.4019
   688.08         8.5306
   688.22         8.6487
   688.36         8.7458
   688.50         8.8177
   688.64         8.8664
   688.78         8.8964
   688.92         8.9129
   689.06         8.9214
   689.20         8.9267
   689.34         8.9328
   689.48         8.9423
   689.62         8.9563
   689.76         8.9741
   689.90         8.9952
   690.04         9.0194
   690.18         9.0477
   690.32         9.0812
   690.46         9.1200
   690.60         9.1638
   690.74         9.2111
   690.88         9.2603
   691.02         9.3104
   691.16         9.3602
   691.30         9.4089
   691.44         9.4563
   691.58         9.5017
   691.72         9.5443
   691.86         9.5831
   692.00         9.6173
   692.14         9.6472
   692.28         9.6735
   692.42         9.6966
   692.56         9.7165
   692.70         9.7329
   692.84         9.7446
   692.98         9.7510
   693.12         9.7526
   693.26         9.7509
   693.40         9.7476
   693.54         9.7442
   693.68         9.7422
   693.82         9.7424
   693.96         9.7451
   694.10         9.7504
   694.24         9.7576
   694.38         9.7654
   694.52         9.7726
   694.66         9.7788
   694.80         9.7835
   694.94         9.7858
   695.08         9.7846
   695.22         9.7801
   695.36         9.7731
   695.50         9.7648
   695.64         9.7573
   695.78         9.7536
   695.92         9.7559
   696.06         9.7657
   696.20         9.7848
   696.34         9.8143
   696.48         9.8538
   696.62         9.9006
   696.76         9.9507
   696.90         9.9994
   697.04         10.0426
   697.18         10.0771
   697.32         10.1009
   697.46         10.1123
   697.60         10.1103
   697.74         10.0949
   697.88         10.0673
   698.02         10.0295
   698.16         9.9847
   698.30         9.9364
   698.44         9.8886
   698.58         9.8442
   698.72         9.8051
   698.86         9.7719
   699.00         9.7443
   699.14         9.7221
   699.28         9.7046
   699.42         9.6911
   699.56         9.6818
   699.70         9.6767
   699.84         9.6748
   699.98         9.6743
   700.12         9.6740
   700.26         9.6729
   700.40         9.6700
   700.54         9.6648
   700.68         9.6575
   700.82         9.6490
   700.96         9.6401
   701.10         9.6311
   701.24         9.6218
   701.38         9.6127
   701.52         9.6046
   701.66         9.5991
   701.80         9.5972
   701.94         9.5989
   702.08         9.6038
   702.22         9.6110
   702.36         9.6189
   702.50         9.6258
   702.64         9.6311
   702.78         9.6346
   702.92         9.6364
   703.06         9.6379
   703.20         9.6410
   703.34         9.6467
   703.48         9.6546
   703.62         9.6641
   703.76         9.6742
   703.90         9.6840
   704.04         9.6926
   704.18         9.6990
   704.32         9.7032
   704.46         9.7065
   704.60         9.7100
   704.74         9.7142
   704.88         9.7194
   705.02         9.7258
   705.16         9.7326
   705.30         9.7376
   705.44         9.7388
   705.58         9.7347
   705.72         9.7240
   705.86         9.7053
   706.00         9.6794
   706.14         9.6497
   706.28         9.6198
   706.42         9.5925
   706.56         9.5703
   706.70         9.5554
   706.84         9.5497
   706.98         9.5541
   707.12         9.5673
   707.26         9.5857
   707.40         9.6053
   707.54         9.6231
   707.68         9.6377
   707.82         9.6483
   707.96         9.6555
   708.10         9.6609
   708.24         9.6656
   708.38         9.6704
   708.52         9.6757
   708.66         9.6803
   708.80         9.6822
   708.94         9.6784
   709.08         9.6667
   709.22         9.6465
   709.36         9.6193
   709.50         9.5866
   709.64         9.5494
   709.78         9.5084
   709.92         9.4657
   710.06         9.4241
   710.20         9.3862
   710.34         9.3535
   710.48         9.3271
   710.62         9.3083
   710.76         9.2979
   710.90         9.2957
   711.04         9.3018
   711.18         9.3158
   711.32         9.3377
   711.46         9.3677
   711.60         9.4048
   711.74         9.4471
   711.88         9.4928
   712.02         9.5395
   712.16         9.5837
   712.30         9.6230
   712.44         9.6567
   712.58         9.6847
   712.72         9.7069
   712.86         9.7237
   713.00         9.7360
   713.14         9.7448
   713.28         9.7502
   713.42         9.7503
   713.56         9.7432
   713.70         9.7286
   713.84         9.7073
   713.98         9.6803
   714.12         9.6483
   714.26         9.6125
   714.40         9.5753
   714.54         9.5403
   714.68         9.5109
   714.82         9.4897
   714.96         9.4781
   715.10         9.4756
   715.24         9.4804
   715.38         9.4891
   715.52         9.4980
   715.66         9.5029
   715.80         9.5001
   715.94         9.4865
   716.08         9.4601
   716.22         9.4208
   716.36         9.3710
   716.50         9.3149
   716.64         9.2564
   716.78         9.1998
   716.92         9.1488
   717.06         9.1060
   717.20         9.0729
   717.34         9.0480
   717.48         9.0282
   717.62         9.0109
   717.76         8.9946
   717.90         8.9781
   718.04         8.9604
   718.18         8.9409
   718.32         8.9194
   718.46         8.8960
   718.60         8.8706
   718.74         8.8434
   718.88         8.8159
   719.02         8.7905
   719.16         8.7691
   719.30         8.7526
   719.44         8.7401
   719.58         8.7305
   719.72         8.7237
   719.86         8.7198
   720.00         8.7202
   720.14         8.7276
   720.28         8.7454
   720.42         8.7743
   720.56         8.8123
   720.70         8.8575
   720.84         8.9080
   720.98         8.9622
   721.12         9.0174
   721.26         9.0708
   721.40         9.1200
   721.54         9.1632
   721.68         9.1994
   721.82         9.2274
   721.96         9.2460
   722.10         9.2536
   722.24         9.2501
   722.38         9.2361
   722.52         9.2140
   722.66         9.1883
   722.80         9.1633
   722.94         9.1411
   723.08         9.1224
   723.22         9.1081
   723.36         9.0995
   723.50         9.0968
   723.64         9.1000
   723.78         9.1084
   723.92         9.1201
   724.06         9.1313
   724.20         9.1377
   724.34         9.1361
   724.48         9.1255
   724.62         9.1065
   724.76         9.0806
   724.90         9.0504
   725.04         9.0195
   725.18         8.9909
   725.32         8.9667
   725.46         8.9469
   725.60         8.9308
   725.74         8.9186
   725.88         8.9098
   726.02         8.9028
   726.16         8.8959
   726.30         8.8882
   726.44         8.8792
   726.58         8.8685
   726.72         8.8568
   726.86         8.8466
   727.00         8.8400
   727.14         8.8381
   727.28         8.8408
   727.42         8.8475
   727.56         8.8577
   727.70         8.8704
   727.84         8.8834
   727.98         8.8943
   728.12         8.9014
   728.26         8.9038
   728.40         8.9008
   728.54         8.8927
   728.68         8.8818
   728.82         8.8718
   728.96         8.8658
   729.10         8.8640
   729.24         8.8648
   729.38         8.8670
   729.52         8.8694
   729.66         8.8711
   729.80         8.8710
   729.94         8.8686
   730.08         8.8632
   730.22         8.8546
   730.36         8.8434
   730.50         8.8303
   730.64         8.8175
   730.78         8.8075
   730.92         8.8017
   731.06         8.8007
   731.20         8.8047
   731.34         8.8133
   731.48         8.8252
   731.62         8.8387
   731.76         8.8525
   731.90         8.8656
   732.04         8.8772
   732.18         8.8864
   732.32         8.8919
   732.46         8.8933
   732.60         8.8919
   732.74         8.8901
   732.88         8.8897
   733.02         8.8907
   733.16         8.8924
   733.30         8.8942
   733.44         8.8950
   733.58         8.8930
   733.72         8.8865
   733.86         8.8743
   734.00         8.8553
   734.14         8.8293
   734.28         8.7962
   734.42         8.7561
   734.56         8.7094
   734.70         8.6586
   734.84         8.6074
   734.98         8.5598
   735.12         8.5187
   735.26         8.4861
   735.40         8.4627
   735.54         8.4476
   735.68         8.4378
   735.82         8.4306
   735.96         8.4236
   736.10         8.4157
   736.24         8.4075
   736.38         8.4005
   736.52         8.3966
   736.66         8.3979
   736.80         8.4058
   736.94         8.4212
   737.08         8.4439
   737.22         8.4724
   737.36         8.5040
   737.50         8.5343
   737.64         8.5591
   737.78         8.5756
   737.92         8.5829
   738.06         8.5815
   738.20         8.5725
   738.34         8.5574
   738.48         8.5392
   738.62         8.5210
   738.76         8.5052
   738.90         8.4933
   739.04         8.4856
   739.18         8.4834
   739.32         8.4881
   739.46         8.5009
   739.60         8.5213
   739.74         8.5464
   739.88         8.5726
   740.02         8.5963
   740.16         8.6149
   740.30         8.6275
   740.44         8.6344
   740.58         8.6359
   740.72         8.6326
   740.86         8.6259
   741.00         8.6181
   741.14         8.6113
   741.28         8.6069
   741.42         8.6054
   741.56         8.6071
   741.70         8.6120
   741.84         8.6190
   741.98         8.6259
   742.12         8.6304
   742.26         8.6311
   742.40         8.6280
   742.54         8.6223
   742.68         8.6162
   742.82         8.6121
   742.96         8.6121
   743.10         8.6162
   743.24         8.6223
   743.38         8.6280
   743.52         8.6311
   743.66         8.6304
   743.80         8.6259
   743.94         8.6190
   744.08         8.6120
   744.22         8.6071
