# File HD13256
# Wavelength [nm]    Normalized Amplitude
   349.70         3255.5599
   349.84         3267.6062
   349.98         3284.4190
   350.12         3303.8410
   350.26         3324.1376
   350.40         3344.5332
   350.54         3364.9256
   350.68         3384.7649
   350.82         3402.1629
   350.96         3414.2028
   351.10         3418.4897
   351.24         3414.2028
   351.38         3402.1629
   351.52         3384.7649
   351.66         3364.9256
   351.80         3344.5332
   351.94         3324.1376
   352.08         3303.8410
   352.22         3284.4190
   352.36         3267.6062
   352.50         3255.5599
   352.64         3249.9365
   352.78         3251.5556
   352.92         3260.0752
   353.06         3273.7094
   353.20         3290.4260
   353.34         3308.8116
   353.48         3327.7344
   353.62         3346.3626
   353.76         3364.5956
   353.90         3382.9122
   354.04         3402.1894
   354.18         3423.1904
   354.32         3445.2691
   354.46         3466.4797
   354.60         3485.3551
   354.74         3501.8343
   354.88         3516.2790
   355.02         3528.0559
   355.16         3535.9045
   355.30         3539.0467
   355.44         3537.3757
   355.58         3531.3119
   355.72         3522.0509
   355.86         3511.6103
   356.00         3501.5750
   356.14         3492.7852
   356.28         3486.4783
   356.42         3484.7180
   356.56         3489.6367
   356.70         3501.5482
   356.84         3518.2393
   356.98         3536.0498
   357.12         3551.5452
   357.26         3562.0294
   357.40         3564.6111
   357.54         3556.5344
   357.68         3536.6075
   357.82         3505.6627
   357.96         3465.5397
   358.10         3418.3308
   358.24         3366.6160
   358.38         3313.7348
   358.52         3263.5152
   358.66         3219.6004
   358.80         3185.2908
   358.94         3162.8582
   359.08         3152.3230
   359.22         3151.5424
   359.36         3157.4653
   359.50         3167.7354
   359.64         3181.7462
   359.78         3199.1761
   359.92         3218.0864
   360.06         3235.6545
   360.20         3249.6787
   360.34         3258.8326
   360.48         3262.4503
   360.62         3260.8653
   360.76         3255.4440
   360.90         3248.1855
   361.04         3241.2050
   361.18         3236.2502
   361.32         3234.4327
   361.46         3236.1604
   361.60         3241.2617
   361.74         3249.0489
   361.88         3258.0328
   362.02         3265.6040
   362.16         3268.1165
   362.30         3262.4415
   362.44         3246.5847
   362.58         3219.4675
   362.72         3182.0778
   362.86         3137.7452
   363.00         3091.1568
   363.14         3047.5434
   363.28         3011.6051
   363.42         2986.1793
   363.56         2972.1961
   363.70         2969.3381
   363.84         2976.2406
   363.98         2990.6520
   364.12         3009.8596
   364.26         3031.0852
   364.40         3051.4337
   364.54         3068.1449
   364.68         3079.6539
   364.82         3086.2241
   364.96         3089.5127
   365.10         3091.2902
   365.24         3092.9193
   365.38         3095.2636
   365.52         3098.1743
   365.66         3100.8184
   365.80         3102.4156
   365.94         3102.3914
   366.08         3100.2560
   366.22         3095.9372
   366.36         3090.1489
   366.50         3084.0891
   366.64         3079.0018
   366.78         3075.8917
   366.92         3075.4156
   367.06         3077.8476
   367.20         3083.0672
   367.34         3090.6785
   367.48         3099.9437
   367.62         3109.6426
   367.76         3118.1334
   367.90         3123.2414
   368.04         3122.6483
   368.18         3115.0662
   368.32         3100.9070
   368.46         3081.7500
   368.60         3059.4483
   368.74         3035.7201
   368.88         3011.9924
   369.02         2989.3838
   369.16         2968.5363
   369.30         2949.6577
   369.44         2933.1912
   369.58         2919.9142
   369.72         2910.0766
   369.86         2903.1559
   370.00         2898.6842
   370.14         2897.0038
   370.28         2899.0672
   370.42         2905.4850
   370.56         2916.3042
   370.70         2931.2636
   370.84         2949.3002
   370.98         2968.5457
   371.12         2987.1799
   371.26         3003.8142
   371.40         3017.2315
   371.54         3026.2629
   371.68         3030.1980
   371.82         3028.9404
   371.96         3022.8750
   372.10         3012.9578
   372.24         3000.4238
   372.38         2986.4216
   372.52         2972.2729
   372.66         2959.9035
   372.80         2951.4394
   372.94         2948.2060
   373.08         2950.5247
   373.22         2958.0877
   373.36         2969.7925
   373.50         2983.8816
   373.64         2998.4790
   373.78         3011.7791
   373.92         3022.0222
   374.06         3027.6527
   374.20         3027.9799
   374.34         3023.4661
   374.48         3015.1454
   374.62         3004.1308
   374.76         2991.6962
   374.90         2979.4750
   375.04         2969.7082
   375.18         2964.8326
   375.32         2966.5244
   375.46         2974.8285
   375.60         2987.8505
   375.74         3002.2966
   375.88         3014.3669
   376.02         3020.8854
   376.16         3020.3231
   376.30         3012.9970
   376.44         3000.9115
   376.58         2987.1999
   376.72         2974.9591
   376.86         2966.5203
   377.00         2963.1085
   377.14         2964.6391
   377.28         2970.4411
   377.42         2980.1105
   377.56         2993.2759
   377.70         3009.0009
   377.84         3025.4845
   377.98         3040.5111
   378.12         3051.9662
   378.26         3058.2537
   378.40         3058.6774
   378.54         3053.4430
   378.68         3043.7089
   378.82         3031.0570
   378.96         3017.1734
   379.10         3003.8210
   379.24         2992.3631
   379.38         2983.8871
   379.52         2979.1662
   379.66         2978.4009
   379.80         2981.4482
   379.94         2988.1444
   380.08         2998.1130
   380.22         3010.3170
   380.36         3023.1141
   380.50         3034.5711
   380.64         3042.6735
   380.78         3045.5391
   380.92         3042.1752
   381.06         3033.0776
   381.20         3020.2527
   381.34         3006.7496
   381.48         2995.2190
   381.62         2987.0563
   381.76         2982.5148
   381.90         2980.7617
   382.04         2980.0303
   382.18         2977.6832
   382.32         2971.0479
   382.46         2958.4564
   382.60         2939.4918
   382.74         2914.8188
   382.88         2885.6215
   383.02         2853.4146
   383.16         2820.4990
   383.30         2789.8520
   383.44         2764.4393
   383.58         2746.9615
   383.72         2739.3495
   383.86         2741.9545
   384.00         2753.4300
   384.14         2771.2727
   384.28         2792.6909
   384.42         2815.3629
   384.56         2837.4145
   384.70         2857.3235
   384.84         2874.1197
   384.98         2887.2751
   385.12         2896.3756
   385.26         2900.9976
   385.40         2900.8993
   385.54         2896.3104
   385.68         2888.0621
   385.82         2877.3751
   385.96         2865.5600
   386.10         2853.9520
   386.24         2843.7998
   386.38         2835.8525
   386.52         2830.3815
   386.66         2827.3277
   386.80         2826.0797
   386.94         2825.5384
   387.08         2824.4305
   387.22         2821.2297
   387.36         2814.0102
   387.50         2800.8700
   387.64         2780.5797
   387.78         2753.1431
   387.92         2720.2035
   388.06         2684.7822
   388.20         2650.3830
   388.34         2620.0527
   388.48         2595.8450
   388.62         2578.8251
   388.76         2569.1663
   388.90         2566.2846
   389.04         2569.1234
   389.18         2576.5582
   389.32         2587.4329
   389.46         2600.3331
   389.60         2613.7440
   389.74         2626.4310
   389.88         2637.5734
   390.02         2646.6382
   390.16         2653.4895
   390.30         2658.6802
   390.44         2663.3662
   390.58         2668.5891
   390.72         2674.5276
   390.86         2680.4144
   391.00         2685.1326
   391.14         2687.7821
   391.28         2687.8223
   391.42         2685.2148
   391.56         2680.4940
   391.70         2674.5282
   391.84         2667.8695
   391.98         2659.9438
   392.12         2649.4026
   392.26         2635.3347
   392.40         2617.8325
   392.54         2597.5692
   392.68         2575.2900
   392.82         2552.0745
   392.96         2529.5760
   393.10         2509.4977
   393.24         2493.0684
   393.38         2481.2453
   393.52         2474.9680
   393.66         2475.0368
   393.80         2481.6948
   393.94         2494.2656
   394.08         2511.4674
   394.22         2531.5968
   394.36         2552.2281
   394.50         2570.4242
   394.64         2583.9757
   394.78         2592.3929
   394.92         2596.2150
   395.06         2595.9122
   395.20         2591.5948
   395.34         2583.1666
   395.48         2570.3393
   395.62         2552.3470
   395.76         2528.2077
   395.90         2497.6536
   396.04         2461.8622
   396.18         2423.3190
   396.32         2385.0701
   396.46         2350.1399
   396.60         2321.3165
   396.74         2301.0468
   396.88         2290.9601
   397.02         2291.6448
   397.16         2302.8774
   397.30         2323.5044
   397.44         2351.1202
   397.58         2382.2236
   397.72         2413.0849
   397.86         2440.5853
   398.00         2462.4072
   398.14         2476.7939
   398.28         2482.9024
   398.42         2481.4685
   398.56         2474.4899
   398.70         2464.3359
   398.84         2452.9816
   398.98         2441.6659
   399.12         2431.1098
   399.26         2421.7835
   399.40         2413.8930
   399.54         2407.4225
   399.68         2402.3422
   399.82         2398.6258
   399.96         2396.2846
   400.10         2395.5404
   400.24         2396.6816
   400.38         2399.7284
   400.52         2404.1551
   400.66         2408.9778
   400.80         2413.1198
   400.94         2415.7476
   401.08         2416.1732
   401.22         2413.6867
   401.36         2407.7291
   401.50         2397.9804
   401.64         2384.6068
   401.78         2368.5555
   401.92         2351.4708
   402.06         2335.2211
   402.20         2321.4018
   402.34         2310.9814
   402.48         2304.3437
   402.62         2301.4142
   402.76         2301.6034
   402.90         2303.8797
   403.04         2306.9729
   403.18         2309.6894
   403.32         2311.2225
   403.46         2311.1212
   403.60         2309.1873
   403.74         2305.4634
   403.88         2300.3187
   404.02         2294.5115
   404.16         2288.8402
   404.30         2283.9774
   404.44         2280.4261
   404.58         2278.2696
   404.72         2277.0386
   404.86         2275.8944
   405.00         2274.0019
   405.14         2270.9052
   405.28         2266.6578
   405.42         2261.6168
   405.56         2256.1606
   405.70         2250.4292
   405.84         2244.1860
   405.98         2237.0925
   406.12         2228.8251
   406.26         2218.8496
   406.40         2206.4906
   406.54         2191.5238
   406.68         2174.4917
   406.82         2156.2662
   406.96         2137.7724
   407.10         2119.8857
   407.24         2103.3243
   407.38         2088.6033
   407.52         2076.0575
   407.66         2066.0120
   407.80         2058.8677
   407.94         2054.9029
   408.08         2053.9210
   408.22         2055.3132
   408.36         2058.2972
   408.50         2061.9374
   408.64         2065.2435
   408.78         2066.9621
   408.92         2065.8113
   409.06         2061.2286
   409.20         2053.4543
   409.34         2043.1003
   409.48         2030.9183
   409.62         2017.9367
   409.76         2005.4702
   409.90         1994.8397
   410.04         1987.1125
   410.18         1983.0719
   410.32         1983.1185
   410.46         1987.0028
   410.60         1993.6914
   410.74         2001.7414
   410.88         2009.8240
   411.02         2016.8105
   411.16         2021.8528
   411.30         2024.6410
   411.44         2025.4993
   411.58         2025.4106
   411.72         2025.6219
   411.86         2027.0546
   412.00         2030.2194
   412.14         2035.2838
   412.28         2041.9184
   412.42         2049.3515
   412.56         2056.7159
   412.70         2063.1855
   412.84         2067.8358
   412.98         2069.6023
   413.12         2067.6244
   413.26         2061.7164
   413.40         2052.6475
   413.54         2041.9050
   413.68         2031.0959
   413.82         2021.5793
   413.96         2014.2892
   414.10         2009.6578
   414.24         2007.6759
   414.38         2007.9992
   414.52         2010.1066
   414.66         2013.4516
   414.80         2017.4155
   414.94         2021.2115
   415.08         2024.0765
   415.22         2025.4290
   415.36         2024.7744
   415.50         2021.7975
   415.64         2016.6746
   415.78         2010.1423
   415.92         2003.1873
   416.06         1996.6080
   416.20         1990.6642
   416.34         1985.0762
   416.48         1979.3316
   416.62         1972.9549
   416.76         1965.6723
   416.90         1957.4747
   417.04         1948.6066
   417.18         1939.4662
   417.32         1930.3732
   417.46         1921.4517
   417.60         1912.7356
   417.74         1904.3145
   417.88         1896.3227
   418.02         1888.8133
   418.16         1881.8311
   418.30         1875.5531
   418.44         1870.1240
   418.58         1865.5686
   418.72         1861.8777
   418.86         1859.0039
   419.00         1856.8419
   419.14         1855.2043
   419.28         1853.9236
   419.42         1853.0150
   419.56         1852.5601
   419.70         1852.4933
   419.84         1852.6034
   419.98         1852.6593
   420.12         1852.5773
   420.26         1852.4656
   420.40         1852.5115
   420.54         1852.8695
   420.68         1853.6686
   420.82         1855.1510
   420.96         1857.6073
   421.10         1861.0516
   421.24         1865.1442
   421.38         1869.3156
   421.52         1872.9032
   421.66         1875.3573
   421.80         1876.4183
   421.94         1876.1243
   422.08         1874.6116
   422.22         1871.9402
   422.36         1868.1931
   422.50         1863.5852
   422.64         1858.4184
   422.78         1853.0711
   422.92         1848.0252
   423.06         1843.8089
   423.20         1840.8447
   423.34         1839.3737
   423.48         1839.4348
   423.62         1840.7333
   423.76         1842.6720
   423.90         1844.6111
   424.04         1846.0425
   424.18         1846.7062
   424.32         1846.6376
   424.46         1845.9560
   424.60         1844.5666
   424.74         1842.2383
   424.88         1838.8466
   425.02         1834.4176
   425.16         1829.0447
   425.30         1822.8869
   425.44         1816.2286
   425.58         1809.4672
   425.72         1803.0320
   425.86         1797.2153
   426.00         1792.1239
   426.14         1787.7374
   426.28         1783.9174
   426.42         1780.4604
   426.56         1777.2250
   426.70         1774.1634
   426.84         1771.3598
   426.98         1768.9664
   427.12         1766.9116
   427.26         1764.9535
   427.40         1763.0514
   427.54         1761.4452
   427.68         1760.3657
   427.82         1759.8890
   427.96         1760.0448
   428.10         1760.8839
   428.24         1762.4293
   428.38         1764.4760
   428.52         1766.5715
   428.66         1768.2636
   428.80         1769.2202
   428.94         1769.2547
   429.08         1768.3490
   429.22         1766.6701
   429.36         1764.4998
   429.50         1762.1729
   429.64         1760.0493
   429.78         1758.4470
   429.92         1757.6282
   430.06         1757.7732
   430.20         1758.8067
   430.34         1760.1870
   430.48         1761.0327
   430.62         1760.3408
   430.76         1757.3299
   430.90         1751.6829
   431.04         1743.3897
   431.18         1732.7703
   431.32         1720.6170
   431.46         1708.1047
   431.60         1696.5365
   431.74         1687.0988
   431.88         1680.6980
   432.02         1677.8386
   432.16         1678.5164
   432.30         1682.2344
   432.44         1687.9827
   432.58         1694.1365
   432.72         1698.7401
   432.86         1700.0189
   433.00         1696.8298
   433.14         1688.9441
   433.28         1676.9648
   433.42         1662.0353
   433.56         1645.2963
   433.70         1627.6742
   433.84         1610.1207
   433.98         1593.7056
   434.12         1579.5389
   434.26         1568.6353
   434.40         1561.8273
   434.54         1559.6908
   434.68         1562.4617
   434.82         1569.9301
   434.96         1581.3917
   435.10         1595.8226
   435.24         1612.1160
   435.38         1629.1665
   435.52         1645.9094
   435.66         1661.4132
   435.80         1674.8821
   435.94         1685.6559
   436.08         1693.3653
   436.22         1698.0241
   436.36         1700.0375
   436.50         1700.1066
   436.64         1699.0739
   436.78         1697.6717
   436.92         1696.2234
   437.06         1694.6431
   437.20         1692.5446
   437.34         1689.3382
   437.48         1684.4296
   437.62         1677.4870
   437.76         1668.6295
   437.90         1658.2910
   438.04         1646.9403
   438.18         1635.1843
   438.32         1623.9487
   438.46         1614.2255
   438.60         1606.7096
   438.74         1601.6693
   438.88         1599.0401
   439.02         1598.5678
   439.16         1599.8606
   439.30         1602.4395
   439.44         1605.8100
   439.58         1609.4878
   439.72         1612.9881
   439.86         1615.8460
   440.00         1617.7181
   440.14         1618.3355
   440.28         1617.3783
   440.42         1614.3872
   440.56         1608.7642
   440.70         1600.0539
   440.84         1588.2597
   440.98         1573.8242
   441.12         1557.3526
   441.26         1539.4419
   441.40         1520.6975
   441.54         1501.7942
   441.68         1483.4446
   441.82         1466.3411
   441.96         1451.0959
   442.10         1438.1148
   442.24         1427.4986
   442.38         1419.1266
   442.52         1412.8467
   442.66         1408.5592
   442.80         1406.1968
   442.94         1405.8095
   443.08         1407.6066
   443.22         1411.8306
   443.36         1418.5968
   443.50         1427.7100
   443.64         1438.6748
   443.78         1450.8412
   443.92         1463.5077
   444.06         1475.9825
   444.20         1487.6833
   444.34         1498.2453
   444.48         1507.5647
   444.62         1515.7299
   444.76         1522.9183
   444.90         1529.3634
   445.04         1535.3226
   445.18         1540.9542
   445.32         1546.2672
   445.46         1551.0793
   445.60         1554.9586
   445.74         1557.2635
   445.88         1557.2741
   446.02         1554.5587
   446.16         1549.2361
   446.30         1541.9327
   446.44         1533.5836
   446.58         1525.1872
   446.72         1517.6754
   446.86         1511.8791
   447.00         1508.4488
   447.14         1507.7692
   447.28         1509.8555
   447.42         1514.4497
   447.56         1521.2022
   447.70         1529.6064
   447.84         1539.0035
   447.98         1548.6719
   448.12         1557.8267
   448.26         1565.7431
   448.40         1571.9618
   448.54         1576.3390
   448.68         1578.9187
   448.82         1579.7909
   448.96         1579.0977
   449.10         1577.0711
   449.24         1573.9608
   449.38         1570.0394
   449.52         1565.6442
   449.66         1561.2105
   449.80         1557.2726
   449.94         1554.3308
   450.08         1552.6660
   450.22         1552.1423
   450.36         1552.2851
   450.50         1552.5370
   450.64         1552.4354
   450.78         1551.7527
   450.92         1550.4580
   451.06         1548.5605
   451.20         1546.1578
   451.34         1543.5097
   451.48         1540.9658
   451.62         1538.9148
   451.76         1537.7579
   451.90         1537.6868
   452.04         1538.7109
   452.18         1540.8254
   452.32         1543.8624
   452.46         1547.3827
   452.60         1550.7506
   452.74         1553.3182
   452.88         1554.5967
   453.02         1554.3633
   453.16         1552.5893
   453.30         1549.3113
   453.44         1544.5834
   453.58         1538.5284
   453.72         1531.3498
   453.86         1523.2046
   454.00         1514.0458
   454.14         1503.9159
   454.28         1493.2901
   454.42         1482.8194
   454.56         1472.9954
   454.70         1464.3293
   454.84         1457.4394
   454.98         1452.7604
   455.12         1450.4419
   455.26         1450.3829
   455.40         1452.2270
   455.54         1455.4145
   455.68         1459.4056
   455.82         1463.7853
   455.96         1468.1591
   456.10         1472.0573
   456.24         1474.9612
   456.38         1476.5596
   456.52         1477.0070
   456.66         1476.9152
   456.80         1477.1597
   456.94         1478.3944
   457.08         1480.7259
   457.22         1483.9041
   457.36         1487.5688
   457.50         1491.2440
   457.64         1494.2786
   457.78         1495.9987
   457.92         1495.9227
   458.06         1493.8769
   458.20         1490.0519
   458.34         1484.7926
   458.48         1478.2420
   458.62         1470.3780
   458.76         1461.3611
   458.90         1451.7705
   459.04         1442.4544
   459.18         1434.1167
   459.32         1427.0891
   459.46         1421.4795
   459.60         1417.4332
   459.74         1415.1749
   459.88         1414.9307
   460.02         1416.8248
   460.16         1420.7402
   460.30         1426.2938
   460.44         1432.9468
   460.58         1440.1409
   460.72         1447.3970
   460.86         1454.2473
   461.00         1460.0920
   461.14         1464.4741
   461.28         1467.4491
   461.42         1469.4160
   461.56         1470.7377
   461.70         1471.5859
   461.84         1471.9974
   461.98         1472.0030
   462.12         1471.6827
   462.26         1471.1195
   462.40         1470.3047
   462.54         1469.0636
   462.68         1467.0871
   462.82         1464.0106
   462.96         1459.5333
   463.10         1453.6382
   463.24         1446.6480
   463.38         1438.9899
   463.52         1430.8164
   463.66         1421.8925
   463.80         1411.9758
   463.94         1401.0507
   464.08         1389.2887
   464.22         1377.1533
   464.36         1365.4361
   464.50         1355.0172
   464.64         1346.6083
   464.78         1340.6383
   464.92         1337.3002
   465.06         1336.7299
   465.20         1339.0834
   465.34         1344.3972
   465.48         1352.4840
   465.62         1362.9778
   465.76         1375.2872
   465.90         1388.3981
   466.04         1401.0319
   466.18         1412.0671
   466.32         1420.8565
   466.46         1427.3890
   466.60         1432.0799
   466.74         1435.4268
   466.88         1437.7995
   467.02         1439.3525
   467.16         1440.0463
   467.30         1439.8521
   467.44         1438.9725
   467.58         1437.7946
   467.72         1436.7175
   467.86         1435.9104
   468.00         1435.1659
   468.14         1434.1825
   468.28         1432.7602
   468.42         1430.7007
   468.56         1427.9095
   468.70         1424.5716
   468.84         1420.9379
   468.98         1417.0582
   469.12         1412.9135
   469.26         1408.6108
   469.40         1404.3804
   469.54         1400.4628
   469.68         1397.0211
   469.82         1394.0472
   469.96         1391.3477
   470.10         1388.6900
   470.24         1385.8889
   470.38         1382.8662
   470.52         1379.7219
   470.66         1376.6808
   470.80         1373.9671
   470.94         1371.6676
   471.08         1369.7482
   471.22         1368.2181
   471.36         1367.1047
   471.50         1366.3212
   471.64         1365.8121
   471.78         1365.7130
   471.92         1366.1583
   472.06         1367.0311
   472.20         1367.9082
   472.34         1368.2828
   472.48         1367.8466
   472.62         1366.6007
   472.76         1364.7968
   472.90         1362.7608
   473.04         1360.8191
   473.18         1359.2475
   473.32         1358.1436
   473.46         1357.4221
   473.60         1356.9651
   473.74         1356.6804
   473.88         1356.5469
   474.02         1356.6732
   474.16         1357.1862
   474.30         1358.1019
   474.44         1359.2181
   474.58         1360.2151
   474.72         1360.8264
   474.86         1360.8551
   475.00         1360.2471
   475.14         1359.0177
   475.28         1357.1675
   475.42         1354.6646
   475.56         1351.5045
   475.70         1347.8080
   475.84         1343.6555
   475.98         1339.1379
   476.12         1334.5358
   476.26         1330.2336
   476.40         1326.5791
   476.54         1323.8786
   476.68         1322.3524
   476.82         1322.0471
   476.96         1322.8825
   477.10         1324.6690
   477.24         1327.0631
   477.38         1329.6248
   477.52         1332.0469
   477.66         1334.3005
   477.80         1336.4318
   477.94         1338.3396
   478.08         1339.8276
   478.22         1340.8112
   478.36         1341.3630
   478.50         1341.5440
   478.64         1341.4319
   478.78         1341.0695
   478.92         1340.3015
   479.06         1338.8726
   479.20         1336.6559
   479.34         1333.7803
   479.48         1330.5543
   479.62         1327.2496
   479.76         1324.0648
   479.90         1321.2848
   480.04         1319.3285
   480.18         1318.5710
   480.32         1319.0766
   480.46         1320.5488
   480.60         1322.5422
   480.74         1324.6588
   480.88         1326.5421
   481.02         1327.8902
   481.16         1328.5026
   481.30         1328.2681
   481.44         1327.1680
   481.58         1325.2952
   481.72         1322.8405
   481.86         1320.1591
   482.00         1317.7215
   482.14         1315.8374
   482.28         1314.6250
   482.42         1314.1908
   482.56         1314.6385
   482.70         1315.9658
   482.84         1318.0552
   482.98         1320.7582
   483.12         1323.9499
   483.26         1327.4793
   483.40         1331.2016
   483.54         1335.0706
   483.68         1339.0526
   483.82         1342.9878
   483.96         1346.6086
   484.10         1349.6191
   484.24         1351.6416
   484.38         1352.1966
   484.52         1350.9239
   484.66         1347.7253
   484.80         1342.8505
   484.94         1336.9746
   485.08         1330.9349
   485.22         1325.3836
   485.36         1320.7321
   485.50         1317.2447
   485.64         1315.0768
   485.78         1314.2229
   485.92         1314.4949
   486.06         1315.5799
   486.20         1316.9899
   486.34         1318.0925
   486.48         1318.2732
   486.62         1316.9956
   486.76         1313.8342
   486.90         1308.5648
   487.04         1301.3460
   487.18         1292.7792
   487.32         1283.7446
   487.46         1275.1192
   487.60         1267.4610
   487.74         1260.9445
   487.88         1255.6106
   488.02         1251.5996
   488.16         1249.1009
   488.30         1248.2075
   488.44         1248.8772
   488.58         1250.9292
   488.72         1254.0674
   488.86         1257.9674
   489.00         1262.3576
   489.14         1266.9208
   489.28         1271.2544
   489.42         1275.0002
   489.56         1277.9262
   489.70         1279.9490
   489.84         1281.1106
   489.98         1281.5517
   490.12         1281.4664
   490.26         1281.0443
   490.40         1280.4539
   490.54         1279.7970
   490.68         1278.9936
   490.82         1277.7136
   490.96         1275.5048
   491.10         1272.0304
   491.24         1267.2364
   491.38         1261.3890
   491.52         1255.0067
   491.66         1248.6972
   491.80         1243.0610
   491.94         1238.6864
   492.08         1236.0629
   492.22         1235.4888
   492.36         1237.0694
   492.50         1240.7404
   492.64         1246.1988
   492.78         1252.8441
   492.92         1259.9086
   493.06         1266.6198
   493.20         1272.3208
   493.34         1276.5882
   493.48         1279.3615
   493.62         1280.9590
   493.76         1281.8925
   493.90         1282.6261
   494.04         1283.3987
   494.18         1284.1934
   494.32         1284.8175
   494.46         1285.0141
   494.60         1284.5045
   494.74         1283.0352
   494.88         1280.4807
   495.02         1276.8735
   495.16         1272.3487
   495.30         1267.0629
   495.44         1261.2081
   495.58         1255.0712
   495.72         1248.9835
   495.86         1243.2841
   496.00         1238.2715
   496.14         1234.1304
   496.28         1230.8991
   496.42         1228.5147
   496.56         1226.9119
   496.70         1226.0518
   496.84         1225.9013
   496.98         1226.4163
   497.12         1227.5072
   497.26         1229.0037
   497.40         1230.7420
   497.54         1232.6207
   497.68         1234.5095
   497.82         1236.2163
   497.96         1237.5422
   498.10         1238.3476
   498.24         1238.6174
   498.38         1238.4669
   498.52         1238.0261
   498.66         1237.3086
   498.80         1236.1204
   498.94         1234.0614
   499.08         1230.8047
   499.22         1226.2921
   499.36         1220.6938
   499.50         1214.3472
   499.64         1207.6558
   499.78         1200.9859
   499.92         1194.6453
   500.06         1188.9096
   500.20         1183.9463
   500.34         1179.7811
   500.48         1176.4302
   500.62         1173.9794
   500.76         1172.5095
   500.90         1172.0248
   501.04         1172.4383
   501.18         1173.5601
   501.32         1175.1533
   501.46         1177.0129
   501.60         1179.0792
   501.74         1181.4559
   501.88         1184.1747
   502.02         1187.1284
   502.16         1190.1258
   502.30         1192.8588
   502.44         1194.9792
   502.58         1196.2696
   502.72         1196.7431
   502.86         1196.5175
   503.00         1195.6710
   503.14         1194.2351
   503.28         1192.1766
   503.42         1189.3716
   503.56         1185.6909
   503.70         1181.1300
   503.84         1175.8321
   503.98         1170.0293
   504.12         1164.0353
   504.26         1158.2654
   504.40         1153.1889
   504.54         1149.2711
   504.68         1146.8734
   504.82         1146.0982
   504.96         1146.7867
   505.10         1148.6438
   505.24         1151.3139
   505.38         1154.3571
   505.52         1157.2577
   505.66         1159.5726
   505.80         1161.0680
   505.94         1161.7075
   506.08         1161.5730
   506.22         1160.8538
   506.36         1159.8039
   506.50         1158.6312
   506.64         1157.4482
   506.78         1156.3044
   506.92         1155.2337
   507.06         1154.2502
   507.20         1153.3058
   507.34         1152.2752
   507.48         1151.0317
   507.62         1149.5355
   507.76         1147.8571
   507.90         1146.1659
   508.04         1144.6835
   508.18         1143.6163
   508.32         1143.0835
   508.46         1143.0979
   508.60         1143.5849
   508.74         1144.3867
   508.88         1145.3047
   509.02         1146.1195
   509.16         1146.6216
   509.30         1146.6590
   509.44         1146.1352
   509.58         1145.0206
   509.72         1143.3412
   509.86         1141.1364
   510.00         1138.4803
   510.14         1135.5373
   510.28         1132.5540
   510.42         1129.7856
   510.56         1127.4151
   510.70         1125.5276
   510.84         1124.1416
   510.98         1123.1944
   511.12         1122.5512
   511.26         1122.0401
   511.40         1121.4932
   511.54         1120.8148
   511.68         1119.9857
   511.82         1119.0381
   511.96         1118.0354
   512.10         1117.0512
   512.24         1116.1722
   512.38         1115.4696
   512.52         1114.9217
   512.66         1114.4451
   512.80         1113.9714
   512.94         1113.4296
   513.08         1112.7307
   513.22         1111.7890
   513.36         1110.5449
   513.50         1108.9709
   513.64         1107.0816
   513.78         1104.9642
   513.92         1102.7449
   514.06         1100.5360
   514.20         1098.4117
   514.34         1096.3987
   514.48         1094.4985
   514.62         1092.6914
   514.76         1090.9145
   514.90         1089.0775
   515.04         1087.0958
   515.18         1084.9139
   515.32         1082.5764
   515.46         1080.2168
   515.60         1077.9730
   515.74         1075.9863
   515.88         1074.4048
   516.02         1073.3441
   516.16         1072.8761
   516.30         1073.0272
   516.44         1073.7164
   516.58         1074.7564
   516.72         1075.9206
   516.86         1076.9971
   517.00         1077.8023
   517.14         1078.1815
   517.28         1078.0436
   517.42         1077.3925
   517.56         1076.3481
   517.70         1075.1106
   517.84         1073.8769
   517.98         1072.7874
   518.12         1071.9194
   518.26         1071.2943
   518.40         1070.9119
   518.54         1070.7560
   518.68         1070.7757
   518.82         1070.8883
   518.96         1070.9433
   519.10         1070.7445
   519.24         1070.1620
   519.38         1069.1648
   519.52         1067.7550
   519.66         1065.9433
   519.80         1063.7946
   519.94         1061.4262
   520.08         1058.9549
   520.22         1056.4758
   520.36         1054.0382
   520.50         1051.6507
   520.64         1049.3365
   520.78         1047.1632
   520.92         1045.2161
   521.06         1043.5538
   521.20         1042.1677
   521.34         1041.0025
   521.48         1039.9839
   521.62         1039.0305
   521.76         1038.1157
   521.90         1037.2606
   522.04         1036.4631
   522.18         1035.6889
   522.32         1034.9059
   522.46         1034.1004
   522.60         1033.2972
   522.74         1032.5458
   522.88         1031.8803
   523.02         1031.2952
   523.16         1030.7520
   523.30         1030.2161
   523.44         1029.6369
   523.58         1028.9245
   523.72         1027.9771
   523.86         1026.7531
   524.00         1025.2619
   524.14         1023.5200
   524.28         1021.5706
   524.42         1019.4968
   524.56         1017.3989
   524.70         1015.3622
   524.84         1013.4418
   524.98         1011.6595
   525.12         1010.0099
   525.26         1008.4762
   525.40         1007.0056
   525.54         1005.5051
   525.68         1003.8923
   525.82         1002.1461
   525.96         1000.3161
   526.10         998.4794
   526.24         996.7237
   526.38         995.1522
   526.52         993.8610
   526.66         992.8838
   526.80         992.2105
   526.94         991.8222
   527.08         991.6478
   527.22         991.5542
   527.36         991.3958
   527.50         991.0520
   527.64         990.4536
   527.78         989.5905
   527.92         988.5086
   528.06         987.2890
   528.20         986.0091
   528.34         984.7423
   528.48         983.5565
   528.62         982.4635
   528.76         981.4221
   528.90         980.3929
   529.04         979.3525
   529.18         978.2795
   529.32         977.1630
   529.46         976.0405
   529.60         975.0052
   529.74         974.1712
   529.88         973.6538
   530.02         973.5391
   530.16         973.8358
   530.30         974.4608
   530.44         975.2495
   530.58         976.0057
   530.72         976.5541
   530.86         976.7386
   531.00         976.4319
   531.14         975.5766
   531.28         974.1894
   531.42         972.3372
   531.56         970.1254
   531.70         967.6769
   531.84         965.1195
   531.98         962.5952
   532.12         960.2422
   532.26         958.1558
   532.40         956.3697
   532.54         954.8495
   532.68         953.4915
   532.82         952.1655
   532.96         950.7665
   533.10         949.2337
   533.24         947.5557
   533.38         945.7499
   533.52         943.8410
   533.66         941.8714
   533.80         939.9178
   533.94         938.0559
   534.08         936.3332
   534.22         934.8064
   534.36         933.5230
   534.50         932.4669
   534.64         931.5650
   534.78         930.7121
   534.92         929.7899
   535.06         928.6876
   535.20         927.3240
   535.34         925.6732
   535.48         923.7746
   535.62         921.7063
   535.76         919.5477
   535.90         917.3618
   536.04         915.2060
   536.18         913.1441
   536.32         911.2398
   536.46         909.5576
   536.60         908.1489
   536.74         907.0301
   536.88         906.1633
   537.02         905.4509
   537.16         904.7986
   537.30         904.1799
   537.44         903.6293
   537.58         903.2077
   537.72         902.9728
   537.86         902.9635
   538.00         903.1729
   538.14         903.5215
   538.28         903.8665
   538.42         904.0567
   538.56         903.9810
   538.70         903.5900
   538.84         902.8960
   538.98         901.9359
   539.12         900.7501
   539.26         899.3905
   539.40         897.9132
   539.54         896.3793
   539.68         894.8763
   539.82         893.5302
   539.96         892.4502
   540.10         891.6804
   540.24         891.2026
   540.38         890.9214
   540.52         890.6674
   540.66         890.2165
   540.80         889.3581
   540.94         887.9925
   541.08         886.1461
   541.22         883.9063
   541.36         881.3960
   541.50         878.7847
   541.64         876.2460
   541.78         873.9271
   541.92         871.9393
   542.06         870.3356
   542.20         869.1214
   542.34         868.2705
   542.48         867.7391
   542.62         867.4668
   542.76         867.3626
   542.90         867.2978
   543.04         867.1111
   543.18         866.6488
   543.32         865.8119
   543.46         864.5664
   543.60         862.9184
   543.74         860.8705
   543.88         858.4207
   544.02         855.5915
   544.16         852.4301
   544.30         848.9981
   544.44         845.3841
   544.58         841.7189
   544.72         838.1861
   544.86         835.0113
   545.00         832.4099
   545.14         830.5432
   545.28         829.4706
   545.42         829.1237
   545.56         829.3740
   545.70         830.0922
   545.84         831.1358
   545.98         832.3538
   546.12         833.6099
   546.26         834.8023
   546.40         835.8605
   546.54         836.7335
   546.68         837.3916
   546.82         837.8264
   546.96         838.0521
   547.10         838.0918
   547.24         837.9429
   547.38         837.5641
   547.52         836.9004
   547.66         835.8977
   547.80         834.5164
   547.94         832.7627
   548.08         830.7195
   548.22         828.5328
   548.36         826.3371
   548.50         824.2230
   548.64         822.2900
   548.78         820.6594
   548.92         819.4319
   549.06         818.6646
   549.20         818.3446
   549.34         818.3910
   549.48         818.6752
   549.62         819.0274
   549.76         819.2607
   549.90         819.2188
   550.04         818.8271
   550.18         818.0995
   550.32         817.0936
   550.46         815.8877
   550.60         814.5842
   550.74         813.2778
   550.88         812.0137
   551.02         810.8031
   551.16         809.6629
   551.30         808.6203
   551.44         807.6731
   551.58         806.7741
   551.72         805.8512
   551.86         804.8197
   552.00         803.6177
   552.14         802.2376
   552.28         800.7257
   552.42         799.1544
   552.56         797.5902
   552.70         796.0744
   552.84         794.6226
   552.98         793.2466
   553.12         791.9659
   553.26         790.7928
   553.40         789.7180
   553.54         788.7347
   553.68         787.8675
   553.82         787.1617
   553.96         786.6486
   554.10         786.3227
   554.24         786.1533
   554.38         786.1099
   554.52         786.1678
   554.66         786.2998
   554.80         786.4783
   554.94         786.6529
   555.08         786.7444
   555.22         786.7027
   555.36         786.5243
   555.50         786.2303
   555.64         785.8499
   555.78         785.3985
   555.92         784.8623
   556.06         784.2151
   556.20         783.4474
   556.34         782.5631
   556.48         781.5736
   556.62         780.5063
   556.76         779.4028
   556.90         778.3101
   557.04         777.2734
   557.18         776.3304
   557.32         775.5004
   557.46         774.8010
   557.60         774.2586
   557.74         773.8955
   557.88         773.7147
   558.02         773.6814
   558.16         773.7153
   558.30         773.7123
   558.44         773.5805
   558.58         773.2752
   558.72         772.8137
   558.86         772.2486
   559.00         771.6300
   559.14         770.9995
   559.28         770.3788
   559.42         769.7511
   559.56         769.0736
   559.70         768.3184
   559.84         767.4812
   559.98         766.5445
   560.12         765.4649
   560.26         764.2062
   560.40         762.7609
   560.54         761.1535
   560.68         759.4423
   560.82         757.7007
   560.96         756.0266
   561.10         754.5437
   561.24         753.3529
   561.38         752.4971
   561.52         751.9540
   561.66         751.6563
   561.80         751.5143
   561.94         751.4164
   562.08         751.2531
   562.22         750.9588
   562.36         750.5282
   562.50         749.9770
   562.64         749.3103
   562.78         748.5540
   562.92         747.7753
   563.06         747.0595
   563.20         746.4670
   563.34         746.0055
   563.48         745.6492
   563.62         745.3865
   563.76         745.2144
   563.90         745.1001
   564.04         744.9877
   564.18         744.8298
   564.32         744.6105
   564.46         744.3310
   564.60         743.9797
   564.74         743.5442
   564.88         743.0265
   565.02         742.4307
   565.16         741.7263
   565.30         740.8393
   565.44         739.6639
   565.58         738.0935
   565.72         736.0875
   565.86         733.6857
   566.00         730.9974
   566.14         728.1879
   566.28         725.4261
   566.42         722.8232
   566.56         720.3994
   566.70         718.0853
   566.84         715.7849
   566.98         713.4789
   567.12         711.2287
   567.26         709.1241
   567.40         707.2647
   567.54         705.7448
   567.68         704.6402
   567.82         703.9945
   567.96         703.8237
   568.10         704.1276
   568.24         704.8777
   568.38         705.9761
   568.52         707.2203
   568.66         708.3461
   568.80         709.1179
   568.94         709.3754
   569.08         709.0376
   569.22         708.0963
   569.36         706.6157
   569.50         704.7508
   569.64         702.7239
   569.78         700.7118
   569.92         698.7993
   570.06         697.0389
   570.20         695.4968
   570.34         694.2412
   570.48         693.2955
   570.62         692.6285
   570.76         692.1843
   570.90         691.9112
   571.04         691.7719
   571.18         691.7516
   571.32         691.8611
   571.46         692.1111
   571.60         692.4722
   571.74         692.8788
   571.88         693.2667
   572.02         693.5998
   572.16         693.8860
   572.30         694.1510
   572.44         694.3768
   572.58         694.4541
   572.72         694.1901
   572.86         693.3752
   573.00         691.8580
   573.14         689.5978
   573.28         686.6919
   573.42         683.3579
   573.56         679.8638
   573.70         676.4863
   573.84         673.5200
   573.98         671.2632
   574.12         669.9641
   574.26         669.7553
   574.40         670.6213
   574.54         672.4098
   574.68         674.8641
   574.82         677.6641
   574.96         680.4446
   575.10         682.8294
   575.24         684.4990
   575.38         685.2647
   575.52         685.1171
   575.66         684.1723
   575.80         682.5777
   575.94         680.4730
   576.08         677.9817
   576.22         675.2084
   576.36         672.2446
   576.50         669.1453
   576.64         665.8616
   576.78         662.1966
   576.92         657.8780
   577.06         652.7427
   577.20         646.8566
   577.34         640.4890
   577.48         634.0194
   577.62         627.8617
   577.76         622.4382
   577.90         618.1518
   578.04         615.3265
   578.18         614.1458
   578.32         614.5928
   578.46         616.4536
   578.60         619.3895
   578.74         622.9997
   578.88         626.8693
   579.02         630.6247
   579.16         633.9624
   579.30         636.6687
   579.44         638.6694
   579.58         640.0855
   579.72         641.1876
   579.86         642.2435
   580.00         643.4062
   580.14         644.7178
   580.28         646.1725
   580.42         647.7447
   580.56         649.3823
   580.70         651.0147
   580.84         652.5740
   580.98         654.0050
   581.12         655.2832
   581.26         656.4206
   581.40         657.4371
   581.54         658.3470
   581.68         659.1514
   581.82         659.8252
   581.96         660.3331
   582.10         660.6758
   582.24         660.9129
   582.38         661.1282
   582.52         661.3828
   582.66         661.7091
   582.80         662.1182
   582.94         662.5776
   583.08         662.9979
   583.22         663.2610
   583.36         663.2541
   583.50         662.8810
   583.64         662.0645
   583.78         660.7788
   583.92         659.0911
   584.06         657.1519
   584.20         655.1522
   584.34         653.2922
   584.48         651.7503
   584.62         650.6570
   584.76         650.0882
   584.90         650.0467
   585.04         650.4658
   585.18         651.2490
   585.32         652.2992
   585.46         653.5138
   585.60         654.7492
   585.74         655.8000
   585.88         656.3809
   586.02         656.1239
   586.16         654.6553
   586.30         651.8158
   586.44         647.7881
   586.58         642.9841
   586.72         637.8890
   586.86         632.9890
   587.00         628.7408
   587.14         625.5081
   587.28         623.5021
   587.42         622.7144
   587.56         622.8289
   587.70         623.2003
   587.84         623.1432
   587.98         622.1920
   588.12         619.9838
   588.26         616.1226
   588.40         610.3240
   588.54         602.7579
   588.68         594.1500
   588.82         585.5898
   588.96         578.2816
   589.10         573.2254
   589.24         571.0176
   589.38         571.8620
   589.52         575.6124
   589.66         581.8267
   589.80         589.8316
   589.94         598.8069
   590.08         607.8797
   590.22         616.2526
   590.36         623.3748
   590.50         629.0666
   590.64         633.3208
   590.78         636.1119
   590.92         637.5264
   591.06         637.8720
   591.20         637.5807
   591.34         636.9550
   591.48         636.0989
   591.62         635.0365
   591.76         633.7838
   591.90         632.3680
   592.04         630.8369
   592.18         629.2758
   592.32         627.7966
   592.46         626.4904
   592.60         625.3844
   592.74         624.4190
   592.88         623.4840
   593.02         622.4925
   593.16         621.3946
   593.30         620.1595
   593.44         618.7663
   593.58         617.1943
   593.72         615.4614
   593.86         613.6770
   594.00         612.0379
   594.14         610.7540
   594.28         609.9605
   594.42         609.6958
   594.56         609.9168
   594.70         610.5311
   594.84         611.3972
   594.98         612.3009
   595.12         612.9976
   595.26         613.2684
   595.40         612.9567
   595.54         611.9948
   595.68         610.4110
   595.82         608.2972
   595.96         605.7848
   596.10         603.0404
   596.24         600.2497
   596.38         597.5947
   596.52         595.2436
   596.66         593.3409
   596.80         591.9534
   596.94         591.0453
   597.08         590.5357
   597.22         590.3424
   597.36         590.3686
   597.50         590.4877
   597.64         590.5642
   597.78         590.4849
   597.92         590.1768
   598.06         589.6211
   598.20         588.8644
   598.34         588.0020
   598.48         587.1387
   598.62         586.3703
   598.76         585.7824
   598.90         585.4331
   599.04         585.3255
   599.18         585.3985
   599.32         585.5394
   599.46         585.6087
   599.60         585.4691
   599.74         585.0382
   599.88         584.2910
   600.02         583.2468
   600.16         581.9928
   600.30         580.6413
   600.44         579.2782
   600.58         577.9677
   600.72         576.7807
   600.86         575.7882
   601.00         575.0215
   601.14         574.4759
   601.28         574.1161
   601.42         573.8403
   601.56         573.5225
   601.70         573.0912
   601.84         572.5376
   601.98         571.9231
   602.12         571.3340
   602.26         570.8055
   602.40         570.3410
   602.54         569.9373
   602.68         569.5900
   602.82         569.2837
   602.96         568.9788
   603.10         568.6494
   603.24         568.3084
   603.38         568.0012
   603.52         567.7594
   603.66         567.5735
   603.80         567.4249
   603.94         567.3025
   604.08         567.2026
   604.22         567.1512
   604.36         567.1728
   604.50         567.2549
   604.64         567.3668
   604.78         567.4602
   604.92         567.4830
   605.06         567.4185
   605.20         567.2699
   605.34         567.0296
   605.48         566.6802
   605.62         566.2152
   605.76         565.6585
   605.90         565.0573
   606.04         564.4660
   606.18         563.9272
   606.32         563.4625
   606.46         563.0826
   606.60         562.7790
   606.74         562.5046
   606.88         562.1950
   607.02         561.8127
   607.16         561.3548
   607.30         560.8325
   607.44         560.2658
   607.58         559.6796
   607.72         559.1076
   607.86         558.6022
   608.00         558.2326
   608.14         558.0713
   608.28         558.1629
   608.42         558.5011
   608.56         559.0179
   608.70         559.5889
   608.84         560.0732
   608.98         560.3560
   609.12         560.3776
   609.26         560.1312
   609.40         559.6466
   609.54         559.0067
   609.68         558.3176
   609.82         557.6467
   609.96         557.0194
   610.10         556.4418
   610.24         555.9121
   610.38         555.4244
   610.52         554.9686
   610.66         554.5208
   610.80         554.0421
   610.94         553.4878
   611.08         552.8206
   611.22         552.0169
   611.36         551.0796
   611.50         550.0508
   611.64         548.9928
   611.78         547.9617
   611.92         546.9852
   612.06         546.0704
   612.20         545.2224
   612.34         544.4108
   612.48         543.5718
   612.62         542.6799
   612.76         541.7793
   612.90         540.9274
   613.04         540.1463
   613.18         539.4316
   613.32         538.7662
   613.46         538.1425
   613.60         537.5917
   613.74         537.1812
   613.88         536.9848
   614.02         537.0649
   614.16         537.4636
   614.30         538.1794
   614.44         539.1693
   614.58         540.3776
   614.72         541.7434
   614.86         543.1976
   615.00         544.6571
   615.14         546.0383
   615.28         547.2680
   615.42         548.2450
   615.56         548.8205
   615.70         548.8520
   615.84         548.2425
   615.98         546.9484
   616.12         545.0103
   616.26         542.5588
   616.40         539.7554
   616.54         536.7615
   616.68         533.7443
   616.82         530.8660
   616.96         528.2636
   617.10         526.0424
   617.24         524.2798
   617.38         523.0022
   617.52         522.1814
   617.66         521.7487
   617.80         521.6098
   617.94         521.6682
   618.08         521.8254
   618.22         521.9901
   618.36         522.0956
   618.50         522.1188
   618.64         522.1037
   618.78         522.1299
   618.92         522.2383
   619.06         522.3874
   619.20         522.5009
   619.34         522.5225
   619.48         522.4300
   619.62         522.2487
   619.76         522.0394
   619.90         521.8701
   620.04         521.7788
   620.18         521.7769
   620.32         521.8858
   620.46         522.1330
   620.60         522.5192
   620.74         523.0058
   620.88         523.5496
   621.02         524.1262
   621.16         524.7182
   621.30         525.2792
   621.44         525.7152
   621.58         525.9322
   621.72         525.9011
   621.86         525.6722
   622.00         525.3270
   622.14         524.9175
   622.28         524.4706
   622.42         524.0038
   622.56         523.5092
   622.70         522.9712
   622.84         522.4031
   622.98         521.8722
   623.12         521.4546
   623.26         521.1901
   623.40         521.1107
   623.54         521.2564
   623.68         521.6600
   623.82         522.3266
   623.96         523.2176
   624.10         524.2705
   624.24         525.4253
   624.38         526.6154
   624.52         527.7532
   624.66         528.7623
   624.80         529.5970
   624.94         530.2094
   625.08         530.4933
   625.22         530.2801
   625.36         529.4364
   625.50         527.9513
   625.64         525.9046
   625.78         523.3690
   625.92         520.4094
   626.06         517.1401
   626.20         513.7175
   626.34         510.3094
   626.48         507.0453
   626.62         503.9561
   626.76         500.9871
   626.90         498.0307
   627.04         494.9199
   627.18         491.4541
   627.32         487.4580
   627.46         482.8499
   627.60         477.6916
   627.74         472.2156
   627.88         466.8336
   628.02         462.0804
   628.16         458.4940
   628.30         456.4868
   628.44         456.3109
   628.58         458.0809
   628.72         461.7511
   628.86         467.0904
   629.00         473.6843
   629.14         480.9664
   629.28         488.2995
   629.42         495.0911
   629.56         500.8676
   629.70         505.3076
   629.84         508.2802
   629.98         509.8543
   630.12         510.2636
   630.26         509.8016
   630.40         508.7389
   630.54         507.3276
   630.68         505.8098
   630.82         504.3909
   630.96         503.2091
   631.10         502.3342
   631.24         501.7890
   631.38         501.5647
   631.52         501.6229
   631.66         501.8908
   631.80         502.2780
   631.94         502.7011
   632.08         503.1146
   632.22         503.5369
   632.36         504.0239
   632.50         504.6150
   632.64         505.3192
   632.78         506.1169
   632.92         506.9465
   633.06         507.7209
   633.20         508.3682
   633.34         508.8505
   633.48         509.1504
   633.62         509.2651
   633.76         509.2079
   633.90         508.9865
   634.04         508.5826
   634.18         507.9739
   634.32         507.1615
   634.46         506.1680
   634.60         505.0355
   634.74         503.8313
   634.88         502.6296
   635.02         501.4718
   635.16         500.3639
   635.30         499.3139
   635.44         498.3311
   635.58         497.4103
   635.72         496.5553
   635.86         495.8014
   636.00         495.2010
   636.14         494.7865
   636.28         494.5382
   636.42         494.3858
   636.56         494.2405
   636.70         494.0270
   636.84         493.6917
   636.98         493.1962
   637.12         492.5237
   637.26         491.6935
   637.40         490.7752
   637.54         489.8690
   637.68         489.0639
   637.82         488.4457
   637.96         488.1179
   638.10         488.1732
   638.24         488.6546
   638.38         489.5532
   638.52         490.8098
   638.66         492.3094
   638.80         493.8839
   638.94         495.3201
   639.08         496.4148
   639.22         497.0395
   639.36         497.1501
   639.50         496.7849
   639.64         496.0407
   639.78         495.0316
   639.92         493.8760
   640.06         492.6856
   640.20         491.5357
   640.34         490.4671
   640.48         489.5098
   640.62         488.6790
   640.76         487.9604
   640.90         487.3275
   641.04         486.7723
   641.18         486.3055
   641.32         485.9380
   641.46         485.6672
   641.60         485.4813
   641.74         485.3818
   641.88         485.3784
   642.02         485.4677
   642.16         485.6403
   642.30         485.8820
   642.44         486.1765
   642.58         486.5192
   642.72         486.8976
   642.86         487.2799
   643.00         487.6202
   643.14         487.8591
   643.28         487.9344
   643.42         487.7978
   643.56         487.4175
   643.70         486.7758
   643.84         485.8856
   643.98         484.7913
   644.12         483.5535
   644.26         482.2421
   644.40         480.9318
   644.54         479.7035
   644.68         478.6432
   644.82         477.8293
   644.96         477.3016
   645.10         477.0313
   645.24         476.9369
   645.38         476.9292
   645.52         476.9507
   645.66         476.9870
   645.80         477.0540
   645.94         477.1825
   646.08         477.4177
   646.22         477.7919
   646.36         478.2860
   646.50         478.8420
   646.64         479.3816
   646.78         479.8224
   646.92         480.0988
   647.06         480.1730
   647.20         480.0425
   647.34         479.7306
   647.48         479.2739
   647.62         478.7127
   647.76         478.0801
   647.90         477.4154
   648.04         476.7751
   648.18         476.2019
   648.32         475.7137
   648.46         475.3242
   648.60         475.0513
   648.74         474.9077
   648.88         474.8886
   649.02         474.9859
   649.16         475.2170
   649.30         475.6134
   649.44         476.1900
   649.58         476.9594
   649.72         477.9320
   649.86         479.0828
   650.00         480.3398
   650.14         481.5993
   650.28         482.7575
   650.42         483.7273
   650.56         484.4492
   650.70         484.9098
   650.84         485.1365
   650.98         485.1891
   651.12         485.1487
   651.26         485.0980
   651.40         485.0961
   651.54         485.1720
   651.68         485.3340
   651.82         485.5792
   651.96         485.8804
   652.10         486.1808
   652.24         486.4222
   652.38         486.5384
   652.52         486.4606
   652.66         486.1777
   652.80         485.7641
   652.94         485.3376
   653.08         485.0073
   653.22         484.8642
   653.36         484.9879
   653.50         485.4310
   653.64         486.2104
   653.78         487.3148
   653.92         488.6967
   654.06         490.2632
   654.20         491.9236
   654.34         493.6387
   654.48         495.4330
   654.62         497.4737
   654.76         500.2848
   654.90         504.8763
   655.04         512.5171
   655.18         524.2465
   655.32         540.3913
   655.46         560.3881
   655.60         582.9062
   655.74         606.0952
   655.88         627.8863
   656.02         646.2697
   656.16         659.5135
   656.30         666.3429
   656.44         666.0899
   656.58         658.7756
   656.72         645.1010
   656.86         626.3788
   657.00         604.4003
   657.14         581.2397
   657.28         559.0101
   657.42         539.5561
   657.56         524.0690
   657.70         512.7956
   657.84         505.1105
   657.98         499.9488
   658.12         496.3135
   658.26         493.4945
   658.40         491.0542
   658.54         488.7933
   658.68         486.6799
   658.82         484.7696
   658.96         483.1505
   659.10         481.9015
   659.24         481.0565
   659.38         480.5920
   659.52         480.4458
   659.66         480.5363
   659.80         480.7433
   659.94         480.8839
   660.08         480.7482
   660.22         480.1735
   660.36         479.0949
   660.50         477.5428
   660.64         475.6287
   660.78         473.5236
   660.92         471.4240
   661.06         469.5221
   661.20         467.9723
   661.34         466.8747
   661.48         466.2681
   661.62         466.1360
   661.76         466.4236
   661.90         467.0445
   662.04         467.8690
   662.18         468.7306
   662.32         469.4531
   662.46         469.8650
   662.60         469.8191
   662.74         469.2463
   662.88         468.1737
   663.02         466.6774
   663.16         464.8380
   663.30         462.7448
   663.44         460.5060
   663.58         458.2330
   663.72         456.0257
   663.86         453.9824
   664.00         452.2101
   664.14         450.7989
   664.28         449.7966
   664.42         449.1863
   664.56         448.8919
   664.70         448.8173
   664.84         448.8753
   664.98         448.9830
   665.12         449.0625
   665.26         449.0647
   665.40         448.9819
   665.54         448.8425
   665.68         448.6987
   665.82         448.6051
   665.96         448.5725
   666.10         448.5264
   666.24         448.3057
   666.38         447.6944
   666.52         446.5104
   666.66         444.6878
   666.80         442.2870
   666.94         439.4701
   667.08         436.4562
   667.22         433.4957
   667.36         430.8589
   667.50         428.8057
   667.64         427.5619
   667.78         427.3073
   667.92         428.1290
   668.06         429.9730
   668.20         432.6504
   668.34         435.8772
   668.48         439.2930
   668.62         442.4869
   668.76         445.0937
   668.90         446.8935
   669.04         447.8393
   669.18         448.0320
   669.32         447.6438
   669.46         446.8365
   669.60         445.7393
   669.74         444.4606
   669.88         443.1101
   670.02         441.8086
   670.16         440.6692
   670.30         439.7739
   670.44         439.1598
   670.58         438.8018
   670.72         438.6183
   670.86         438.5147
   671.00         438.4203
   671.14         438.2864
   671.28         438.0863
   671.42         437.8288
   671.56         437.5303
   671.70         437.1811
   671.84         436.7638
   671.98         436.2898
   672.12         435.7973
   672.26         435.3341
   672.40         434.9494
   672.54         434.6809
   672.68         434.5406
   672.82         434.5057
   672.96         434.5270
   673.10         434.5459
   673.24         434.5212
   673.38         434.4491
   673.52         434.3597
   673.66         434.2856
   673.80         434.2304
   673.94         434.1789
   674.08         434.1258
   674.22         434.0800
   674.36         434.0505
   674.50         434.0462
   674.64         434.0780
   674.78         434.1413
   674.92         434.2116
   675.06         434.2565
   675.20         434.2438
   675.34         434.1487
   675.48         433.9664
   675.62         433.7154
   675.76         433.4228
   675.90         433.1064
   676.04         432.7531
   676.18         432.3181
   676.32         431.7577
   676.46         431.0659
   676.60         430.2805
   676.74         429.4564
   676.88         428.6270
   677.02         427.7913
   677.16         426.9413
   677.30         426.0875
   677.44         425.2598
   677.58         424.5025
   677.72         423.8643
   677.86         423.3832
   678.00         423.0776
   678.14         422.9366
   678.28         422.9218
   678.42         422.9844
   678.56         423.0854
   678.70         423.1989
   678.84         423.3100
   678.98         423.4276
   679.12         423.5778
   679.26         423.7685
   679.40         423.9742
   679.54         424.1619
   679.68         424.3127
   679.82         424.4235
   679.96         424.4964
   680.10         424.5295
   680.24         424.5019
   680.38         424.3689
   680.52         424.0748
   680.66         423.5719
   680.80         422.8322
   680.94         421.8557
   681.08         420.6696
   681.22         419.3203
   681.36         417.8736
   681.50         416.4131
   681.64         415.0230
   681.78         413.7713
   681.92         412.7065
   682.06         411.8707
   682.20         411.3049
   682.34         411.0244
   682.48         411.0022
   682.62         411.1829
   682.76         411.4984
   682.90         411.8660
   683.04         412.2087
   683.18         412.4769
   683.32         412.6411
   683.46         412.6842
   683.60         412.5981
   683.74         412.3979
   683.88         412.1386
   684.02         411.8950
   684.16         411.7171
   684.30         411.6208
   684.44         411.6025
   684.58         411.6385
   684.72         411.6798
   684.86         411.6572
   685.00         411.4906
   685.14         411.1043
   685.28         410.4404
   685.42         409.4125
   685.56         407.8326
   685.70         405.4069
   685.84         401.8100
   685.98         396.7997
   686.12         390.3127
   686.26         382.4911
   686.40         373.6586
   686.54         364.2696
   686.68         354.8623
   686.82         346.0378
   686.96         338.4218
   687.10         332.5867
   687.24         328.9504
   687.38         327.6883
   687.52         328.7113
   687.66         331.6978
   687.80         336.1426
   687.94         341.4166
   688.08         346.8347
   688.22         351.7719
   688.36         355.8025
   688.50         358.7554
   688.64         360.6914
   688.78         361.8097
   688.92         362.3439
   689.06         362.5441
   689.20         362.6654
   689.34         362.9376
   689.48         363.5341
   689.62         364.5230
   689.76         365.8407
   689.90         367.3448
   690.04         368.9008
   690.18         370.4227
   690.32         371.8761
   690.46         373.2623
   690.60         374.5883
   690.74         375.8404
   690.88         377.0053
   691.02         378.0938
   691.16         379.1193
   691.30         380.0842
   691.44         380.9752
   691.58         381.7735
   691.72         382.4706
   691.86         383.0436
   692.00         383.4554
   692.14         383.6840
   692.28         383.7330
   692.42         383.6390
   692.56         383.4815
   692.70         383.3491
   692.84         383.2982
   692.98         383.3704
   693.12         383.6077
   693.26         384.0366
   693.40         384.6585
   693.54         385.4596
   693.68         386.3973
   693.82         387.3889
   693.96         388.3478
   694.10         389.2185
   694.24         389.9673
   694.38         390.5676
   694.52         390.9990
   694.66         391.2565
   694.80         391.3683
   694.94         391.3742
   695.08         391.3088
   695.22         391.2154
   695.36         391.1464
   695.50         391.1626
   695.64         391.3232
   695.78         391.6644
   695.92         392.1892
   696.06         392.8836
   696.20         393.7272
   696.34         394.6829
   696.48         395.7024
   696.62         396.7298
   696.76         397.6855
   696.90         398.4718
   697.04         399.0066
   697.18         399.2402
   697.32         399.1582
   697.46         398.7770
   697.60         398.1294
   697.74         397.2664
   697.88         396.2492
   698.02         395.1342
   698.16         393.9859
   698.30         392.8765
   698.44         391.8783
   698.58         391.0513
   698.72         390.4199
   698.86         389.9633
   699.00         389.6368
   699.14         389.3985
   699.28         389.2058
   699.42         389.0096
   699.56         388.7770
   699.70         388.5117
   699.84         388.2430
   699.98         388.0114
   700.12         387.8603
   700.26         387.8270
   700.40         387.9186
   700.54         388.1161
   700.68         388.4052
   700.82         388.7712
   700.96         389.1918
   701.10         389.6299
   701.24         390.0215
   701.38         390.2860
   701.52         390.3469
   701.66         390.1633
   701.80         389.7456
   701.94         389.1401
   702.08         388.4028
   702.22         387.5998
   702.36         386.8081
   702.50         386.0885
   702.64         385.4726
   702.78         384.9619
   702.92         384.5406
   703.06         384.1995
   703.20         383.9539
   703.34         383.8224
   703.48         383.7979
   703.62         383.8534
   703.76         383.9383
   703.90         383.9905
   704.04         383.9681
   704.18         383.8662
   704.32         383.7169
   704.46         383.5621
   704.60         383.4117
   704.74         383.2305
   704.88         382.9649
   705.02         382.5644
   705.16         381.9925
   705.30         381.2495
   705.44         380.3726
   705.58         379.4244
   705.72         378.4854
   705.86         377.6382
   706.00         376.9478
   706.14         376.4553
   706.28         376.1824
   706.42         376.1465
   706.56         376.3751
   706.70         376.8845
   706.84         377.6586
   706.98         378.6513
   707.12         379.7918
   707.26         380.9753
   707.40         382.0817
   707.54         383.0218
   707.68         383.7533
   707.82         384.2676
   707.96         384.5728
   708.10         384.6740
   708.24         384.5800
   708.38         384.3286
   708.52         383.9817
   708.66         383.5898
   708.80         383.1779
   708.94         382.7689
   709.08         382.3989
   709.22         382.0990
   709.36         381.8696
   709.50         381.6807
   709.64         381.4871
   709.78         381.2480
   709.92         380.9393
   710.06         380.5674
   710.20         380.1707
   710.34         379.7899
   710.48         379.4465
   710.62         379.1602
   710.76         378.9669
   710.90         378.9100
   711.04         379.0099
   711.18         379.2366
   711.32         379.5222
   711.46         379.7987
   711.60         380.0212
   711.74         380.1808
   711.88         380.2903
   712.02         380.3636
   712.16         380.4126
   712.30         380.4515
   712.44         380.4991
   712.58         380.5717
   712.72         380.6841
   712.86         380.8362
   713.00         380.9950
   713.14         381.1161
   713.28         381.1892
   713.42         381.2232
   713.56         381.1969
   713.70         381.0567
   713.84         380.7513
   713.98         380.2767
   714.12         379.6821
   714.26         379.0377
   714.40         378.4243
   714.54         377.9153
   714.68         377.5549
   714.82         377.3521
   714.96         377.2959
   715.10         377.3730
   715.24         377.5646
   715.38         377.8240
   715.52         378.0576
   715.66         378.1470
   715.80         377.9888
   715.94         377.5043
   716.08         376.6251
   716.22         375.3025
   716.36         373.5291
   716.50         371.3513
   716.64         368.8922
   716.78         366.3115
   716.92         363.7331
   717.06         361.2344
   717.20         358.8459
   717.34         356.5371
   717.48         354.2658
   717.62         352.0455
   717.76         349.9263
   717.90         347.9420
   718.04         346.1041
   718.18         344.4457
   718.32         343.0474
   718.46         342.0193
   718.60         341.4577
   718.74         341.3855
   718.88         341.7658
   719.02         342.5495
   719.16         343.6710
   719.30         345.0418
   719.44         346.5516
   719.58         348.1109
   719.72         349.6805
   719.86         351.2649
   720.00         352.9171
   720.14         354.7291
   720.28         356.7833
   720.42         359.1019
   720.56         361.6582
   720.70         364.4095
   720.84         367.2824
   720.98         370.1255
   721.12         372.7175
   721.26         374.8398
   721.40         376.3646
   721.54         377.3241
   721.68         377.8692
   721.82         378.1634
   721.96         378.3487
   722.10         378.5564
   722.24         378.9179
   722.38         379.5236
   722.52         380.3859
   722.66         381.4267
   722.80         382.4659
   722.94         383.2821
   723.08         383.6849
   723.22         383.5291
   723.36         382.7166
   723.50         381.2204
   723.64         379.1166
   723.78         376.5853
   723.92         373.8499
   724.06         371.1110
   724.20         368.5265
   724.34         366.2086
   724.48         364.2239
   724.62         362.6103
   724.76         361.4024
   724.90         360.6080
   725.04         360.1423
   725.18         359.8269
   725.32         359.4743
   725.46         358.9823
   725.60         358.3667
   725.74         357.6903
   725.88         356.9860
   726.02         356.2382
   726.16         355.3935
   726.30         354.3844
   726.44         353.1540
   726.58         351.6713
   726.72         349.9565
   726.86         348.0919
   727.00         346.2091
   727.14         344.4716
   727.28         343.0339
   727.42         341.9965
   727.56         341.3854
   727.70         341.1578
   727.84         341.2263
   727.98         341.5202
   728.12         341.9926
   728.26         342.5667
   728.40         343.1490
   728.54         343.6788
   728.68         344.1211
   728.82         344.4414
   728.96         344.6159
   729.10         344.6323
   729.24         344.4867
   729.38         344.2164
   729.52         343.8970
   729.66         343.6021
   729.80         343.3623
   729.94         343.1392
   730.08         342.8662
   730.22         342.5043
   730.36         342.0653
   730.50         341.6083
   730.64         341.2167
   730.78         340.9495
   730.92         340.8270
   731.06         340.8592
   731.20         341.0373
   731.34         341.3090
   731.48         341.5956
   731.62         341.8286
   731.76         341.9612
   731.90         341.9725
   732.04         341.8512
   732.18         341.5677
   732.32         341.1044
   732.46         340.4835
   732.60         339.7531
   732.74         338.9787
   732.88         338.2273
   733.02         337.5587
   733.16         337.0226
   733.30         336.6593
   733.44         336.4964
   733.58         336.5412
   733.72         336.7704
   733.86         337.1236
   734.00         337.5073
   734.14         337.8186
   734.28         337.9844
   734.42         337.9929
   734.56         337.8798
   734.70         337.6876
   734.84         337.4572
   734.98         337.2320
   735.12         337.0438
   735.26         336.9008
   735.40         336.7924
   735.54         336.6921
   735.68         336.5674
   735.82         336.3974
   735.96         336.1728
   736.10         335.8846
   736.24         335.5130
   736.38         335.0280
   736.52         334.4172
   736.66         333.7007
   736.80         332.9242
   736.94         332.1553
   737.08         331.4645
   737.22         330.8899
   737.36         330.4282
   737.50         330.0585
   737.64         329.7596
   737.78         329.4989
   737.92         329.2341
   738.06         328.9421
   738.20         328.6185
   738.34         328.2691
   738.48         327.8998
   738.62         327.5045
   738.76         327.0770
   738.90         326.6204
   739.04         326.1559
   739.18         325.7161
   739.32         325.3216
   739.46         324.9753
   739.60         324.6592
   739.74         324.3354
   739.88         323.9599
   740.02         323.5042
   740.16         322.9739
   740.30         322.4038
   740.44         321.8358
   740.58         321.3110
   740.72         320.8559
   740.86         320.4729
   741.00         320.1647
   741.14         319.9464
   741.28         319.8324
   741.42         319.8271
   741.56         319.9109
   741.70         320.0438
   741.84         320.1898
   741.98         320.3331
   742.12         320.4774
   742.26         320.6268
   742.40         320.7728
   742.54         320.8956
   742.68         320.9789
   742.82         321.0197
   742.96         321.0197
   743.10         320.9789
   743.24         320.8956
   743.38         320.7728
   743.52         320.6268
   743.66         320.4774
   743.80         320.3331
   743.94         320.1898
   744.08         320.0438
   744.22         319.9109
