# File HD13136
# Wavelength [nm]    Normalized Amplitude
   349.70         7.7124
   349.84         7.5248
   349.98         7.3497
   350.12         7.1588
   350.26         6.9267
   350.40         6.6636
   350.54         6.4051
   350.68         6.1778
   350.82         6.0026
   350.96         5.8980
   351.10         5.8649
   351.24         5.8980
   351.38         6.0026
   351.52         6.1778
   351.66         6.4051
   351.80         6.6636
   351.94         6.9267
   352.08         7.1588
   352.22         7.3497
   352.36         7.5248
   352.50         7.7124
   352.64         7.9226
   352.78         8.1583
   352.92         8.4312
   353.06         8.7469
   353.20         9.0812
   353.34         9.4008
   353.48         9.6898
   353.62         9.9341
   353.76         10.1093
   353.90         10.1984
   354.04         10.1989
   354.18         10.1147
   354.32         9.9554
   354.46         9.7410
   354.60         9.4939
   354.74         9.2381
   354.88         9.0068
   355.02         8.8186
   355.16         8.6589
   355.30         8.5052
   355.44         8.3565
   355.58         8.2245
   355.72         8.1077
   355.86         7.9932
   356.00         7.8736
   356.14         7.7452
   356.28         7.5969
   356.42         7.4232
   356.56         7.2422
   356.70         7.0764
   356.84         6.9265
   356.98         6.7806
   357.12         6.6343
   357.26         6.4903
   357.40         6.3520
   357.54         6.2246
   357.68         6.1004
   357.82         5.9664
   357.96         5.8249
   358.10         5.6868
   358.24         5.5612
   358.38         5.4597
   358.52         5.4043
   358.66         5.4211
   358.80         5.5233
   358.94         5.7036
   359.08         5.9432
   359.22         6.2195
   359.36         6.5033
   359.50         6.7661
   359.64         6.9928
   359.78         7.1810
   359.92         7.3333
   360.06         7.4539
   360.20         7.5460
   360.34         7.6129
   360.48         7.6684
   360.62         7.7316
   360.76         7.8194
   360.90         7.9463
   361.04         8.1181
   361.18         8.3255
   361.32         8.5454
   361.46         8.7542
   361.60         8.9373
   361.74         9.0854
   361.88         9.1902
   362.02         9.2445
   362.16         9.2502
   362.30         9.2199
   362.44         9.1744
   362.58         9.1448
   362.72         9.1661
   362.86         9.2616
   363.00         9.4343
   363.14         9.6692
   363.28         9.9406
   363.42         10.2197
   363.56         10.4782
   363.70         10.6875
   363.84         10.8232
   363.98         10.8656
   364.12         10.8052
   364.26         10.6473
   364.40         10.4106
   364.54         10.1330
   364.68         9.8644
   364.82         9.6464
   364.96         9.5053
   365.10         9.4615
   365.24         9.5224
   365.38         9.6691
   365.52         9.8636
   365.66         10.0672
   365.80         10.2552
   365.94         10.4164
   366.08         10.5486
   366.22         10.6568
   366.36         10.7487
   366.50         10.8292
   366.64         10.8936
   366.78         10.9367
   366.92         10.9622
   367.06         10.9765
   367.20         10.9830
   367.34         10.9738
   367.48         10.9375
   367.62         10.8795
   367.76         10.8167
   367.90         10.7555
   368.04         10.6900
   368.18         10.6142
   368.32         10.5245
   368.46         10.4226
   368.60         10.3238
   368.74         10.2503
   368.88         10.2180
   369.02         10.2272
   369.16         10.2664
   369.30         10.3179
   369.44         10.3632
   369.58         10.3878
   369.72         10.3799
   369.86         10.3363
   370.00         10.2706
   370.14         10.2095
   370.28         10.1763
   370.42         10.1786
   370.56         10.2063
   370.70         10.2383
   370.84         10.2584
   370.98         10.2609
   371.12         10.2510
   371.26         10.2433
   371.40         10.2488
   371.54         10.2577
   371.68         10.2406
   371.82         10.1713
   371.96         10.0394
   372.10         9.8543
   372.24         9.6396
   372.38         9.4179
   372.52         9.2065
   372.66         9.0187
   372.80         8.8589
   372.94         8.7249
   373.08         8.6116
   373.22         8.5091
   373.36         8.4100
   373.50         8.3164
   373.64         8.2328
   373.78         8.1608
   373.92         8.1004
   374.06         8.0453
   374.20         7.9865
   374.34         7.9330
   374.48         7.9130
   374.62         7.9511
   374.76         8.0612
   374.90         8.2476
   375.04         8.5072
   375.18         8.8341
   375.32         9.2143
   375.46         9.6212
   375.60         10.0207
   375.74         10.3820
   375.88         10.6898
   376.02         10.9472
   376.16         11.1618
   376.30         11.3434
   376.44         11.5086
   376.58         11.6769
   376.72         11.8637
   376.86         12.0767
   377.00         12.3119
   377.14         12.5536
   377.28         12.7805
   377.42         12.9751
   377.56         13.1245
   377.70         13.2162
   377.84         13.2433
   377.98         13.2080
   378.12         13.1222
   378.26         13.0044
   378.40         12.8707
   378.54         12.7279
   378.68         12.5745
   378.82         12.4147
   378.96         12.2680
   379.10         12.1629
   379.24         12.1216
   379.38         12.1526
   379.52         12.2508
   379.66         12.4027
   379.80         12.5979
   379.94         12.8276
   380.08         13.0763
   380.22         13.3218
   380.36         13.5388
   380.50         13.7015
   380.64         13.7837
   380.78         13.7609
   380.92         13.6181
   381.06         13.3549
   381.20         12.9858
   381.34         12.5407
   381.48         12.0603
   381.62         11.5828
   381.76         11.1347
   381.90         10.7329
   382.04         10.3900
   382.18         10.1158
   382.32         9.9197
   382.46         9.8066
   382.60         9.7659
   382.74         9.7763
   382.88         9.8243
   383.02         9.9061
   383.16         10.0228
   383.30         10.1787
   383.44         10.3782
   383.58         10.6237
   383.72         10.9110
   383.86         11.2291
   384.00         11.5667
   384.14         11.9127
   384.28         12.2461
   384.42         12.5373
   384.56         12.7616
   384.70         12.9021
   384.84         12.9516
   384.98         12.9170
   385.12         12.8154
   385.26         12.6680
   385.40         12.4994
   385.54         12.3367
   385.68         12.2055
   385.82         12.1292
   385.96         12.1229
   386.10         12.1855
   386.24         12.3019
   386.38         12.4506
   386.52         12.6110
   386.66         12.7641
   386.80         12.8919
   386.94         12.9806
   387.08         13.0253
   387.22         13.0301
   387.36         13.0046
   387.50         12.9586
   387.64         12.8980
   387.78         12.8256
   387.92         12.7472
   388.06         12.6745
   388.20         12.6217
   388.34         12.5995
   388.48         12.6101
   388.62         12.6460
   388.76         12.6975
   388.90         12.7628
   389.04         12.8532
   389.18         12.9875
   389.32         13.1807
   389.46         13.4349
   389.60         13.7373
   389.74         14.0671
   389.88         14.4047
   390.02         14.7315
   390.16         15.0287
   390.30         15.2814
   390.44         15.4797
   390.58         15.6124
   390.72         15.6610
   390.86         15.6070
   391.00         15.4446
   391.14         15.1854
   391.28         14.8530
   391.42         14.4746
   391.56         14.0707
   391.70         13.6476
   391.84         13.1972
   391.98         12.7031
   392.12         12.1533
   392.26         11.5541
   392.40         10.9303
   392.54         10.3108
   392.68         9.7250
   392.82         9.2094
   392.96         8.8039
   393.10         8.5429
   393.24         8.4497
   393.38         8.5369
   393.52         8.8073
   393.66         9.2521
   393.80         9.8455
   393.94         10.5478
   394.08         11.3111
   394.22         12.0854
   394.36         12.8240
   394.50         13.4886
   394.64         14.0516
   394.78         14.4940
   394.92         14.8023
   395.06         14.9621
   395.20         14.9615
   395.34         14.7991
   395.48         14.4829
   395.62         14.0252
   395.76         13.4439
   395.90         12.7700
   396.04         12.0498
   396.18         11.3444
   396.32         10.7215
   396.46         10.2435
   396.60         9.9606
   396.74         9.9035
   396.88         10.0793
   397.02         10.4772
   397.16         11.0775
   397.30         11.8586
   397.44         12.7928
   397.58         13.8401
   397.72         14.9508
   397.86         16.0763
   398.00         17.1732
   398.14         18.2010
   398.28         19.1264
   398.42         19.9260
   398.56         20.5912
   398.70         21.1340
   398.84         21.5852
   398.98         21.9831
   399.12         22.3577
   399.26         22.7269
   399.40         23.1005
   399.54         23.4877
   399.68         23.8999
   399.82         24.3463
   399.96         24.8295
   400.10         25.3435
   400.24         25.8815
   400.38         26.4380
   400.52         27.0027
   400.66         27.5572
   400.80         28.0761
   400.94         28.5325
   401.08         28.9055
   401.22         29.1905
   401.36         29.3997
   401.50         29.5515
   401.64         29.6545
   401.78         29.6989
   401.92         29.6661
   402.06         29.5444
   402.20         29.3469
   402.34         29.1140
   402.48         28.8992
   402.62         28.7446
   402.76         28.6723
   402.90         28.6875
   403.04         28.7710
   403.18         28.8836
   403.32         28.9884
   403.46         29.0663
   403.60         29.1197
   403.74         29.1695
   403.88         29.2461
   404.02         29.3686
   404.16         29.5278
   404.30         29.6894
   404.44         29.8160
   404.58         29.8885
   404.72         29.9121
   404.86         29.9056
   405.00         29.8787
   405.14         29.8247
   405.28         29.7330
   405.42         29.6084
   405.56         29.4734
   405.70         29.3496
   405.84         29.2546
   405.98         29.2133
   406.12         29.2470
   406.26         29.3494
   406.40         29.4814
   406.54         29.5887
   406.68         29.6276
   406.82         29.5827
   406.96         29.4677
   407.10         29.3151
   407.24         29.1738
   407.38         29.1080
   407.52         29.1872
   407.66         29.4725
   407.80         30.0038
   407.94         30.7882
   408.08         31.7946
   408.22         32.9575
   408.36         34.1798
   408.50         35.3478
   408.64         36.3452
   408.78         37.0592
   408.92         37.4034
   409.06         37.3530
   409.20         36.9559
   409.34         36.3060
   409.48         35.5048
   409.62         34.6396
   409.76         33.7853
   409.90         33.0118
   410.04         32.3798
   410.18         31.9296
   410.32         31.6734
   410.46         31.5955
   410.60         31.6576
   410.74         31.8105
   410.88         32.0023
   411.02         32.1881
   411.16         32.3428
   411.30         32.4657
   411.44         32.5730
   411.58         32.6875
   411.72         32.8248
   411.86         32.9777
   412.00         33.1122
   412.14         33.1894
   412.28         33.1942
   412.42         33.1420
   412.56         33.0717
   412.70         33.0266
   412.84         33.0324
   412.98         33.0876
   413.12         33.1771
   413.26         33.2936
   413.40         33.4410
   413.54         33.6208
   413.68         33.8221
   413.82         34.0241
   413.96         34.1987
   414.10         34.3163
   414.24         34.3604
   414.38         34.3432
   414.52         34.3073
   414.66         34.3140
   414.80         34.4294
   414.94         34.7061
   415.08         35.1624
   415.22         35.7778
   415.36         36.5021
   415.50         37.2687
   415.64         38.0098
   415.78         38.6634
   415.92         39.1643
   416.06         39.4396
   416.20         39.4267
   416.34         39.1002
   416.48         38.4834
   416.62         37.6448
   416.76         36.6894
   416.90         35.7410
   417.04         34.9201
   417.18         34.3218
   417.32         33.9989
   417.46         33.9599
   417.60         34.1799
   417.74         34.6119
   417.88         35.1994
   418.02         35.8863
   418.16         36.6134
   418.30         37.3101
   418.44         37.8973
   418.58         38.3024
   418.72         38.4831
   418.86         38.4344
   419.00         38.1770
   419.14         37.7455
   419.28         37.1890
   419.42         36.5704
   419.56         35.9592
   419.70         35.4264
   419.84         35.0355
   419.98         34.8307
   420.12         34.8305
   420.26         35.0282
   420.40         35.4018
   420.54         35.9252
   420.68         36.5678
   420.82         37.2850
   420.96         38.0127
   421.10         38.6686
   421.24         39.1627
   421.38         39.4139
   421.52         39.3699
   421.66         39.0272
   421.80         38.4332
   421.94         37.6654
   422.08         36.8042
   422.22         35.9222
   422.36         35.0843
   422.50         34.3469
   422.64         33.7629
   422.78         33.3927
   422.92         33.3104
   423.06         33.5961
   423.20         34.3025
   423.34         35.4142
   423.48         36.8393
   423.62         38.4322
   423.76         40.0266
   423.90         41.4704
   424.04         42.6506
   424.18         43.5047
   424.32         44.0110
   424.46         44.1680
   424.60         43.9897
   424.74         43.5218
   424.88         42.8588
   425.02         42.1436
   425.16         41.5465
   425.30         41.2314
   425.44         41.3188
   425.58         41.8511
   425.72         42.7757
   425.86         43.9527
   426.00         45.1876
   426.14         46.2877
   426.28         47.1096
   426.42         47.5810
   426.56         47.7041
   426.70         47.5367
   426.84         47.1588
   426.98         46.6516
   427.12         46.0933
   427.26         45.5541
   427.40         45.0908
   427.54         44.7296
   427.68         44.4538
   427.82         44.2061
   427.96         43.9125
   428.10         43.5126
   428.24         42.9755
   428.38         42.3089
   428.52         41.5527
   428.66         40.7663
   428.80         40.0190
   428.94         39.3764
   429.08         38.8845
   429.22         38.5568
   429.36         38.3667
   429.50         38.2665
   429.64         38.2263
   429.78         38.2601
   429.92         38.4094
   430.06         38.7194
   430.20         39.2350
   430.34         40.0217
   430.48         41.1643
   430.62         42.7242
   430.76         44.6952
   430.90         46.9931
   431.04         49.4731
   431.18         51.9510
   431.32         54.2374
   431.46         56.1874
   431.60         57.7319
   431.74         58.8709
   431.88         59.6497
   432.02         60.1497
   432.16         60.4905
   432.30         60.8024
   432.44         61.1686
   432.58         61.5865
   432.72         61.9859
   432.86         62.2922
   433.00         62.4633
   433.14         62.4771
   433.28         62.3200
   433.42         62.0013
   433.56         61.5729
   433.70         61.1209
   433.84         60.7292
   433.98         60.4709
   434.12         60.4283
   434.26         60.6817
   434.40         61.2796
   434.54         62.2248
   434.68         63.4620
   434.82         64.8874
   434.96         66.3858
   435.10         67.8697
   435.24         69.3053
   435.38         70.6986
   435.52         72.0654
   435.66         73.4001
   435.80         74.6683
   435.94         75.8066
   436.08         76.7170
   436.22         77.2842
   436.36         77.4099
   436.50         77.0580
   436.64         76.2785
   436.78         75.1753
   436.92         73.8432
   437.06         72.3276
   437.20         70.6415
   437.34         68.8142
   437.48         66.9182
   437.62         65.0468
   437.76         63.2774
   437.90         61.6653
   438.04         60.2568
   438.18         59.1044
   438.32         58.2798
   438.46         57.8606
   438.60         57.8850
   438.74         58.3384
   438.88         59.1864
   439.02         60.3756
   439.16         61.7877
   439.30         63.2178
   439.44         64.4202
   439.58         65.1941
   439.72         65.4519
   439.86         65.2399
   440.00         64.6920
   440.14         63.9487
   440.28         63.1238
   440.42         62.3289
   440.56         61.6867
   440.70         61.3029
   440.84         61.2344
   440.98         61.4894
   441.12         62.0352
   441.26         62.7986
   441.40         63.6798
   441.54         64.5729
   441.68         65.3786
   441.82         66.0218
   441.96         66.4735
   442.10         66.7374
   442.24         66.8306
   442.38         66.7873
   442.52         66.6538
   442.66         66.4745
   442.80         66.2749
   442.94         66.0634
   443.08         65.8587
   443.22         65.6958
   443.36         65.6193
   443.50         65.6752
   443.64         65.8984
   443.78         66.2992
   443.92         66.8507
   444.06         67.4863
   444.20         68.1136
   444.34         68.6326
   444.48         68.9451
   444.62         68.9578
   444.76         68.6023
   444.90         67.8755
   445.04         66.8575
   445.18         65.6676
   445.32         64.4135
   445.46         63.1810
   445.60         62.0628
   445.74         61.1824
   445.88         60.6747
   446.02         60.6538
   446.16         61.1897
   446.30         62.2983
   446.44         63.9478
   446.58         66.0535
   446.72         68.4689
   446.86         71.0151
   447.00         73.5366
   447.14         75.9287
   447.28         78.1337
   447.42         80.1235
   447.56         81.8738
   447.70         83.3553
   447.84         84.5430
   447.98         85.4250
   448.12         85.9978
   448.26         86.2679
   448.40         86.2710
   448.54         86.0857
   448.68         85.8195
   448.82         85.5833
   448.96         85.4930
   449.10         85.6686
   449.24         86.2026
   449.38         87.1380
   449.52         88.4844
   449.66         90.2273
   449.80         92.2938
   449.94         94.5293
   450.08         96.7168
   450.22         98.6334
   450.36         100.1118
   450.50         101.0575
   450.64         101.4433
   450.78         101.3068
   450.92         100.7339
   451.06         99.8401
   451.20         98.7408
   451.34         97.5177
   451.48         96.2152
   451.62         94.8603
   451.76         93.4560
   451.90         91.9661
   452.04         90.3400
   452.18         88.5557
   452.32         86.6602
   452.46         84.7698
   452.60         83.0311
   452.74         81.5860
   452.88         80.5619
   453.02         80.0553
   453.16         80.1017
   453.30         80.6646
   453.44         81.6382
   453.58         82.8608
   453.72         84.1660
   453.86         85.4098
   454.00         86.4662
   454.14         87.2497
   454.28         87.7532
   454.42         88.0518
   454.56         88.2601
   454.70         88.5044
   454.84         88.9133
   454.98         89.5863
   455.12         90.5519
   455.26         91.7822
   455.40         93.2448
   455.54         94.9153
   455.68         96.7435
   455.82         98.6356
   455.96         100.5018
   456.10         102.2842
   456.24         103.9345
   456.38         105.3969
   456.52         106.6003
   456.66         107.4768
   456.80         108.0080
   456.94         108.2324
   457.08         108.1934
   457.22         107.8981
   457.36         107.3514
   457.50         106.5961
   457.64         105.6998
   457.78         104.7401
   457.92         103.7924
   458.06         102.9010
   458.20         102.0696
   458.34         101.2898
   458.48         100.5722
   458.62         99.9527
   458.76         99.4570
   458.90         99.0794
   459.04         98.8036
   459.18         98.6258
   459.32         98.5764
   459.46         98.7437
   459.60         99.2503
   459.74         100.1903
   459.88         101.6027
   460.02         103.4772
   460.16         105.7549
   460.30         108.3321
   460.44         111.0962
   460.58         113.9556
   460.72         116.8306
   460.86         119.6361
   461.00         122.2793
   461.14         124.6578
   461.28         126.6611
   461.42         128.1813
   461.56         129.1365
   461.70         129.5047
   461.84         129.3353
   461.98         128.7179
   462.12         127.7411
   462.26         126.4583
   462.40         124.8818
   462.54         123.0188
   462.68         120.9078
   462.82         118.6363
   462.96         116.3256
   463.10         114.0946
   463.24         112.0178
   463.38         110.1166
   463.52         108.3997
   463.66         106.8882
   463.80         105.6077
   463.94         104.5777
   464.08         103.8150
   464.22         103.3335
   464.36         103.1470
   464.50         103.2748
   464.64         103.7519
   464.78         104.6244
   464.92         105.9165
   465.06         107.6033
   465.20         109.6004
   465.34         111.7653
   465.48         113.8994
   465.62         115.7686
   465.76         117.1560
   465.90         117.9165
   466.04         118.0118
   466.18         117.5099
   466.32         116.5516
   466.46         115.3142
   466.60         113.9825
   466.74         112.7201
   466.88         111.6586
   467.02         110.9090
   467.16         110.5627
   467.30         110.6493
   467.44         111.0966
   467.58         111.7590
   467.72         112.4890
   467.86         113.1748
   468.00         113.7608
   468.14         114.2815
   468.28         114.8588
   468.42         115.6418
   468.56         116.7313
   468.70         118.1527
   468.84         119.8695
   468.98         121.7914
   469.12         123.7844
   469.26         125.6884
   469.40         127.3380
   469.54         128.5914
   469.68         129.3694
   469.82         129.6763
   469.96         129.5733
   470.10         129.1376
   470.24         128.4547
   470.38         127.6358
   470.52         126.8251
   470.66         126.1894
   470.80         125.8834
   470.94         125.9911
   471.08         126.5169
   471.22         127.4285
   471.36         128.6669
   471.50         130.1202
   471.64         131.6207
   471.78         132.9842
   471.92         134.0489
   472.06         134.7040
   472.20         134.9207
   472.34         134.7568
   472.48         134.3155
   472.62         133.7045
   472.76         133.0251
   472.90         132.3821
   473.04         131.8889
   473.18         131.6474
   473.32         131.7301
   473.46         132.1756
   473.60         132.9890
   473.74         134.1566
   473.88         135.6429
   474.02         137.3661
   474.16         139.2061
   474.30         141.0483
   474.44         142.8010
   474.58         144.3721
   474.72         145.6544
   474.86         146.5284
   475.00         146.8553
   475.14         146.4919
   475.28         145.3275
   475.42         143.3164
   475.56         140.5116
   475.70         137.0824
   475.84         133.2853
   475.98         129.4177
   476.12         125.7814
   476.26         122.6542
   476.40         120.2566
   476.54         118.7187
   476.68         118.0705
   476.82         118.2517
   476.96         119.1279
   477.10         120.4991
   477.24         122.1222
   477.38         123.7620
   477.52         125.2195
   477.66         126.3399
   477.80         127.0450
   477.94         127.3717
   478.08         127.4595
   478.22         127.4868
   478.36         127.6030
   478.50         127.8964
   478.64         128.4116
   478.78         129.1777
   478.92         130.2034
   479.06         131.4439
   479.20         132.7837
   479.34         134.0557
   479.48         135.0837
   479.62         135.7272
   479.76         135.9096
   479.90         135.6308
   480.04         134.9623
   480.18         134.0222
   480.32         132.9617
   480.46         131.9593
   480.60         131.1867
   480.74         130.7606
   480.88         130.7175
   481.02         131.0294
   481.16         131.6371
   481.30         132.4727
   481.44         133.4530
   481.58         134.4610
   481.72         135.3508
   481.86         135.9948
   482.00         136.3405
   482.14         136.4336
   482.28         136.3972
   482.42         136.3803
   482.56         136.5073
   482.70         136.8505
   482.84         137.4346
   482.98         138.2534
   483.12         139.2758
   483.26         140.4486
   483.40         141.6973
   483.54         142.9200
   483.68         144.0041
   483.82         144.8602
   483.96         145.4349
   484.10         145.7154
   484.24         145.7255
   484.38         145.5040
   484.52         145.0864
   484.66         144.4782
   484.80         143.6348
   484.94         142.4824
   485.08         140.9560
   485.22         139.0365
   485.36         136.7850
   485.50         134.3439
   485.64         131.8992
   485.78         129.6445
   485.92         127.7456
   486.06         126.3161
   486.20         125.4226
   486.34         125.1116
   486.48         125.4173
   486.62         126.3341
   486.76         127.7882
   486.90         129.6202
   487.04         131.6082
   487.18         133.5341
   487.32         135.2255
   487.46         136.5798
   487.60         137.5852
   487.74         138.2871
   487.88         138.7444
   488.02         139.0331
   488.16         139.2669
   488.30         139.5979
   488.44         140.2005
   488.58         141.2321
   488.72         142.7876
   488.86         144.8752
   489.00         147.4233
   489.14         150.2963
   489.28         153.3236
   489.42         156.3471
   489.56         159.2297
   489.70         161.8326
   489.84         164.0170
   489.98         165.6803
   490.12         166.8000
   490.26         167.4417
   490.40         167.7304
   490.54         167.8145
   490.68         167.8074
   490.82         167.7305
   490.96         167.5200
   491.10         167.0850
   491.24         166.3564
   491.38         165.3264
   491.52         164.0966
   491.66         162.8911
   491.80         162.0014
   491.94         161.6835
   492.08         162.0446
   492.22         163.0158
   492.36         164.4372
   492.50         166.1327
   492.64         167.9168
   492.78         169.5889
   492.92         170.9588
   493.06         171.8840
   493.20         172.2885
   493.34         172.1830
   493.48         171.7176
   493.62         171.1925
   493.76         170.9748
   493.90         171.3829
   494.04         172.5889
   494.18         174.5568
   494.32         177.0172
   494.46         179.4987
   494.60         181.4348
   494.74         182.3216
   494.88         181.8486
   495.02         179.9123
   495.16         176.5571
   495.30         171.9618
   495.44         166.4439
   495.58         160.4260
   495.72         154.3698
   495.86         148.7132
   496.00         143.8370
   496.14         140.0439
   496.28         137.5176
   496.42         136.2893
   496.56         136.2293
   496.70         137.0582
   496.84         138.4036
   496.98         139.8848
   497.12         141.1985
   497.26         142.1784
   497.40         142.7809
   497.54         143.0267
   497.68         142.9600
   497.82         142.6492
   497.96         142.2001
   498.10         141.7511
   498.24         141.4561
   498.38         141.4520
   498.52         141.8013
   498.66         142.4627
   498.80         143.3123
   498.94         144.1771
   499.08         144.8643
   499.22         145.1883
   499.36         145.0023
   499.50         144.2584
   499.64         143.0421
   499.78         141.5277
   499.92         139.8956
   500.06         138.2588
   500.20         136.6427
   500.34         135.0381
   500.48         133.4571
   500.62         131.9378
   500.76         130.5343
   500.90         129.3080
   501.04         128.3210
   501.18         127.6295
   501.32         127.3017
   501.46         127.4304
   501.60         128.1082
   501.74         129.4065
   501.88         131.3659
   502.02         133.9816
   502.16         137.1841
   502.30         140.7906
   502.44         144.4855
   502.58         147.8868
   502.72         150.6247
   502.86         152.4266
   503.00         153.2125
   503.14         153.1147
   503.28         152.4196
   503.42         151.4887
   503.56         150.6709
   503.70         150.2433
   503.84         150.3923
   503.98         151.2240
   504.12         152.7848
   504.26         155.0713
   504.40         158.0173
   504.54         161.4763
   504.68         165.2303
   504.82         169.0294
   504.96         172.6246
   505.10         175.7732
   505.24         178.2704
   505.38         180.0142
   505.52         181.0451
   505.66         181.5128
   505.80         181.5887
   505.94         181.3914
   506.08         180.9703
   506.22         180.3428
   506.36         179.5345
   506.50         178.5956
   506.64         177.5839
   506.78         176.5297
   506.92         175.4269
   507.06         174.2463
   507.20         172.9696
   507.34         171.6284
   507.48         170.3089
   507.62         169.1180
   507.76         168.1670
   507.90         167.6202
   508.04         167.7008
   508.18         168.6036
   508.32         170.3931
   508.46         172.9676
   508.60         176.0888
   508.74         179.4450
   508.88         182.7186
   509.02         185.6208
   509.16         187.9150
   509.30         189.4401
   509.44         190.1219
   509.58         189.9665
   509.72         189.0409
   509.86         187.4672
   510.00         185.4308
   510.14         183.1674
   510.28         180.9415
   510.42         179.0279
   510.56         177.6749
   510.70         177.0410
   510.84         177.1327
   510.98         177.7976
   511.12         178.8063
   511.26         179.9428
   511.40         181.0209
   511.54         181.8612
   511.68         182.2959
   511.82         182.2073
   511.96         181.5708
   512.10         180.4730
   512.24         179.1024
   512.38         177.7116
   512.52         176.5597
   512.66         175.8750
   512.80         175.8009
   512.94         176.3353
   513.08         177.3226
   513.22         178.4971
   513.36         179.5454
   513.50         180.1747
   513.64         180.1810
   513.78         179.4807
   513.92         178.0926
   514.06         176.1295
   514.20         173.8213
   514.34         171.5175
   514.48         169.6303
   514.62         168.5282
   514.76         168.4487
   514.90         169.4706
   515.04         171.5036
   515.18         174.2784
   515.32         177.3351
   515.46         180.0548
   515.60         181.7853
   515.74         181.9858
   515.88         180.2997
   516.02         176.5714
   516.16         170.8745
   516.30         163.5418
   516.44         155.1330
   516.58         146.3686
   516.72         138.0371
   516.86         130.8497
   517.00         125.2987
   517.14         121.6123
   517.28         119.7918
   517.42         119.6930
   517.56         121.0669
   517.70         123.5480
   517.84         126.6707
   517.98         129.9457
   518.12         132.9770
   518.26         135.5464
   518.40         137.6068
   518.54         139.2317
   518.68         140.5732
   518.82         141.8176
   518.96         143.1124
   519.10         144.4894
   519.24         145.8440
   519.38         146.9725
   519.52         147.6528
   519.66         147.7325
   519.80         147.1969
   519.94         146.1840
   520.08         144.9335
   520.22         143.7057
   520.36         142.7238
   520.50         142.1739
   520.64         142.2301
   520.78         143.0610
   520.92         144.7953
   521.06         147.4319
   521.20         150.7671
   521.34         154.4240
   521.48         157.9613
   521.62         161.0122
   521.76         163.3834
   521.90         165.0572
   522.04         166.1452
   522.18         166.8502
   522.32         167.4358
   522.46         168.2048
   522.60         169.4308
   522.74         171.2603
   522.88         173.6796
   523.02         176.5515
   523.16         179.6931
   523.30         182.8782
   523.44         185.7977
   523.58         188.0861
   523.72         189.3862
   523.86         189.4418
   524.00         188.2010
   524.14         185.8456
   524.28         182.7129
   524.42         179.2026
   524.56         175.7295
   524.70         172.6996
   524.84         170.4627
   524.98         169.2398
   525.12         169.0558
   525.26         169.7282
   525.40         170.9502
   525.54         172.3848
   525.68         173.7003
   525.82         174.5877
   525.96         174.8053
   526.10         174.2770
   526.24         173.1404
   526.38         171.6981
   526.52         170.3690
   526.66         169.6281
   526.80         169.8890
   526.94         171.3900
   527.08         174.1576
   527.22         178.0377
   527.36         182.7440
   527.50         187.9119
   527.64         193.1726
   527.78         198.2165
   527.92         202.8403
   528.06         206.9428
   528.20         210.4658
   528.34         213.3493
   528.48         215.5143
   528.62         216.8988
   528.76         217.4876
   528.90         217.2991
   529.04         216.4094
   529.18         215.0004
   529.32         213.3406
   529.46         211.7135
   529.60         210.3853
   529.74         209.6121
   529.88         209.6319
   530.02         210.5961
   530.16         212.5045
   530.30         215.2037
   530.44         218.4294
   530.58         221.8668
   530.72         225.1849
   530.86         228.0578
   531.00         230.2095
   531.14         231.4608
   531.28         231.7639
   531.42         231.1697
   531.56         229.7433
   531.70         227.5337
   531.84         224.6356
   531.98         221.2214
   532.12         217.5238
   532.26         213.8389
   532.40         210.4918
   532.54         207.7731
   532.68         205.8841
   532.82         204.9106
   532.96         204.8339
   533.10         205.5810
   533.24         207.0378
   533.38         209.0223
   533.52         211.3047
   533.66         213.6312
   533.80         215.7686
   533.94         217.5758
   534.08         219.0523
   534.22         220.3480
   534.36         221.7339
   534.50         223.5360
   534.64         226.0055
   534.78         229.2251
   534.92         233.0889
   535.06         237.3141
   535.20         241.5098
   535.34         245.2728
   535.48         248.2711
   535.62         250.2810
   535.76         251.1579
   535.90         250.7922
   536.04         249.1683
   536.18         246.4739
   536.32         243.0882
   536.46         239.5024
   536.60         236.2283
   536.74         233.6973
   536.88         232.1912
   537.02         231.7956
   537.16         232.4117
   537.30         233.8126
   537.44         235.6774
   537.58         237.6391
   537.72         239.3342
   537.86         240.4415
   538.00         240.7262
   538.14         240.0539
   538.28         238.3616
   538.42         235.6525
   538.56         232.0541
   538.70         227.8765
   538.84         223.5561
   538.98         219.4948
   539.12         215.9712
   539.26         213.1184
   539.40         210.9302
   539.54         209.3068
   539.68         208.1029
   539.82         207.1904
   539.96         206.5160
   540.10         206.1168
   540.24         206.1031
   540.38         206.6128
   540.52         207.7788
   540.66         209.6986
   540.80         212.3860
   540.94         215.7666
   541.08         219.7158
   541.22         224.0787
   541.36         228.6729
   541.50         233.2545
   541.64         237.4924
   541.78         241.0151
   541.92         243.4843
   542.06         244.6766
   542.20         244.5223
   542.34         243.1023
   542.48         240.6629
   542.62         237.6060
   542.76         234.4213
   542.90         231.6030
   543.04         229.5773
   543.18         228.6328
   543.32         228.8402
   543.46         230.0281
   543.60         231.8466
   543.74         233.8465
   543.88         235.5602
   544.02         236.5632
   544.16         236.4811
   544.30         235.0020
   544.44         231.9504
   544.58         227.3713
   544.72         221.5449
   544.86         214.9428
   545.00         208.1662
   545.14         201.8632
   545.28         196.6022
   545.42         192.7650
   545.56         190.5052
   545.70         189.7489
   545.84         190.2291
   545.98         191.5536
   546.12         193.3195
   546.26         195.2007
   546.40         196.9531
   546.54         198.3998
   546.68         199.4300
   546.82         200.0063
   546.96         200.1678
   547.10         200.0360
   547.24         199.8032
   547.38         199.6856
   547.52         199.8640
   547.66         200.4488
   547.80         201.4779
   547.94         202.9217
   548.08         204.7057
   548.22         206.7403
   548.36         208.9087
   548.50         211.0440
   548.64         212.9613
   548.78         214.5077
   548.92         215.5796
   549.06         216.1279
   549.20         216.1727
   549.34         215.7812
   549.48         215.0286
   549.62         214.0035
   549.76         212.8325
   549.90         211.6483
   550.04         210.5261
   550.18         209.4824
   550.32         208.5283
   550.46         207.7241
   550.60         207.2002
   550.74         207.1324
   550.88         207.6645
   551.02         208.8478
   551.16         210.6592
   551.30         213.0341
   551.44         215.8640
   551.58         218.9901
   551.72         222.2275
   551.86         225.4030
   552.00         228.3522
   552.14         230.9154
   552.28         232.9644
   552.42         234.4157
   552.56         235.2494
   552.70         235.5483
   552.84         235.5123
   552.98         235.4142
   553.12         235.5124
   553.26         235.9757
   553.40         236.8497
   553.54         238.0758
   553.68         239.5717
   553.82         241.2664
   553.96         243.0685
   554.10         244.8652
   554.24         246.5465
   554.38         248.0262
   554.52         249.2447
   554.66         250.1478
   554.80         250.7016
   554.94         250.9281
   555.08         250.8946
   555.22         250.6745
   555.36         250.3049
   555.50         249.7747
   555.64         249.0466
   555.78         248.0852
   555.92         246.8971
   556.06         245.5510
   556.20         244.1541
   556.34         242.8270
   556.48         241.6623
   556.62         240.7144
   556.76         240.0340
   556.90         239.6716
   557.04         239.6563
   557.18         239.9688
   557.32         240.5252
   557.46         241.1728
   557.60         241.7044
   557.74         241.9064
   557.88         241.6179
   558.02         240.7672
   558.16         239.3836
   558.30         237.6024
   558.44         235.6308
   558.58         233.6665
   558.72         231.8457
   558.86         230.2498
   559.00         228.9264
   559.14         227.8871
   559.28         227.1245
   559.42         226.6356
   559.56         226.4146
   559.70         226.4465
   559.84         226.7067
   559.98         227.1653
   560.12         227.7851
   560.26         228.5221
   560.40         229.3320
   560.54         230.1616
   560.68         230.9367
   560.82         231.5768
   560.96         232.0051
   561.10         232.1206
   561.24         231.7962
   561.38         230.9513
   561.52         229.6118
   561.66         227.8983
   561.80         225.9838
   561.94         224.0692
   562.08         222.3511
   562.22         220.9792
   562.36         220.0263
   562.50         219.4801
   562.64         219.2554
   562.78         219.2271
   562.92         219.2755
   563.06         219.3273
   563.20         219.3619
   563.34         219.3895
   563.48         219.4321
   563.62         219.5115
   563.76         219.6565
   563.90         219.9286
   564.04         220.4351
   564.18         221.2944
   564.32         222.5742
   564.46         224.2540
   564.60         226.2209
   564.74         228.2900
   564.88         230.2402
   565.02         231.8551
   565.16         232.9647
   565.30         233.4810
   565.44         233.4073
   565.58         232.8055
   565.72         231.7573
   565.86         230.3589
   566.00         228.7507
   566.14         227.1355
   566.28         225.7547
   566.42         224.8377
   566.56         224.5469
   566.70         224.9431
   566.84         225.9769
   566.98         227.5071
   567.12         229.3479
   567.26         231.3282
   567.40         233.3095
   567.54         235.1610
   567.68         236.7594
   567.82         238.0338
   567.96         238.9907
   568.10         239.6851
   568.24         240.1895
   568.38         240.5906
   568.52         240.9850
   568.66         241.4477
   568.80         241.9870
   568.94         242.5212
   569.08         242.9077
   569.22         243.0013
   569.36         242.6946
   569.50         241.9208
   569.64         240.6499
   569.78         238.9058
   569.92         236.7775
   570.06         234.4090
   570.20         232.0085
   570.34         229.8598
   570.48         228.2577
   570.62         227.4157
   570.76         227.4299
   570.90         228.3046
   571.04         229.9905
   571.18         232.3861
   571.32         235.3128
   571.46         238.5204
   571.60         241.7266
   571.74         244.6886
   571.88         247.2273
   572.02         249.2065
   572.16         250.5543
   572.30         251.3007
   572.44         251.5613
   572.58         251.4909
   572.72         251.2579
   572.86         251.0165
   573.00         250.8754
   573.14         250.8905
   573.28         251.1012
   573.42         251.5506
   573.56         252.2522
   573.70         253.1633
   573.84         254.1960
   573.98         255.2340
   574.12         256.1641
   574.26         256.9235
   574.40         257.5265
   574.54         258.0214
   574.68         258.4373
   574.82         258.7620
   574.96         258.9240
   575.10         258.8188
   575.24         258.3918
   575.38         257.6740
   575.52         256.7501
   575.66         255.7352
   575.80         254.7454
   575.94         253.8738
   576.08         253.1794
   576.22         252.6922
   576.36         252.4426
   576.50         252.4522
   576.64         252.6889
   576.78         253.0532
   576.92         253.3905
   577.06         253.5185
   577.20         253.2439
   577.34         252.3962
   577.48         250.9017
   577.62         248.8309
   577.76         246.3920
   577.90         243.8660
   578.04         241.5369
   578.18         239.6750
   578.32         238.5167
   578.46         238.2045
   578.60         238.7759
   578.74         240.2154
   578.88         242.4824
   579.02         245.4857
   579.16         249.0438
   579.30         252.9013
   579.44         256.7873
   579.58         260.4751
   579.72         263.8122
   579.86         266.6934
   580.00         269.0413
   580.14         270.7998
   580.28         271.9135
   580.42         272.3360
   580.56         272.0690
   580.70         271.1984
   580.84         269.8657
   580.98         268.2087
   581.12         266.3600
   581.26         264.4921
   581.40         262.8230
   581.54         261.5457
   581.68         260.7751
   581.82         260.5531
   581.96         260.8719
   582.10         261.6729
   582.24         262.8360
   582.38         264.1977
   582.52         265.5932
   582.66         266.8907
   582.80         268.0014
   582.94         268.8876
   583.08         269.5675
   583.22         270.0878
   583.36         270.4642
   583.50         270.6447
   583.64         270.5415
   583.78         270.0626
   583.92         269.1077
   584.06         267.5713
   584.20         265.3741
   584.34         262.4954
   584.48         258.9593
   584.62         254.8395
   584.76         250.2865
   584.90         245.5237
   585.04         240.8111
   585.18         236.4019
   585.32         232.5059
   585.46         229.2687
   585.60         226.7639
   585.74         225.0011
   585.88         223.9267
   586.02         223.4256
   586.16         223.3563
   586.30         223.5821
   586.44         223.9578
   586.58         224.3292
   586.72         224.5638
   586.86         224.5830
   587.00         224.3622
   587.14         223.9015
   587.28         223.2203
   587.42         222.3316
   587.56         221.1540
   587.70         219.4721
   587.84         217.0323
   587.98         213.6972
   588.12         209.4794
   588.26         204.4528
   588.40         198.7229
   588.54         192.4747
   588.68         186.0067
   588.82         179.7157
   588.96         174.0451
   589.10         169.4147
   589.24         166.1621
   589.38         164.5163
   589.52         164.5774
   589.66         166.2954
   589.80         169.4599
   589.94         173.7080
   590.08         178.5545
   590.22         183.4636
   590.36         187.9889
   590.50         191.8854
   590.64         195.0726
   590.78         197.5110
   590.92         199.1777
   591.06         200.1548
   591.20         200.6476
   591.34         200.8952
   591.48         201.0902
   591.62         201.3592
   591.76         201.7613
   591.90         202.3064
   592.04         202.9815
   592.18         203.7495
   592.32         204.5554
   592.46         205.3467
   592.60         206.0766
   592.74         206.7035
   592.88         207.2063
   593.02         207.6013
   593.16         207.9382
   593.30         208.2821
   593.44         208.6948
   593.58         209.2098
   593.72         209.8296
   593.86         210.5460
   594.00         211.3172
   594.14         212.0483
   594.28         212.6161
   594.42         212.8928
   594.56         212.7902
   594.70         212.2970
   594.84         211.4861
   594.98         210.4998
   595.12         209.5053
   595.26         208.6489
   595.40         208.0487
   595.54         207.8256
   595.68         208.1041
   595.82         208.9685
   595.96         210.4177
   596.10         212.3463
   596.24         214.5726
   596.38         216.8811
   596.52         219.0473
   596.66         220.8643
   596.80         222.1895
   596.94         222.9602
   597.08         223.1666
   597.22         222.8638
   597.36         222.1792
   597.50         221.2734
   597.64         220.3136
   597.78         219.4617
   597.92         218.8710
   598.06         218.6966
   598.20         219.0696
   598.34         220.0336
   598.48         221.5131
   598.62         223.3337
   598.76         225.2665
   598.90         227.0775
   599.04         228.5748
   599.18         229.6353
   599.32         230.1953
   599.46         230.2191
   599.60         229.6988
   599.74         228.6999
   599.88         227.3672
   600.02         225.8784
   600.16         224.4018
   600.30         223.0728
   600.44         221.9819
   600.58         221.1739
   600.72         220.6649
   600.86         220.4345
   601.00         220.4277
   601.14         220.5885
   601.28         220.8845
   601.42         221.3085
   601.56         221.8822
   601.70         222.6454
   601.84         223.6101
   601.98         224.7545
   602.12         226.0565
   602.26         227.5106
   602.40         229.1139
   602.54         230.8228
   602.68         232.5622
   602.82         234.2579
   602.96         235.8351
   603.10         237.2380
   603.24         238.4537
   603.38         239.5102
   603.52         240.4529
   603.66         241.3263
   603.80         242.1462
   603.94         242.8943
   604.08         243.5399
   604.22         244.0422
   604.36         244.3406
   604.50         244.3813
   604.64         244.1575
   604.78         243.6922
   604.92         243.0006
   605.06         242.0806
   605.20         240.9383
   605.34         239.6315
   605.48         238.2884
   605.62         237.0880
   605.76         236.2278
   605.90         235.8795
   606.04         236.1477
   606.18         237.0580
   606.32         238.5497
   606.46         240.4723
   606.60         242.6275
   606.74         244.7905
   606.88         246.7247
   607.02         248.2355
   607.16         249.2032
   607.30         249.5753
   607.44         249.3516
   607.58         248.5826
   607.72         247.3677
   607.86         245.8593
   608.00         244.2664
   608.14         242.8133
   608.28         241.6736
   608.42         240.9373
   608.56         240.6107
   608.70         240.6406
   608.84         240.9210
   608.98         241.2953
   609.12         241.6111
   609.26         241.7731
   609.40         241.7473
   609.54         241.5650
   609.68         241.3055
   609.82         241.0465
   609.96         240.8536
   610.10         240.7999
   610.24         240.9535
   610.38         241.3583
   610.52         242.0317
   610.66         242.9438
   610.80         243.9786
   610.94         244.9541
   611.08         245.6994
   611.22         246.1009
   611.36         246.0849
   611.50         245.5872
   611.64         244.6080
   611.78         243.2731
   611.92         241.7887
   612.06         240.3460
   612.20         239.0471
   612.34         237.8613
   612.48         236.6751
   612.62         235.4236
   612.76         234.1166
   612.90         232.7682
   613.04         231.3874
   613.18         230.0317
   613.32         228.8260
   613.46         227.9270
   613.60         227.4619
   613.74         227.4788
   613.88         227.9414
   614.02         228.7565
   614.16         229.8211
   614.30         231.0199
   614.44         232.1742
   614.58         233.0172
   614.72         233.2133
   614.86         232.4305
   615.00         230.4492
   615.14         227.2541
   615.28         223.0219
   615.42         218.0009
   615.56         212.4471
   615.70         206.6310
   615.84         200.8295
   615.98         195.2904
   616.12         190.2067
   616.26         185.7267
   616.40         181.9874
   616.54         179.1173
   616.68         177.1940
   616.82         176.2098
   616.96         176.0616
   617.10         176.5688
   617.24         177.5017
   617.38         178.6077
   617.52         179.6518
   617.66         180.4512
   617.80         180.8793
   617.94         180.8515
   618.08         180.3278
   618.22         179.3403
   618.36         177.9899
   618.50         176.4253
   618.64         174.8204
   618.78         173.3392
   618.92         172.1317
   619.06         171.3332
   619.20         171.0476
   619.34         171.3148
   619.48         172.1103
   619.62         173.3532
   619.76         174.8943
   619.90         176.5426
   620.04         178.0875
   620.18         179.3027
   620.32         179.9848
   620.46         180.0036
   620.60         179.3263
   620.74         178.0058
   620.88         176.1450
   621.02         173.8521
   621.16         171.2380
   621.30         168.4439
   621.44         165.6433
   621.58         163.0120
   621.72         160.6790
   621.86         158.7152
   622.00         157.1561
   622.14         156.0377
   622.28         155.3824
   622.42         155.1587
   622.56         155.2832
   622.70         155.6429
   622.84         156.1328
   622.98         156.6928
   623.12         157.2966
   623.26         157.9301
   623.40         158.5923
   623.54         159.2999
   623.68         160.0776
   623.82         160.9348
   623.96         161.8613
   624.10         162.8214
   624.24         163.7549
   624.38         164.5872
   624.52         165.2523
   624.66         165.7315
   624.80         166.0575
   624.94         166.2921
   625.08         166.4851
   625.22         166.6629
   625.36         166.8700
   625.50         167.1821
   625.64         167.6786
   625.78         168.4220
   625.92         169.4514
   626.06         170.7579
   626.20         172.2648
   626.34         173.8429
   626.48         175.3412
   626.62         176.6171
   626.76         177.5535
   626.90         178.0705
   627.04         178.1546
   627.18         177.8861
   627.32         177.4406
   627.46         177.0446
   627.60         176.9152
   627.74         177.2143
   627.88         178.0323
   628.02         179.4009
   628.16         181.2835
   628.30         183.5627
   628.44         186.0713
   628.58         188.6379
   628.72         191.1247
   628.86         193.4227
   629.00         195.4455
   629.14         197.1411
   629.28         198.5077
   629.42         199.6239
   629.56         200.6483
   629.70         201.7677
   629.84         203.1211
   629.98         204.7749
   630.12         206.7289
   630.26         208.9051
   630.40         211.1573
   630.54         213.3080
   630.68         215.2122
   630.82         216.7922
   630.96         218.0274
   631.10         218.9638
   631.24         219.7053
   631.38         220.3766
   631.52         221.0893
   631.66         221.9427
   631.80         223.0255
   631.94         224.3982
   632.08         226.0676
   632.22         227.9463
   632.36         229.8660
   632.50         231.6728
   632.64         233.2996
   632.78         234.7459
   632.92         236.0189
   633.06         237.0925
   633.20         237.9238
   633.34         238.5086
   633.48         238.8978
   633.62         239.1768
   633.76         239.4284
   633.90         239.7023
   634.04         239.9981
   634.18         240.2555
   634.32         240.3641
   634.46         240.1820
   634.60         239.5573
   634.74         238.3746
   634.88         236.6147
   635.02         234.3786
   635.16         231.8656
   635.30         229.3053
   635.44         226.9163
   635.58         224.9092
   635.72         223.4909
   635.86         222.8779
   636.00         223.2724
   636.14         224.7855
   636.28         227.3814
   636.42         230.8718
   636.56         234.9582
   636.70         239.2825
   636.84         243.4853
   636.98         247.2677
   637.12         250.4062
   637.26         252.7722
   637.40         254.3540
   637.54         255.2208
   637.68         255.4760
   637.82         255.2451
   637.96         254.6488
   638.10         253.8010
   638.24         252.8386
   638.38         251.9207
   638.52         251.1806
   638.66         250.6685
   638.80         250.3736
   638.94         250.2896
   639.08         250.4407
   639.22         250.8716
   639.36         251.6221
   639.50         252.7120
   639.64         254.1344
   639.78         255.8343
   639.92         257.6941
   640.06         259.5515
   640.20         261.2463
   640.34         262.6475
   640.48         263.6516
   640.62         264.1763
   640.76         264.1780
   640.90         263.6733
   641.04         262.7358
   641.18         261.4723
   641.32         260.0295
   641.46         258.6180
   641.60         257.4355
   641.74         256.5613
   641.88         255.9689
   642.02         255.6108
   642.16         255.4837
   642.30         255.6119
   642.44         255.9929
   642.58         256.5929
   642.72         257.3939
   642.86         258.4398
   643.00         259.7996
   643.14         261.5076
   643.28         263.5564
   643.42         265.9001
   643.56         268.4287
   643.70         270.9486
   643.84         273.2064
   643.98         274.9623
   644.12         276.0656
   644.26         276.4611
   644.40         276.1975
   644.54         275.4594
   644.68         274.5260
   644.82         273.6601
   644.96         273.0044
   645.10         272.5949
   645.24         272.4544
   645.38         272.6282
   645.52         273.1729
   645.66         274.0873
   645.80         275.2655
   645.94         276.5360
   646.08         277.6994
   646.22         278.5631
   646.36         279.0247
   646.50         279.1175
   646.64         278.9298
   646.78         278.5007
   646.92         277.7844
   647.06         276.6884
   647.20         275.1493
   647.34         273.1642
   647.48         270.7771
   647.62         268.0835
   647.76         265.2340
   647.90         262.4062
   648.04         259.7132
   648.18         257.1311
   648.32         254.5125
   648.46         251.6617
   648.60         248.4428
   648.74         244.8518
   648.88         241.0327
   649.02         237.2501
   649.16         233.8169
   649.30         231.0093
   649.44         229.0399
   649.58         228.0729
   649.72         228.2251
   649.86         229.5645
   650.00         232.0608
   650.14         235.5360
   650.28         239.6824
   650.42         244.1105
   650.56         248.4336
   650.70         252.3396
   650.84         255.6421
   650.98         258.3155
   651.12         260.4712
   651.26         262.3058
   651.40         264.0248
   651.54         265.7734
   651.68         267.6196
   651.82         269.5635
   651.96         271.5412
   652.10         273.4641
   652.24         275.2788
   652.38         276.9826
   652.52         278.5882
   652.66         280.1055
   652.80         281.5497
   652.94         282.9384
   653.08         284.2735
   653.22         285.5188
   653.36         286.5962
   653.50         287.3979
   653.64         287.8100
   653.78         287.7331
   653.92         287.0921
   654.06         285.8435
   654.20         283.9950
   654.34         281.6130
   654.48         278.8174
   654.62         275.7844
   654.76         272.7087
   654.90         269.6889
   655.04         266.6738
   655.18         263.5965
   655.32         260.5246
   655.46         257.6336
   655.60         255.1077
   655.74         253.0939
   655.88         251.6881
   656.02         250.9378
   656.16         250.8375
   656.30         251.3399
   656.44         252.3976
   656.58         253.9584
   656.72         255.9325
   656.86         258.1968
   657.00         260.6312
   657.14         263.1382
   657.28         265.6187
   657.42         267.9638
   657.56         270.1120
   657.70         272.1212
   657.84         274.1325
   657.98         276.2106
   658.12         278.2397
   658.26         280.0075
   658.40         281.3155
   658.54         282.0177
   658.68         282.0717
   658.82         281.5741
   658.96         280.7323
   659.10         279.7746
   659.24         278.8580
   659.38         278.0566
   659.52         277.3970
   659.66         276.8859
   659.80         276.5214
   659.94         276.2860
   660.08         276.1444
   660.22         276.0506
   660.36         275.9563
   660.50         275.8275
   660.64         275.6824
   660.78         275.6014
   660.92         275.6916
   661.06         275.9955
   661.20         276.4667
   661.34         277.0305
   661.48         277.5945
   661.62         278.0404
   661.76         278.2444
   661.90         278.1120
   662.04         277.5957
   662.18         276.6993
   662.32         275.5051
   662.46         274.1651
   662.60         272.8302
   662.74         271.6205
   662.88         270.6311
   663.02         269.9120
   663.16         269.4562
   663.30         269.2037
   663.44         269.0514
   663.58         268.8740
   663.72         268.5445
   663.86         267.9622
   664.00         267.0662
   664.14         265.8381
   664.28         264.3013
   664.42         262.4954
   664.56         260.4666
   664.70         258.2848
   664.84         256.0410
   664.98         253.8377
   665.12         251.7550
   665.26         249.8389
   665.40         248.1405
   665.54         246.7174
   665.68         245.6318
   665.82         244.9583
   665.96         244.7519
   666.10         245.0255
   666.24         245.7419
   666.38         246.7969
   666.52         248.0330
   666.66         249.2700
   666.80         250.3282
   666.94         251.0397
   667.08         251.2609
   667.22         250.9145
   667.36         250.0058
   667.50         248.5990
   667.64         246.8191
   667.78         244.8592
   667.92         242.9544
   668.06         241.3208
   668.20         240.0990
   668.34         239.3636
   668.48         239.1241
   668.62         239.3176
   668.76         239.8451
   668.90         240.5884
   669.04         241.4274
   669.18         242.2761
   669.32         243.0971
   669.46         243.9020
   669.60         244.7201
   669.74         245.5539
   669.88         246.3785
   670.02         247.1308
   670.16         247.6968
   670.30         247.9288
   670.44         247.6769
   670.58         246.8226
   670.72         245.3099
   670.86         243.1728
   671.00         240.5447
   671.14         237.6147
   671.28         234.5973
   671.42         231.7231
   671.56         229.1944
   671.70         227.1696
   671.84         225.7650
   671.98         225.0449
   672.12         225.0151
   672.26         225.6064
   672.40         226.6830
   672.54         228.0756
   672.68         229.5912
   672.82         231.0408
   672.96         232.2866
   673.10         233.2710
   673.24         234.0011
   673.38         234.5076
   673.52         234.8157
   673.66         234.9331
   673.80         234.8512
   673.94         234.5717
   674.08         234.1283
   674.22         233.5792
   674.36         233.0095
   674.50         232.5275
   674.64         232.2450
   674.78         232.2573
   674.92         232.6233
   675.06         233.3704
   675.20         234.5035
   675.34         235.9871
   675.48         237.7451
   675.62         239.6812
   675.76         241.6919
   675.90         243.6730
   676.04         245.5403
   676.18         247.2523
   676.32         248.8171
   676.46         250.2867
   676.60         251.7564
   676.74         253.3092
   676.88         254.9364
   677.02         256.5244
   677.16         257.8906
   677.30         258.8445
   677.44         259.2385
   677.58         258.9935
   677.72         258.1020
   677.86         256.6057
   678.00         254.5888
   678.14         252.2086
   678.28         249.6919
   678.42         247.3056
   678.56         245.3183
   678.70         243.9623
   678.84         243.4004
   678.98         243.6840
   679.12         244.7527
   679.26         246.4621
   679.40         248.5907
   679.54         250.9019
   679.68         253.2182
   679.82         255.4329
   679.96         257.4865
   680.10         259.3261
   680.24         260.8842
   680.38         262.0929
   680.52         262.9021
   680.66         263.3101
   680.80         263.3723
   680.94         263.1844
   681.08         262.8793
   681.22         262.5961
   681.36         262.4437
   681.50         262.4745
   681.64         262.6869
   681.78         263.0817
   681.92         263.6684
   682.06         264.4329
   682.20         265.3526
   682.34         266.3978
   682.48         267.5190
   682.62         268.6573
   682.76         269.7405
   682.90         270.7045
   683.04         271.5295
   683.18         272.2337
   683.32         272.8465
   683.46         273.3889
   683.60         273.8686
   683.74         274.2712
   683.88         274.5468
   684.02         274.6269
   684.16         274.4508
   684.30         273.9950
   684.44         273.2876
   684.58         272.3716
   684.72         271.2801
   684.86         270.0542
   685.00         268.7520
   685.14         267.4511
   685.28         266.2409
   685.42         265.1598
   685.56         264.1509
   685.70         263.0636
   685.84         261.6789
   685.98         259.7799
   686.12         257.2243
   686.26         253.9816
   686.40         250.1534
   686.54         245.9782
   686.68         241.7962
   686.82         237.9873
   686.96         234.9287
   687.10         232.9588
   687.24         232.3166
   687.38         233.0889
   687.52         235.2205
   687.66         238.5384
   687.80         242.7549
   687.94         247.4789
   688.08         252.2617
   688.22         256.7065
   688.36         260.5615
   688.50         263.7483
   688.64         266.3189
   688.78         268.3840
   688.92         270.0899
   689.06         271.6152
   689.20         273.1236
   689.34         274.7316
   689.48         276.5185
   689.62         278.5250
   689.76         280.7376
   689.90         283.0841
   690.04         285.4517
   690.18         287.7234
   690.32         289.8211
   690.46         291.7155
   690.60         293.3911
   690.74         294.8337
   690.88         296.0497
   691.02         297.0509
   691.16         297.8245
   691.30         298.3333
   691.44         298.5652
   691.58         298.5659
   691.72         298.3959
   691.86         298.0903
   692.00         297.6720
   692.14         297.1601
   692.28         296.5762
   692.42         295.9702
   692.56         295.4310
   692.70         295.0761
   692.84         295.0222
   692.98         295.3523
   693.12         296.0695
   693.26         297.0910
   693.40         298.3054
   693.54         299.6131
   693.68         300.9057
   693.82         302.0664
   693.96         303.0148
   694.10         303.7236
   694.24         304.1991
   694.38         304.4618
   694.52         304.5643
   694.66         304.6044
   694.80         304.7119
   694.94         305.0257
   695.08         305.6606
   695.22         306.6842
   695.36         308.1134
   695.50         309.9309
   695.64         312.0939
   695.78         314.5291
   695.92         317.1577
   696.06         319.9027
   696.20         322.6549
   696.34         325.2384
   696.48         327.4274
   696.62         329.0031
   696.76         329.8285
   696.90         329.9184
   697.04         329.4309
   697.18         328.5978
   697.32         327.6631
   697.46         326.8475
   697.60         326.2955
   697.74         326.0623
   697.88         326.1612
   698.02         326.5830
   698.16         327.2933
   698.30         328.2113
   698.44         329.2251
   698.58         330.2283
   698.72         331.1023
   698.86         331.7093
   699.00         331.9600
   699.14         331.8640
   699.28         331.5258
   699.42         331.1127
   699.56         330.7967
   699.70         330.6951
   699.84         330.8524
   699.98         331.2726
   700.12         331.9179
   700.26         332.6789
   700.40         333.4351
   700.54         334.1316
   700.68         334.7724
   700.82         335.3841
   700.96         335.9645
   701.10         336.4674
   701.24         336.8274
   701.38         336.9970
   701.52         336.9758
   701.66         336.8163
   701.80         336.5924
   701.94         336.3652
   702.08         336.1854
   702.22         336.1273
   702.36         336.2727
   702.50         336.6379
   702.64         337.1675
   702.78         337.7996
   702.92         338.5446
   703.06         339.5023
   703.20         340.7764
   703.34         342.4001
   703.48         344.3414
   703.62         346.5295
   703.76         348.8650
   703.90         351.1870
   704.04         353.2184
   704.18         354.5556
   704.32         354.7771
   704.46         353.5663
   704.60         350.7217
   704.74         346.1592
   704.88         339.9310
   705.02         332.2185
   705.16         323.3291
   705.30         313.6965
   705.44         303.8323
   705.58         294.2356
   705.72         285.3402
   705.86         277.5357
   706.00         271.1782
   706.14         266.5165
   706.28         263.6029
   706.42         262.2973
   706.56         262.3548
   706.70         263.5077
   706.84         265.5183
   706.98         268.2006
   707.12         271.3458
   707.26         274.6278
   707.40         277.6319
   707.54         279.9279
   707.68         281.1305
   707.82         280.9685
   707.96         279.3243
   708.10         276.2374
   708.24         271.8990
   708.38         266.6394
   708.52         260.8622
   708.66         254.9678
   708.80         249.3196
   708.94         244.2328
   709.08         239.9707
   709.22         236.7197
   709.36         234.5616
   709.50         233.4662
   709.64         233.2905
   709.78         233.7998
   709.92         234.7231
   710.06         235.8363
   710.20         237.0127
   710.34         238.2295
   710.48         239.5428
   710.62         241.0090
   710.76         242.6370
   710.90         244.4254
   711.04         246.3615
   711.18         248.3467
   711.32         250.1746
   711.46         251.5875
   711.60         252.3531
   711.74         252.3072
   711.88         251.3534
   712.02         249.4672
   712.16         246.7029
   712.30         243.2103
   712.44         239.2219
   712.58         235.0226
   712.72         230.9295
   712.86         227.2485
   713.00         224.2255
   713.14         222.0100
   713.28         220.6496
   713.42         220.1068
   713.56         220.2713
   713.70         220.9584
   713.84         221.9403
   713.98         223.0518
   714.12         224.2484
   714.26         225.5564
   714.40         227.0117
   714.54         228.6358
   714.68         230.4185
   714.82         232.3261
   714.96         234.3217
   715.10         236.3387
   715.24         238.2912
   715.38         240.1119
   715.52         241.7521
   715.66         243.1598
   715.80         244.2862
   715.94         245.1185
   716.08         245.6852
   716.22         246.0473
   716.36         246.2919
   716.50         246.5068
   716.64         246.7577
   716.78         247.0727
   716.92         247.4545
   717.06         247.9078
   717.20         248.4283
   717.34         248.9518
   717.48         249.3698
   717.62         249.5940
   717.76         249.5895
   717.90         249.3830
   718.04         249.0268
   718.18         248.5949
   718.32         248.1811
   718.46         247.8733
   718.60         247.7378
   718.74         247.7993
   718.88         248.0360
   719.02         248.4239
   719.16         248.9555
   719.30         249.6041
   719.44         250.3058
   719.58         250.9916
   719.72         251.6329
   719.86         252.2362
   720.00         252.8238
   720.14         253.4734
   720.28         254.3321
   720.42         255.5624
   720.56         257.2875
   720.70         259.5600
   720.84         262.3704
   720.98         265.6423
   721.12         269.2316
   721.26         272.9757
   721.40         276.7341
   721.54         280.3892
   721.68         283.8446
   721.82         287.0147
   721.96         289.8165
   722.10         292.1985
   722.24         294.1507
   722.38         295.6755
   722.52         296.7757
   722.66         297.4520
   722.80         297.7162
   722.94         297.6206
   723.08         297.2555
   723.22         296.6987
   723.36         296.0339
   723.50         295.4108
   723.64         295.0098
   723.78         294.9722
   723.92         295.3458
   724.06         296.0820
   724.20         297.1009
   724.34         298.3779
   724.48         299.9296
   724.62         301.7227
   724.76         303.6606
   724.90         305.6303
   725.04         307.5674
   725.18         309.4571
   725.32         311.2626
   725.46         312.9582
   725.60         314.5617
   725.74         316.0943
   725.88         317.5580
   726.02         318.9510
   726.16         320.2344
   726.30         321.3113
   726.44         322.0808
   726.58         322.4848
   726.72         322.5485
   726.86         322.3636
   727.00         322.0272
   727.14         321.6054
   727.28         321.1573
   727.42         320.7546
   727.56         320.4410
   727.70         320.1987
   727.84         319.9473
   727.98         319.6175
   728.12         319.2279
   728.26         318.8558
   728.40         318.5839
   728.54         318.4796
   728.68         318.5904
   728.82         318.9530
   728.96         319.5852
   729.10         320.4672
   729.24         321.5808
   729.38         322.9182
   729.52         324.4650
   729.66         326.1839
   729.80         327.9839
   729.94         329.7365
   730.08         331.3020
   730.22         332.5523
   730.36         333.4192
   730.50         333.9384
   730.64         334.2324
   730.78         334.4212
   730.92         334.5436
   731.06         334.5464
   731.20         334.3692
   731.34         334.0428
   731.48         333.6851
   731.62         333.4159
   731.76         333.3067
   731.90         333.3983
   732.04         333.7031
   732.18         334.2154
   732.32         334.9453
   732.46         335.9550
   732.60         337.3392
   732.74         339.1419
   732.88         341.3142
   733.02         343.7272
   733.16         346.2184
   733.30         348.6340
   733.44         350.8465
   733.58         352.7667
   733.72         354.3356
   733.86         355.5165
   734.00         356.2710
   734.14         356.4931
   734.28         356.0204
   734.42         354.7555
   734.56         352.7738
   734.70         350.2945
   734.84         347.5614
   734.98         344.7768
   735.12         342.0997
   735.26         339.6610
   735.40         337.5885
   735.54         335.9985
   735.68         334.9940
   735.82         334.7131
   735.96         335.2937
   736.10         336.7911
   736.24         339.1506
   736.38         342.2199
   736.52         345.8083
   736.66         349.7192
   736.80         353.7265
   736.94         357.5903
   737.08         361.0927
   737.22         364.0279
   737.36         366.1640
   737.50         367.2581
   737.64         367.1500
   737.78         365.8534
   737.92         363.5456
   738.06         360.4959
   738.20         357.0162
   738.34         353.4620
   738.48         350.2076
   738.62         347.5498
   738.76         345.6709
   738.90         344.6476
   739.04         344.4924
   739.18         345.1877
   739.32         346.6310
   739.46         348.6031
   739.60         350.8216
   739.74         353.0095
   739.88         354.9349
   740.02         356.4228
   740.16         357.3554
   740.30         357.6783
   740.44         357.4009
   740.58         356.5742
   740.72         355.2866
   740.86         353.6557
   741.00         351.8060
   741.14         349.8624
   741.28         347.9681
   741.42         346.3066
   741.56         345.0872
   741.70         344.5026
   741.84         344.6441
   741.98         345.4452
   742.12         346.7279
   742.26         348.2726
   742.40         349.8648
   742.54         351.3141
   742.68         352.4365
   742.82         353.0552
   742.96         353.0552
   743.10         352.4365
   743.24         351.3141
   743.38         349.8648
   743.52         348.2726
   743.66         346.7279
   743.80         345.4452
   743.94         344.6441
   744.08         344.5026
   744.22         345.0872
