# File HD13494
# Wavelength [nm]    Normalized Amplitude
   349.70         97.3297
   349.84         97.6391
   349.98         97.9475
   350.12         98.2394
   350.26         98.4976
   350.40         98.7200
   350.54         98.9055
   350.68         99.0459
   350.82         99.1392
   350.96         99.1904
   351.10         99.2063
   351.24         99.1904
   351.38         99.1392
   351.52         99.0459
   351.66         98.9055
   351.80         98.7200
   351.94         98.4976
   352.08         98.2394
   352.22         97.9475
   352.36         97.6391
   352.50         97.3297
   352.64         97.0310
   352.78         96.7585
   352.92         96.5255
   353.06         96.3318
   353.20         96.1625
   353.34         96.0207
   353.48         95.9329
   353.62         95.9165
   353.76         95.9639
   353.90         96.0325
   354.04         96.0641
   354.18         96.0167
   354.32         95.8739
   354.46         95.6480
   354.60         95.3620
   354.74         95.0297
   354.88         94.6639
   355.02         94.2828
   355.16         93.9069
   355.30         93.5588
   355.44         93.2561
   355.58         93.0085
   355.72         92.8247
   355.86         92.7317
   356.00         92.7647
   356.14         92.9356
   356.28         93.2278
   356.42         93.6086
   356.56         94.0382
   356.70         94.4866
   356.84         94.9277
   356.98         95.3232
   357.12         95.6278
   357.26         95.7877
   357.40         95.7551
   357.54         95.5257
   357.68         95.1319
   357.82         94.6170
   357.96         94.0275
   358.10         93.4085
   358.24         92.8082
   358.38         92.2638
   358.52         91.7901
   358.66         91.3784
   358.80         91.0159
   358.94         90.6991
   359.08         90.4241
   359.22         90.1899
   359.36         90.0055
   359.50         89.8797
   359.64         89.8198
   359.78         89.8343
   359.92         89.9270
   360.06         90.1021
   360.20         90.3568
   360.34         90.6610
   360.48         90.9626
   360.62         91.2079
   360.76         91.3545
   360.90         91.3832
   361.04         91.2960
   361.18         91.1110
   361.32         90.8587
   361.46         90.5785
   361.60         90.3072
   361.74         90.0673
   361.88         89.8656
   362.02         89.6900
   362.16         89.5047
   362.30         89.2653
   362.44         88.9401
   362.58         88.5176
   362.72         88.0076
   362.86         87.4340
   363.00         86.8301
   363.14         86.2411
   363.28         85.7250
   363.42         85.3401
   363.56         85.1217
   363.70         85.0727
   363.84         85.1744
   363.98         85.4006
   364.12         85.7206
   364.26         86.0898
   364.40         86.4479
   364.54         86.7376
   364.68         86.9181
   364.82         86.9736
   364.96         86.9161
   365.10         86.7721
   365.24         86.5673
   365.38         86.3220
   365.52         86.0534
   365.66         85.7800
   365.80         85.5217
   365.94         85.2903
   366.08         85.0857
   366.22         84.9095
   366.36         84.7760
   366.50         84.7015
   366.64         84.6855
   366.78         84.7136
   366.92         84.7780
   367.06         84.8810
   367.20         85.0216
   367.34         85.1849
   367.48         85.3501
   367.62         85.4960
   367.76         85.6006
   367.90         85.6532
   368.04         85.6562
   368.18         85.6114
   368.32         85.5135
   368.46         85.3604
   368.60         85.1618
   368.74         84.9378
   368.88         84.7051
   369.02         84.4607
   369.16         84.1861
   369.30         83.8667
   369.44         83.5056
   369.58         83.1171
   369.72         82.7124
   369.86         82.2961
   370.00         81.8794
   370.14         81.4927
   370.28         81.1726
   370.42         80.9570
   370.56         80.8892
   370.70         80.9976
   370.84         81.2739
   370.98         81.6830
   371.12         82.1800
   371.26         82.7070
   371.40         83.1966
   371.54         83.5937
   371.68         83.8709
   371.82         84.0203
   371.96         84.0371
   372.10         83.9135
   372.24         83.6447
   372.38         83.2444
   372.52         82.7548
   372.66         82.2530
   372.80         81.8375
   372.94         81.5974
   373.08         81.5989
   373.22         81.8769
   373.36         82.4182
   373.50         83.1602
   373.64         84.0166
   373.78         84.8959
   373.92         85.7074
   374.06         86.3805
   374.20         86.8841
   374.34         87.2212
   374.48         87.4111
   374.62         87.4906
   374.76         87.5221
   374.90         87.5857
   375.04         87.7665
   375.18         88.1293
   375.32         88.6912
   375.46         89.4062
   375.60         90.1721
   375.74         90.8547
   375.88         91.3108
   376.02         91.4109
   376.16         91.0813
   376.30         90.3418
   376.44         89.3002
   376.58         88.1184
   376.72         86.9797
   376.86         86.0576
   377.00         85.4879
   377.14         85.3522
   377.28         85.6792
   377.42         86.4456
   377.56         87.5762
   377.70         88.9556
   377.84         90.4397
   377.98         91.8679
   378.12         93.0812
   378.26         93.9396
   378.40         94.3337
   378.54         94.1974
   378.68         93.5257
   378.82         92.3883
   378.96         90.9099
   379.10         89.2361
   379.24         87.5172
   379.38         85.9059
   379.52         84.5538
   379.66         83.5988
   379.80         83.1426
   379.94         83.2302
   380.08         83.8459
   380.22         84.9270
   380.36         86.3692
   380.50         88.0271
   380.64         89.7253
   380.78         91.2790
   380.92         92.5317
   381.06         93.3966
   381.20         93.8721
   381.34         94.0208
   381.48         93.9335
   381.62         93.6901
   381.76         93.3462
   381.90         92.9324
   382.04         92.4432
   382.18         91.8328
   382.32         91.0317
   382.46         89.9786
   382.60         88.6478
   382.74         87.0668
   382.88         85.3154
   383.02         83.5070
   383.16         81.7774
   383.30         80.2830
   383.44         79.1879
   383.58         78.6379
   383.72         78.7332
   383.86         79.4950
   384.00         80.8535
   384.14         82.6731
   384.28         84.7843
   384.42         87.0092
   384.56         89.1748
   384.70         91.1314
   384.84         92.7776
   384.98         94.0704
   385.12         95.0111
   385.26         95.6237
   385.40         95.9453
   385.54         96.0203
   385.68         95.8916
   385.82         95.5977
   385.96         95.1773
   386.10         94.6681
   386.24         94.0978
   386.38         93.4858
   386.52         92.8498
   386.66         92.2066
   386.80         91.5702
   386.94         90.9462
   387.08         90.3249
   387.22         89.6775
   387.36         88.9584
   387.50         88.1093
   387.64         87.0708
   387.78         85.7995
   387.92         84.2903
   388.06         82.5899
   388.20         80.7893
   388.34         79.0097
   388.48         77.3864
   388.62         76.0542
   388.76         75.1341
   388.90         74.7174
   389.04         74.8592
   389.18         75.5720
   389.32         76.8124
   389.46         78.4773
   389.60         80.4215
   389.74         82.4790
   389.88         84.4865
   390.02         86.3040
   390.16         87.8301
   390.30         89.0130
   390.44         89.8532
   390.58         90.3944
   390.72         90.6992
   390.86         90.8201
   391.00         90.7923
   391.14         90.6421
   391.28         90.3955
   391.42         90.0789
   391.56         89.7103
   391.70         89.2951
   391.84         88.8282
   391.98         88.2940
   392.12         87.6741
   392.26         86.9622
   392.40         86.1758
   392.54         85.3555
   392.68         84.5571
   392.82         83.8439
   392.96         83.2779
   393.10         82.9019
   393.24         82.7289
   393.38         82.7460
   393.52         82.9265
   393.66         83.2420
   393.80         83.6628
   393.94         84.1497
   394.08         84.6530
   394.22         85.1224
   394.36         85.5157
   394.50         85.7978
   394.64         85.9427
   394.78         85.9449
   394.92         85.8210
   395.06         85.5957
   395.20         85.2806
   395.34         84.8588
   395.48         84.2832
   395.62         83.4839
   395.76         82.3906
   395.90         80.9663
   396.04         79.2291
   396.18         77.2590
   396.32         75.1878
   396.46         73.1766
   396.60         71.3911
   396.74         69.9828
   396.88         69.0721
   397.02         68.7360
   397.16         69.0000
   397.30         69.8363
   397.44         71.1657
   397.58         72.8597
   397.72         74.7541
   397.86         76.6712
   398.00         78.4450
   398.14         79.9450
   398.28         81.0939
   398.42         81.8782
   398.56         82.3435
   398.70         82.5694
   398.84         82.6421
   398.98         82.6335
   399.12         82.5890
   399.26         82.5305
   399.40         82.4631
   399.54         82.3822
   399.68         82.2775
   399.82         82.1318
   399.96         81.9256
   400.10         81.6469
   400.24         81.2959
   400.38         80.8879
   400.52         80.4497
   400.66         80.0147
   400.80         79.6179
   400.94         79.2836
   401.08         79.0133
   401.22         78.7806
   401.36         78.5413
   401.50         78.2522
   401.64         77.8861
   401.78         77.4371
   401.92         76.9190
   402.06         76.3625
   402.20         75.8101
   402.34         75.3068
   402.48         74.8936
   402.62         74.6060
   402.76         74.4704
   402.90         74.4962
   403.04         74.6689
   403.18         74.9535
   403.32         75.3031
   403.46         75.6624
   403.60         75.9763
   403.74         76.2061
   403.88         76.3402
   404.02         76.3961
   404.16         76.4066
   404.30         76.4070
   404.44         76.4247
   404.58         76.4720
   404.72         76.5450
   404.86         76.6294
   405.00         76.7086
   405.14         76.7669
   405.28         76.7896
   405.42         76.7586
   405.56         76.6540
   405.70         76.4584
   405.84         76.1599
   405.98         75.7551
   406.12         75.2528
   406.26         74.6743
   406.40         74.0508
   406.54         73.4200
   406.68         72.8227
   406.82         72.2927
   406.96         71.8530
   407.10         71.5124
   407.24         71.2651
   407.38         71.0950
   407.52         70.9829
   407.66         70.9063
   407.80         70.8402
   407.94         70.7617
   408.08         70.6523
   408.22         70.4959
   408.36         70.2747
   408.50         69.9660
   408.64         69.5443
   408.78         68.9809
   408.92         68.2465
   409.06         67.3237
   409.20         66.2183
   409.34         64.9634
   409.48         63.6192
   409.62         62.2706
   409.76         61.0197
   409.90         59.9733
   410.04         59.2277
   410.18         58.8539
   410.32         58.8852
   410.46         59.3109
   410.60         60.0733
   410.74         61.0751
   410.88         62.1996
   411.02         63.3311
   411.16         64.3723
   411.30         65.2554
   411.44         65.9486
   411.58         66.4582
   411.72         66.8221
   411.86         67.0913
   412.00         67.3128
   412.14         67.5197
   412.28         67.7274
   412.42         67.9357
   412.56         68.1328
   412.70         68.2995
   412.84         68.4131
   412.98         68.4508
   413.12         68.3957
   413.26         68.2440
   413.40         68.0130
   413.54         67.7408
   413.68         67.4736
   413.82         67.2547
   413.96         67.1179
   414.10         67.0840
   414.24         67.1566
   414.38         67.3239
   414.52         67.5651
   414.66         67.8554
   414.80         68.1668
   414.94         68.4684
   415.08         68.7320
   415.22         68.9340
   415.36         69.0555
   415.50         69.0826
   415.64         69.0120
   415.78         68.8523
   415.92         68.6245
   416.06         68.3586
   416.20         68.0834
   416.34         67.8179
   416.48         67.5717
   416.62         67.3468
   416.76         67.1416
   416.90         66.9527
   417.04         66.7761
   417.18         66.6088
   417.32         66.4495
   417.46         66.2985
   417.60         66.1567
   417.74         66.0243
   417.88         65.9037
   418.02         65.7987
   418.16         65.7126
   418.30         65.6519
   418.44         65.6227
   418.58         65.6270
   418.72         65.6622
   418.86         65.7179
   419.00         65.7806
   419.14         65.8388
   419.28         65.8844
   419.42         65.9114
   419.56         65.9146
   419.70         65.8928
   419.84         65.8524
   419.98         65.7999
   420.12         65.7370
   420.26         65.6656
   420.40         65.5949
   420.54         65.5384
   420.68         65.5044
   420.82         65.4950
   420.96         65.5081
   421.10         65.5350
   421.24         65.5620
   421.38         65.5758
   421.52         65.5657
   421.66         65.5255
   421.80         65.4539
   421.94         65.3510
   422.08         65.2178
   422.22         65.0605
   422.36         64.8907
   422.50         64.7223
   422.64         64.5676
   422.78         64.4387
   422.92         64.3471
   423.06         64.2991
   423.20         64.2927
   423.34         64.3188
   423.48         64.3651
   423.62         64.4170
   423.76         64.4599
   423.90         64.4799
   424.04         64.4614
   424.18         64.3899
   424.32         64.2582
   424.46         64.0679
   424.60         63.8291
   424.74         63.5557
   424.88         63.2638
   425.02         62.9717
   425.16         62.6961
   425.30         62.4480
   425.44         62.2285
   425.58         62.0307
   425.72         61.8485
   425.86         61.6789
   426.00         61.5207
   426.14         61.3752
   426.28         61.2470
   426.42         61.1388
   426.56         61.0471
   426.70         60.9663
   426.84         60.8961
   426.98         60.8366
   427.12         60.7804
   427.26         60.7149
   427.40         60.6283
   427.54         60.5179
   427.68         60.3903
   427.82         60.2542
   427.96         60.1191
   428.10         59.9941
   428.24         59.8911
   428.38         59.8244
   428.52         59.8045
   428.66         59.8350
   428.80         59.9113
   428.94         60.0168
   429.08         60.1280
   429.22         60.2280
   429.36         60.3114
   429.50         60.3794
   429.64         60.4328
   429.78         60.4734
   429.92         60.5061
   430.06         60.5357
   430.20         60.5607
   430.34         60.5705
   430.48         60.5488
   430.62         60.4780
   430.76         60.3465
   430.90         60.1530
   431.04         59.9072
   431.18         59.6272
   431.32         59.3347
   431.46         59.0486
   431.60         58.7854
   431.74         58.5602
   431.88         58.3809
   432.02         58.2390
   432.16         58.1100
   432.30         57.9555
   432.44         57.7295
   432.58         57.3843
   432.72         56.8773
   432.86         56.1785
   433.00         55.2798
   433.14         54.2037
   433.28         53.0039
   433.42         51.7573
   433.56         50.5504
   433.70         49.4687
   433.84         48.5885
   433.98         47.9694
   434.12         47.6496
   434.26         47.6436
   434.40         47.9403
   434.54         48.5064
   434.68         49.2924
   434.82         50.2370
   434.96         51.2692
   435.10         52.3180
   435.24         53.3234
   435.38         54.2419
   435.52         55.0475
   435.66         55.7290
   435.80         56.2886
   435.94         56.7340
   436.08         57.0734
   436.22         57.3158
   436.36         57.4746
   436.50         57.5657
   436.64         57.6057
   436.78         57.6085
   436.92         57.5835
   437.06         57.5368
   437.20         57.4717
   437.34         57.3824
   437.48         57.2558
   437.62         57.0798
   437.76         56.8501
   437.90         56.5713
   438.04         56.2554
   438.18         55.9204
   438.32         55.5906
   438.46         55.2934
   438.60         55.0546
   438.74         54.8939
   438.88         54.8231
   439.02         54.8430
   439.16         54.9427
   439.30         55.1046
   439.44         55.3072
   439.58         55.5281
   439.72         55.7434
   439.86         55.9237
   440.00         56.0383
   440.14         56.0655
   440.28         55.9968
   440.42         55.8346
   440.56         55.5923
   440.70         55.2940
   440.84         54.9673
   440.98         54.6357
   441.12         54.3173
   441.26         54.0248
   441.40         53.7653
   441.54         53.5410
   441.68         53.3510
   441.82         53.1936
   441.96         53.0637
   442.10         52.9516
   442.24         52.8448
   442.38         52.7293
   442.52         52.5941
   442.66         52.4415
   442.80         52.2871
   442.94         52.1515
   443.08         52.0562
   443.22         52.0179
   443.36         52.0415
   443.50         52.1171
   443.64         52.2274
   443.78         52.3569
   443.92         52.4927
   444.06         52.6237
   444.20         52.7394
   444.34         52.8316
   444.48         52.8980
   444.62         52.9451
   444.76         52.9850
   444.90         53.0296
   445.04         53.0884
   445.18         53.1682
   445.32         53.2712
   445.46         53.3848
   445.60         53.4803
   445.74         53.5229
   445.88         53.4761
   446.02         53.3105
   446.16         53.0166
   446.30         52.6100
   446.44         52.1243
   446.58         51.5987
   446.72         51.0765
   446.86         50.6066
   447.00         50.2365
   447.14         50.0046
   447.28         49.9322
   447.42         50.0210
   447.56         50.2570
   447.70         50.6128
   447.84         51.0493
   447.98         51.5201
   448.12         51.9772
   448.26         52.3795
   448.40         52.7014
   448.54         52.9322
   448.68         53.0734
   448.82         53.1354
   448.96         53.1327
   449.10         53.0773
   449.24         52.9782
   449.38         52.8494
   449.52         52.7081
   449.66         52.5661
   449.80         52.4330
   449.94         52.3185
   450.08         52.2291
   450.22         52.1661
   450.36         52.1260
   450.50         52.1023
   450.64         52.0887
   450.78         52.0788
   450.92         52.0646
   451.06         52.0400
   451.20         52.0023
   451.34         51.9507
   451.48         51.8856
   451.62         51.8088
   451.76         51.7249
   451.90         51.6374
   452.04         51.5471
   452.18         51.4544
   452.32         51.3576
   452.46         51.2588
   452.60         51.1620
   452.74         51.0688
   452.88         50.9814
   453.02         50.9023
   453.16         50.8305
   453.30         50.7640
   453.44         50.7007
   453.58         50.6362
   453.72         50.5644
   453.86         50.4783
   454.00         50.3701
   454.14         50.2323
   454.28         50.0618
   454.42         49.8636
   454.56         49.6465
   454.70         49.4253
   454.84         49.2202
   454.98         49.0472
   455.12         48.9152
   455.26         48.8242
   455.40         48.7680
   455.54         48.7386
   455.68         48.7268
   455.82         48.7241
   455.96         48.7267
   456.10         48.7307
   456.24         48.7266
   456.38         48.7071
   456.52         48.6745
   456.66         48.6358
   456.80         48.5992
   456.94         48.5767
   457.08         48.5827
   457.22         48.6270
   457.36         48.7105
   457.50         48.8211
   457.64         48.9339
   457.78         49.0222
   457.92         49.0663
   458.06         49.0578
   458.20         48.9986
   458.34         48.8955
   458.48         48.7543
   458.62         48.5809
   458.76         48.3840
   458.90         48.1801
   459.04         47.9932
   459.18         47.8438
   459.32         47.7450
   459.46         47.7029
   459.60         47.7146
   459.74         47.7665
   459.88         47.8369
   460.02         47.9039
   460.16         47.9484
   460.30         47.9590
   460.44         47.9358
   460.58         47.8887
   460.72         47.8293
   460.86         47.7645
   461.00         47.6929
   461.14         47.6139
   461.28         47.5359
   461.42         47.4728
   461.56         47.4358
   461.70         47.4299
   461.84         47.4523
   461.98         47.4946
   462.12         47.5443
   462.26         47.5892
   462.40         47.6207
   462.54         47.6318
   462.68         47.6142
   462.82         47.5571
   462.96         47.4505
   463.10         47.2864
   463.24         47.0612
   463.38         46.7774
   463.52         46.4449
   463.66         46.0789
   463.80         45.6990
   463.94         45.3259
   464.08         44.9799
   464.22         44.6791
   464.36         44.4367
   464.50         44.2601
   464.64         44.1549
   464.78         44.1263
   464.92         44.1725
   465.06         44.2822
   465.20         44.4411
   465.34         44.6357
   465.48         44.8529
   465.62         45.0808
   465.76         45.3083
   465.90         45.5249
   466.04         45.7206
   466.18         45.8850
   466.32         46.0065
   466.46         46.0795
   466.60         46.1095
   466.74         46.1097
   466.88         46.0931
   467.02         46.0709
   467.16         46.0544
   467.30         46.0537
   467.44         46.0728
   467.58         46.1090
   467.72         46.1561
   467.86         46.2078
   468.00         46.2524
   468.14         46.2741
   468.28         46.2599
   468.42         46.2020
   468.56         46.0973
   468.70         45.9485
   468.84         45.7594
   468.98         45.5342
   469.12         45.2840
   469.26         45.0248
   469.40         44.7690
   469.54         44.5246
   469.68         44.2974
   469.82         44.0896
   469.96         43.8987
   470.10         43.7217
   470.24         43.5583
   470.38         43.4111
   470.52         43.2853
   470.66         43.1870
   470.80         43.1245
   470.94         43.1049
   471.08         43.1278
   471.22         43.1860
   471.36         43.2681
   471.50         43.3604
   471.64         43.4532
   471.78         43.5416
   471.92         43.6194
   472.06         43.6794
   472.20         43.7172
   472.34         43.7305
   472.48         43.7194
   472.62         43.6865
   472.76         43.6351
   472.90         43.5697
   473.04         43.4959
   473.18         43.4199
   473.32         43.3508
   473.46         43.2975
   473.60         43.2630
   473.74         43.2466
   473.88         43.2485
   474.02         43.2698
   474.16         43.3118
   474.30         43.3755
   474.44         43.4571
   474.58         43.5499
   474.72         43.6471
   474.86         43.7370
   475.00         43.8050
   475.14         43.8379
   475.28         43.8263
   475.42         43.7676
   475.56         43.6665
   475.70         43.5316
   475.84         43.3697
   475.98         43.1883
   476.12         42.9963
   476.26         42.8027
   476.40         42.6175
   476.54         42.4495
   476.68         42.3020
   476.82         42.1727
   476.96         42.0556
   477.10         41.9422
   477.24         41.8258
   477.38         41.7011
   477.52         41.5652
   477.66         41.4242
   477.80         41.2884
   477.94         41.1642
   478.08         41.0529
   478.22         40.9518
   478.36         40.8558
   478.50         40.7594
   478.64         40.6627
   478.78         40.5720
   478.92         40.4930
   479.06         40.4244
   479.20         40.3611
   479.34         40.3039
   479.48         40.2610
   479.62         40.2420
   479.76         40.2544
   479.90         40.3041
   480.04         40.3926
   480.18         40.5165
   480.32         40.6668
   480.46         40.8301
   480.60         40.9943
   480.74         41.1526
   480.88         41.2998
   481.02         41.4301
   481.16         41.5395
   481.30         41.6252
   481.44         41.6823
   481.58         41.7055
   481.72         41.6905
   481.86         41.6399
   482.00         41.5657
   482.14         41.4802
   482.28         41.3907
   482.42         41.3036
   482.56         41.2246
   482.70         41.1593
   482.84         41.1146
   482.98         41.0964
   483.12         41.1073
   483.26         41.1453
   483.40         41.2024
   483.54         41.2658
   483.68         41.3213
   483.82         41.3562
   483.96         41.3613
   484.10         41.3298
   484.24         41.2556
   484.38         41.1256
   484.52         40.9205
   484.66         40.6206
   484.80         40.2063
   484.94         39.6656
   485.08         39.0017
   485.22         38.2348
   485.36         37.4045
   485.50         36.5628
   485.64         35.7647
   485.78         35.0634
   485.92         34.5083
   486.06         34.1392
   486.20         33.9798
   486.34         34.0360
   486.48         34.2978
   486.62         34.7387
   486.76         35.3142
   486.90         35.9664
   487.04         36.6358
   487.18         37.2740
   487.32         37.8465
   487.46         38.3300
   487.60         38.7149
   487.74         39.0050
   487.88         39.2124
   488.02         39.3521
   488.16         39.4363
   488.30         39.4739
   488.44         39.4750
   488.58         39.4479
   488.72         39.3970
   488.86         39.3247
   489.00         39.2338
   489.14         39.1286
   489.28         39.0147
   489.42         38.8988
   489.56         38.7921
   489.70         38.7085
   489.84         38.6590
   489.98         38.6487
   490.12         38.6797
   490.26         38.7522
   490.40         38.8608
   490.54         38.9932
   490.68         39.1307
   490.82         39.2491
   490.96         39.3209
   491.10         39.3190
   491.24         39.2251
   491.38         39.0372
   491.52         38.7699
   491.66         38.4511
   491.80         38.1180
   491.94         37.8123
   492.08         37.5712
   492.22         37.4225
   492.36         37.3821
   492.50         37.4521
   492.64         37.6206
   492.78         37.8631
   492.92         38.1455
   493.06         38.4309
   493.20         38.6840
   493.34         38.8730
   493.48         38.9760
   493.62         38.9861
   493.76         38.9139
   493.90         38.7842
   494.04         38.6280
   494.18         38.4758
   494.32         38.3504
   494.46         38.2631
   494.60         38.2149
   494.74         38.1981
   494.88         38.2008
   495.02         38.2091
   495.16         38.2092
   495.30         38.1916
   495.44         38.1515
   495.58         38.0901
   495.72         38.0128
   495.86         37.9254
   496.00         37.8328
   496.14         37.7409
   496.28         37.6554
   496.42         37.5793
   496.56         37.5114
   496.70         37.4479
   496.84         37.3832
   496.98         37.3113
   497.12         37.2283
   497.26         37.1361
   497.40         37.0399
   497.54         36.9453
   497.68         36.8591
   497.82         36.7885
   497.96         36.7392
   498.10         36.7142
   498.24         36.7134
   498.38         36.7316
   498.52         36.7579
   498.66         36.7796
   498.80         36.7871
   498.94         36.7741
   499.08         36.7345
   499.22         36.6658
   499.36         36.5709
   499.50         36.4582
   499.64         36.3380
   499.78         36.2196
   499.92         36.1080
   500.06         36.0021
   500.20         35.8971
   500.34         35.7883
   500.48         35.6737
   500.62         35.5539
   500.76         35.4321
   500.90         35.3125
   501.04         35.1996
   501.18         35.0967
   501.32         35.0075
   501.46         34.9362
   501.60         34.8879
   501.74         34.8681
   501.88         34.8833
   502.02         34.9362
   502.16         35.0222
   502.30         35.1308
   502.44         35.2475
   502.58         35.3567
   502.72         35.4448
   502.86         35.5047
   503.00         35.5357
   503.14         35.5409
   503.28         35.5243
   503.42         35.4906
   503.56         35.4432
   503.70         35.3835
   503.84         35.3136
   503.98         35.2403
   504.12         35.1739
   504.26         35.1234
   504.40         35.0934
   504.54         35.0820
   504.68         35.0827
   504.82         35.0882
   504.96         35.0938
   505.10         35.0946
   505.24         35.0856
   505.38         35.0644
   505.52         35.0318
   505.66         34.9896
   505.80         34.9383
   505.94         34.8790
   506.08         34.8128
   506.22         34.7411
   506.36         34.6677
   506.50         34.5971
   506.64         34.5327
   506.78         34.4738
   506.92         34.4167
   507.06         34.3589
   507.20         34.2993
   507.34         34.2369
   507.48         34.1721
   507.62         34.1061
   507.76         34.0405
   507.90         33.9787
   508.04         33.9251
   508.18         33.8839
   508.32         33.8583
   508.46         33.8521
   508.60         33.8665
   508.74         33.8985
   508.88         33.9427
   509.02         33.9909
   509.16         34.0337
   509.30         34.0629
   509.44         34.0726
   509.58         34.0612
   509.72         34.0301
   509.86         33.9799
   510.00         33.9130
   510.14         33.8335
   510.28         33.7467
   510.42         33.6592
   510.56         33.5789
   510.70         33.5119
   510.84         33.4629
   510.98         33.4349
   511.12         33.4280
   511.26         33.4386
   511.40         33.4605
   511.54         33.4873
   511.68         33.5116
   511.82         33.5256
   511.96         33.5225
   512.10         33.4996
   512.24         33.4578
   512.38         33.3980
   512.52         33.3215
   512.66         33.2316
   512.80         33.1327
   512.94         33.0308
   513.08         32.9333
   513.22         32.8467
   513.36         32.7748
   513.50         32.7212
   513.64         32.6892
   513.78         32.6777
   513.92         32.6823
   514.06         32.6978
   514.20         32.7201
   514.34         32.7461
   514.48         32.7742
   514.62         32.8020
   514.76         32.8253
   514.90         32.8384
   515.04         32.8359
   515.18         32.8150
   515.32         32.7766
   515.46         32.7245
   515.60         32.6653
   515.74         32.6060
   515.88         32.5523
   516.02         32.5070
   516.16         32.4692
   516.30         32.4351
   516.44         32.4013
   516.58         32.3675
   516.72         32.3357
   516.86         32.3053
   517.00         32.2733
   517.14         32.2370
   517.28         32.1956
   517.42         32.1515
   517.56         32.1107
   517.70         32.0795
   517.84         32.0604
   517.98         32.0541
   518.12         32.0590
   518.26         32.0717
   518.40         32.0872
   518.54         32.1009
   518.68         32.1092
   518.82         32.1107
   518.96         32.1060
   519.10         32.0956
   519.24         32.0782
   519.38         32.0517
   519.52         32.0158
   519.66         31.9738
   519.80         31.9293
   519.94         31.8850
   520.08         31.8431
   520.22         31.8049
   520.36         31.7684
   520.50         31.7297
   520.64         31.6865
   520.78         31.6386
   520.92         31.5876
   521.06         31.5342
   521.20         31.4790
   521.34         31.4217
   521.48         31.3618
   521.62         31.2997
   521.76         31.2378
   521.90         31.1801
   522.04         31.1318
   522.18         31.0985
   522.32         31.0838
   522.46         31.0878
   522.60         31.1078
   522.74         31.1386
   522.88         31.1713
   523.02         31.1943
   523.16         31.1971
   523.30         31.1739
   523.44         31.1236
   523.58         31.0483
   523.72         30.9536
   523.86         30.8478
   524.00         30.7383
   524.14         30.6305
   524.28         30.5293
   524.42         30.4390
   524.56         30.3618
   524.70         30.2992
   524.84         30.2523
   524.98         30.2194
   525.12         30.1965
   525.26         30.1794
   525.40         30.1647
   525.54         30.1496
   525.68         30.1313
   525.82         30.1106
   525.96         30.0904
   526.10         30.0723
   526.24         30.0551
   526.38         30.0372
   526.52         30.0163
   526.66         29.9894
   526.80         29.9551
   526.94         29.9143
   527.08         29.8683
   527.22         29.8184
   527.36         29.7668
   527.50         29.7158
   527.64         29.6655
   527.78         29.6155
   527.92         29.5668
   528.06         29.5205
   528.20         29.4777
   528.34         29.4407
   528.48         29.4130
   528.62         29.3969
   528.76         29.3916
   528.90         29.3944
   529.04         29.4017
   529.18         29.4077
   529.32         29.4063
   529.46         29.3950
   529.60         29.3749
   529.74         29.3492
   529.88         29.3229
   530.02         29.3020
   530.16         29.2901
   530.30         29.2875
   530.44         29.2929
   530.58         29.3032
   530.72         29.3139
   530.86         29.3207
   531.00         29.3217
   531.14         29.3157
   531.28         29.3006
   531.42         29.2741
   531.56         29.2343
   531.70         29.1824
   531.84         29.1207
   531.98         29.0526
   532.12         28.9823
   532.26         28.9141
   532.40         28.8512
   532.54         28.7967
   532.68         28.7517
   532.82         28.7157
   532.96         28.6871
   533.10         28.6645
   533.24         28.6469
   533.38         28.6325
   533.52         28.6190
   533.66         28.6036
   533.80         28.5835
   533.94         28.5566
   534.08         28.5217
   534.22         28.4794
   534.36         28.4318
   534.50         28.3816
   534.64         28.3315
   534.78         28.2849
   534.92         28.2448
   535.06         28.2135
   535.20         28.1912
   535.34         28.1759
   535.48         28.1634
   535.62         28.1495
   535.76         28.1318
   535.90         28.1093
   536.04         28.0829
   536.18         28.0564
   536.32         28.0339
   536.46         28.0180
   536.60         28.0091
   536.74         28.0053
   536.88         28.0031
   537.02         27.9994
   537.16         27.9912
   537.30         27.9758
   537.44         27.9513
   537.58         27.9182
   537.72         27.8776
   537.86         27.8294
   538.00         27.7751
   538.14         27.7177
   538.28         27.6599
   538.42         27.6042
   538.56         27.5514
   538.70         27.5004
   538.84         27.4498
   538.98         27.3987
   539.12         27.3471
   539.26         27.2961
   539.40         27.2475
   539.54         27.2063
   539.68         27.1774
   539.82         27.1638
   539.96         27.1661
   540.10         27.1838
   540.24         27.2162
   540.38         27.2618
   540.52         27.3185
   540.66         27.3844
   540.80         27.4543
   540.94         27.5209
   541.08         27.5779
   541.22         27.6205
   541.36         27.6454
   541.50         27.6515
   541.64         27.6385
   541.78         27.6071
   541.92         27.5581
   542.06         27.4923
   542.20         27.4106
   542.34         27.3138
   542.48         27.2074
   542.62         27.1005
   542.76         27.0018
   542.90         26.9185
   543.04         26.8551
   543.18         26.8131
   543.32         26.7890
   543.46         26.7765
   543.60         26.7713
   543.74         26.7704
   543.88         26.7709
   544.02         26.7717
   544.16         26.7731
   544.30         26.7756
   544.44         26.7798
   544.58         26.7851
   544.72         26.7906
   544.86         26.7963
   545.00         26.8014
   545.14         26.8036
   545.28         26.7982
   545.42         26.7801
   545.56         26.7466
   545.70         26.6974
   545.84         26.6338
   545.98         26.5574
   546.12         26.4720
   546.26         26.3841
   546.40         26.3009
   546.54         26.2291
   546.68         26.1746
   546.82         26.1373
   546.96         26.1119
   547.10         26.0916
   547.24         26.0687
   547.38         26.0360
   547.52         25.9875
   547.66         25.9213
   547.80         25.8409
   547.94         25.7540
   548.08         25.6696
   548.22         25.5954
   548.36         25.5362
   548.50         25.4941
   548.64         25.4692
   548.78         25.4630
   548.92         25.4773
   549.06         25.5109
   549.20         25.5589
   549.34         25.6124
   549.48         25.6612
   549.62         25.6989
   549.76         25.7223
   549.90         25.7291
   550.04         25.7191
   550.18         25.6968
   550.32         25.6694
   550.46         25.6434
   550.60         25.6217
   550.74         25.6036
   550.88         25.5859
   551.02         25.5658
   551.16         25.5432
   551.30         25.5190
   551.44         25.4940
   551.58         25.4670
   551.72         25.4347
   551.86         25.3942
   552.00         25.3441
   552.14         25.2850
   552.28         25.2197
   552.42         25.1524
   552.56         25.0890
   552.70         25.0361
   552.84         24.9979
   552.98         24.9743
   553.12         24.9624
   553.26         24.9583
   553.40         24.9584
   553.54         24.9608
   553.68         24.9650
   553.82         24.9706
   553.96         24.9756
   554.10         24.9779
   554.24         24.9755
   554.38         24.9673
   554.52         24.9542
   554.66         24.9375
   554.80         24.9188
   554.94         24.9005
   555.08         24.8852
   555.22         24.8751
   555.36         24.8710
   555.50         24.8730
   555.64         24.8807
   555.78         24.8917
   555.92         24.9006
   556.06         24.9015
   556.20         24.8894
   556.34         24.8614
   556.48         24.8152
   556.62         24.7504
   556.76         24.6698
   556.90         24.5793
   557.04         24.4863
   557.18         24.3976
   557.32         24.3182
   557.46         24.2527
   557.60         24.2054
   557.74         24.1789
   557.88         24.1732
   558.02         24.1855
   558.16         24.2088
   558.30         24.2332
   558.44         24.2492
   558.58         24.2511
   558.72         24.2382
   558.86         24.2124
   559.00         24.1759
   559.14         24.1312
   559.28         24.0813
   559.42         24.0289
   559.56         23.9752
   559.70         23.9220
   559.84         23.8724
   559.98         23.8294
   560.12         23.7951
   560.26         23.7707
   560.40         23.7560
   560.54         23.7489
   560.68         23.7444
   560.82         23.7370
   560.96         23.7245
   561.10         23.7091
   561.24         23.6942
   561.38         23.6825
   561.52         23.6751
   561.66         23.6709
   561.80         23.6684
   561.94         23.6663
   562.08         23.6636
   562.22         23.6594
   562.36         23.6536
   562.50         23.6442
   562.64         23.6285
   562.78         23.6052
   562.92         23.5749
   563.06         23.5392
   563.20         23.5005
   563.34         23.4629
   563.48         23.4321
   563.62         23.4144
   563.76         23.4131
   563.90         23.4281
   564.04         23.4563
   564.18         23.4919
   564.32         23.5283
   564.46         23.5597
   564.60         23.5825
   564.74         23.5939
   564.88         23.5921
   565.02         23.5770
   565.16         23.5489
   565.30         23.5090
   565.44         23.4584
   565.58         23.3978
   565.72         23.3278
   565.86         23.2494
   566.00         23.1635
   566.14         23.0724
   566.28         22.9793
   566.42         22.8872
   566.56         22.7980
   566.70         22.7142
   566.84         22.6386
   566.98         22.5722
   567.12         22.5156
   567.26         22.4703
   567.40         22.4373
   567.54         22.4173
   567.68         22.4105
   567.82         22.4155
   567.96         22.4297
   568.10         22.4492
   568.24         22.4688
   568.38         22.4841
   568.52         22.4930
   568.66         22.4961
   568.80         22.4945
   568.94         22.4876
   569.08         22.4735
   569.22         22.4500
   569.36         22.4152
   569.50         22.3681
   569.64         22.3081
   569.78         22.2380
   569.92         22.1629
   570.06         22.0883
   570.20         22.0197
   570.34         21.9624
   570.48         21.9202
   570.62         21.8953
   570.76         21.8889
   570.90         21.9011
   571.04         21.9301
   571.18         21.9722
   571.32         22.0205
   571.46         22.0657
   571.60         22.0989
   571.74         22.1139
   571.88         22.1072
   572.02         22.0788
   572.16         22.0330
   572.30         21.9778
   572.44         21.9219
   572.58         21.8724
   572.72         21.8335
   572.86         21.8059
   573.00         21.7863
   573.14         21.7696
   573.28         21.7516
   573.42         21.7295
   573.56         21.7008
   573.70         21.6652
   573.84         21.6255
   573.98         21.5859
   574.12         21.5503
   574.26         21.5219
   574.40         21.5022
   574.54         21.4919
   574.68         21.4915
   574.82         21.5011
   574.96         21.5192
   575.10         21.5419
   575.24         21.5649
   575.38         21.5856
   575.52         21.6018
   575.66         21.6129
   575.80         21.6193
   575.94         21.6219
   576.08         21.6211
   576.22         21.6177
   576.36         21.6127
   576.50         21.6057
   576.64         21.5945
   576.78         21.5756
   576.92         21.5459
   577.06         21.5047
   577.20         21.4532
   577.34         21.3937
   577.48         21.3283
   577.62         21.2590
   577.76         21.1889
   577.90         21.1230
   578.04         21.0643
   578.18         21.0139
   578.32         20.9716
   578.46         20.9361
   578.60         20.9063
   578.74         20.8820
   578.88         20.8626
   579.02         20.8457
   579.16         20.8289
   579.30         20.8106
   579.44         20.7906
   579.58         20.7706
   579.72         20.7539
   579.86         20.7425
   580.00         20.7356
   580.14         20.7316
   580.28         20.7286
   580.42         20.7249
   580.56         20.7178
   580.70         20.7043
   580.84         20.6837
   580.98         20.6571
   581.12         20.6276
   581.26         20.5989
   581.40         20.5749
   581.54         20.5573
   581.68         20.5451
   581.82         20.5369
   581.96         20.5314
   582.10         20.5279
   582.24         20.5268
   582.38         20.5291
   582.52         20.5356
   582.66         20.5465
   582.80         20.5624
   582.94         20.5842
   583.08         20.6121
   583.22         20.6454
   583.36         20.6826
   583.50         20.7220
   583.64         20.7630
   583.78         20.8039
   583.92         20.8415
   584.06         20.8716
   584.20         20.8908
   584.34         20.8990
   584.48         20.8984
   584.62         20.8915
   584.76         20.8799
   584.90         20.8647
   585.04         20.8457
   585.18         20.8220
   585.32         20.7926
   585.46         20.7582
   585.60         20.7205
   585.74         20.6820
   585.88         20.6437
   586.02         20.6045
   586.16         20.5604
   586.30         20.5050
   586.44         20.4301
   586.58         20.3301
   586.72         20.2066
   586.86         20.0684
   587.00         19.9270
   587.14         19.7927
   587.28         19.6751
   587.42         19.5823
   587.56         19.5179
   587.70         19.4767
   587.84         19.4450
   587.98         19.4075
   588.12         19.3519
   588.26         19.2668
   588.40         19.1403
   588.54         18.9656
   588.68         18.7473
   588.82         18.5013
   588.96         18.2519
   589.10         18.0269
   589.24         17.8544
   589.38         17.7578
   589.52         17.7508
   589.66         17.8347
   589.80         18.0009
   589.94         18.2328
   590.08         18.5071
   590.22         18.7958
   590.36         19.0714
   590.50         19.3140
   590.64         19.5132
   590.78         19.6636
   590.92         19.7623
   591.06         19.8128
   591.20         19.8257
   591.34         19.8137
   591.48         19.7866
   591.62         19.7511
   591.76         19.7128
   591.90         19.6770
   592.04         19.6484
   592.18         19.6304
   592.32         19.6250
   592.46         19.6338
   592.60         19.6556
   592.74         19.6851
   592.88         19.7149
   593.02         19.7391
   593.16         19.7537
   593.30         19.7558
   593.44         19.7436
   593.58         19.7162
   593.72         19.6723
   593.86         19.6118
   594.00         19.5368
   594.14         19.4519
   594.28         19.3608
   594.42         19.2659
   594.56         19.1711
   594.70         19.0811
   594.84         19.0004
   594.98         18.9320
   595.12         18.8767
   595.26         18.8329
   595.40         18.7989
   595.54         18.7758
   595.68         18.7658
   595.82         18.7696
   595.96         18.7857
   596.10         18.8103
   596.24         18.8378
   596.38         18.8628
   596.52         18.8837
   596.66         18.9003
   596.80         18.9116
   596.94         18.9157
   597.08         18.9117
   597.22         18.9018
   597.36         18.8889
   597.50         18.8745
   597.64         18.8587
   597.78         18.8414
   597.92         18.8231
   598.06         18.8047
   598.20         18.7877
   598.34         18.7737
   598.48         18.7632
   598.62         18.7556
   598.76         18.7502
   598.90         18.7473
   599.04         18.7489
   599.18         18.7554
   599.32         18.7641
   599.46         18.7698
   599.60         18.7678
   599.74         18.7569
   599.88         18.7380
   600.02         18.7129
   600.16         18.6830
   600.30         18.6498
   600.44         18.6159
   600.58         18.5843
   600.72         18.5572
   600.86         18.5356
   601.00         18.5180
   601.14         18.5011
   601.28         18.4824
   601.42         18.4612
   601.56         18.4374
   601.70         18.4103
   601.84         18.3792
   601.98         18.3427
   602.12         18.2996
   602.26         18.2497
   602.40         18.1947
   602.54         18.1366
   602.68         18.0771
   602.82         18.0170
   602.96         17.9564
   603.10         17.8957
   603.24         17.8360
   603.38         17.7795
   603.52         17.7287
   603.66         17.6870
   603.80         17.6577
   603.94         17.6424
   604.08         17.6409
   604.22         17.6510
   604.36         17.6692
   604.50         17.6921
   604.64         17.7167
   604.78         17.7414
   604.92         17.7664
   605.06         17.7919
   605.20         17.8157
   605.34         17.8341
   605.48         17.8425
   605.62         17.8375
   605.76         17.8184
   605.90         17.7873
   606.04         17.7472
   606.18         17.7027
   606.32         17.6587
   606.46         17.6187
   606.60         17.5857
   606.74         17.5621
   606.88         17.5491
   607.02         17.5469
   607.16         17.5555
   607.30         17.5738
   607.44         17.5999
   607.58         17.6300
   607.72         17.6592
   607.86         17.6834
   608.00         17.7008
   608.14         17.7117
   608.28         17.7171
   608.42         17.7177
   608.56         17.7132
   608.70         17.7034
   608.84         17.6876
   608.98         17.6651
   609.12         17.6350
   609.26         17.5980
   609.40         17.5553
   609.54         17.5092
   609.68         17.4631
   609.82         17.4199
   609.96         17.3814
   610.10         17.3480
   610.24         17.3180
   610.38         17.2897
   610.52         17.2628
   610.66         17.2373
   610.80         17.2130
   610.94         17.1904
   611.08         17.1713
   611.22         17.1578
   611.36         17.1507
   611.50         17.1486
   611.64         17.1485
   611.78         17.1473
   611.92         17.1432
   612.06         17.1362
   612.20         17.1274
   612.34         17.1156
   612.48         17.0987
   612.62         17.0752
   612.76         17.0464
   612.90         17.0151
   613.04         16.9851
   613.18         16.9594
   613.32         16.9396
   613.46         16.9260
   613.60         16.9185
   613.74         16.9161
   613.88         16.9164
   614.02         16.9175
   614.16         16.9191
   614.30         16.9216
   614.44         16.9254
   614.58         16.9314
   614.72         16.9402
   614.86         16.9500
   615.00         16.9588
   615.14         16.9659
   615.28         16.9718
   615.42         16.9767
   615.56         16.9785
   615.70         16.9745
   615.84         16.9612
   615.98         16.9367
   616.12         16.9022
   616.26         16.8602
   616.40         16.8125
   616.54         16.7614
   616.68         16.7097
   616.82         16.6602
   616.96         16.6148
   617.10         16.5753
   617.24         16.5428
   617.38         16.5173
   617.52         16.4979
   617.66         16.4834
   617.80         16.4727
   617.94         16.4646
   618.08         16.4581
   618.22         16.4529
   618.36         16.4482
   618.50         16.4433
   618.64         16.4395
   618.78         16.4392
   618.92         16.4426
   619.06         16.4483
   619.20         16.4549
   619.34         16.4610
   619.48         16.4648
   619.62         16.4643
   619.76         16.4582
   619.90         16.4460
   620.04         16.4285
   620.18         16.4065
   620.32         16.3798
   620.46         16.3484
   620.60         16.3137
   620.74         16.2776
   620.88         16.2427
   621.02         16.2114
   621.16         16.1856
   621.30         16.1676
   621.44         16.1578
   621.58         16.1553
   621.72         16.1589
   621.86         16.1687
   622.00         16.1844
   622.14         16.2049
   622.28         16.2284
   622.42         16.2532
   622.56         16.2774
   622.70         16.2995
   622.84         16.3182
   622.98         16.3320
   623.12         16.3411
   623.26         16.3462
   623.40         16.3477
   623.54         16.3447
   623.68         16.3373
   623.82         16.3266
   623.96         16.3145
   624.10         16.3029
   624.24         16.2926
   624.38         16.2837
   624.52         16.2759
   624.66         16.2692
   624.80         16.2635
   624.94         16.2589
   625.08         16.2540
   625.22         16.2440
   625.36         16.2238
   625.50         16.1902
   625.64         16.1432
   625.78         16.0843
   625.92         16.0158
   626.06         15.9411
   626.20         15.8645
   626.34         15.7898
   626.48         15.7186
   626.62         15.6496
   626.76         15.5805
   626.90         15.5085
   627.04         15.4304
   627.18         15.3433
   627.32         15.2446
   627.46         15.1342
   627.60         15.0152
   627.74         14.8939
   627.88         14.7799
   628.02         14.6858
   628.16         14.6233
   628.30         14.5999
   628.44         14.6186
   628.58         14.6792
   628.72         14.7775
   628.86         14.9052
   629.00         15.0502
   629.14         15.1992
   629.28         15.3401
   629.42         15.4631
   629.56         15.5605
   629.70         15.6283
   629.84         15.6667
   629.98         15.6796
   630.12         15.6734
   630.26         15.6553
   630.40         15.6322
   630.54         15.6094
   630.68         15.5900
   630.82         15.5750
   630.96         15.5635
   631.10         15.5534
   631.24         15.5419
   631.38         15.5273
   631.52         15.5092
   631.66         15.4871
   631.80         15.4608
   631.94         15.4301
   632.08         15.3957
   632.22         15.3599
   632.36         15.3257
   632.50         15.2959
   632.64         15.2720
   632.78         15.2555
   632.92         15.2469
   633.06         15.2448
   633.20         15.2462
   633.34         15.2481
   633.48         15.2490
   633.62         15.2487
   633.76         15.2481
   633.90         15.2480
   634.04         15.2479
   634.18         15.2460
   634.32         15.2403
   634.46         15.2298
   634.60         15.2146
   634.74         15.1952
   634.88         15.1728
   635.02         15.1482
   635.16         15.1212
   635.30         15.0920
   635.44         15.0614
   635.58         15.0307
   635.72         15.0018
   635.86         14.9771
   636.00         14.9586
   636.14         14.9477
   636.28         14.9442
   636.42         14.9458
   636.56         14.9488
   636.70         14.9506
   636.84         14.9492
   636.98         14.9428
   637.12         14.9302
   637.26         14.9113
   637.40         14.8872
   637.54         14.8595
   637.68         14.8295
   637.82         14.7986
   637.96         14.7697
   638.10         14.7455
   638.24         14.7284
   638.38         14.7189
   638.52         14.7168
   638.66         14.7201
   638.80         14.7265
   638.94         14.7328
   639.08         14.7358
   639.22         14.7329
   639.36         14.7228
   639.50         14.7056
   639.64         14.6832
   639.78         14.6586
   639.92         14.6349
   640.06         14.6143
   640.20         14.5977
   640.34         14.5854
   640.48         14.5770
   640.62         14.5712
   640.76         14.5658
   640.90         14.5584
   641.04         14.5473
   641.18         14.5323
   641.32         14.5131
   641.46         14.4894
   641.60         14.4615
   641.74         14.4308
   641.88         14.4008
   642.02         14.3754
   642.16         14.3581
   642.30         14.3509
   642.44         14.3547
   642.58         14.3685
   642.72         14.3900
   642.86         14.4165
   643.00         14.4455
   643.14         14.4752
   643.28         14.5045
   643.42         14.5324
   643.56         14.5575
   643.70         14.5776
   643.84         14.5912
   643.98         14.5968
   644.12         14.5943
   644.26         14.5847
   644.40         14.5697
   644.54         14.5506
   644.68         14.5281
   644.82         14.5041
   644.96         14.4814
   645.10         14.4627
   645.24         14.4495
   645.38         14.4421
   645.52         14.4389
   645.66         14.4379
   645.80         14.4369
   645.94         14.4336
   646.08         14.4262
   646.22         14.4133
   646.36         14.3948
   646.50         14.3716
   646.64         14.3447
   646.78         14.3146
   646.92         14.2820
   647.06         14.2483
   647.20         14.2151
   647.34         14.1840
   647.48         14.1564
   647.62         14.1330
   647.76         14.1135
   647.90         14.0971
   648.04         14.0827
   648.18         14.0705
   648.32         14.0614
   648.46         14.0568
   648.60         14.0581
   648.74         14.0656
   648.88         14.0789
   649.02         14.0967
   649.16         14.1180
   649.30         14.1415
   649.44         14.1653
   649.58         14.1886
   649.72         14.2115
   649.86         14.2339
   650.00         14.2553
   650.14         14.2744
   650.28         14.2898
   650.42         14.2998
   650.56         14.3039
   650.70         14.3030
   650.84         14.2978
   650.98         14.2888
   651.12         14.2759
   651.26         14.2591
   651.40         14.2386
   651.54         14.2145
   651.68         14.1884
   651.82         14.1618
   651.96         14.1353
   652.10         14.1095
   652.24         14.0853
   652.38         14.0637
   652.52         14.0444
   652.66         14.0270
   652.80         14.0113
   652.94         13.9978
   653.08         13.9872
   653.22         13.9797
   653.36         13.9745
   653.50         13.9694
   653.64         13.9619
   653.78         13.9502
   653.92         13.9330
   654.06         13.9095
   654.20         13.8796
   654.34         13.8418
   654.48         13.7923
   654.62         13.7258
   654.76         13.6371
   654.90         13.5213
   655.04         13.3743
   655.18         13.1957
   655.32         12.9906
   655.46         12.7703
   655.60         12.5500
   655.74         12.3471
   655.88         12.1788
   656.02         12.0596
   656.16         11.9996
   656.30         12.0030
   656.44         12.0676
   656.58         12.1863
   656.72         12.3476
   656.86         12.5354
   657.00         12.7314
   657.14         12.9181
   657.28         13.0809
   657.42         13.2098
   657.56         13.3010
   657.70         13.3576
   657.84         13.3876
   657.98         13.4012
   658.12         13.4075
   658.26         13.4126
   658.40         13.4190
   658.54         13.4271
   658.68         13.4362
   658.82         13.4459
   658.96         13.4566
   659.10         13.4686
   659.24         13.4826
   659.38         13.4989
   659.52         13.5168
   659.66         13.5349
   659.80         13.5510
   659.94         13.5631
   660.08         13.5706
   660.22         13.5735
   660.36         13.5716
   660.50         13.5649
   660.64         13.5537
   660.78         13.5392
   660.92         13.5227
   661.06         13.5064
   661.20         13.4930
   661.34         13.4850
   661.48         13.4841
   661.62         13.4907
   661.76         13.5038
   661.90         13.5214
   662.04         13.5408
   662.18         13.5585
   662.32         13.5703
   662.46         13.5734
   662.60         13.5667
   662.74         13.5500
   662.88         13.5233
   663.02         13.4882
   663.16         13.4473
   663.30         13.4027
   663.44         13.3553
   663.58         13.3056
   663.72         13.2543
   663.86         13.2025
   664.00         13.1511
   664.14         13.1017
   664.28         13.0560
   664.42         13.0153
   664.56         12.9803
   664.70         12.9518
   664.84         12.9308
   664.98         12.9178
   665.12         12.9130
   665.26         12.9150
   665.40         12.9214
   665.54         12.9295
   665.68         12.9362
   665.82         12.9382
   665.96         12.9318
   666.10         12.9132
   666.24         12.8793
   666.38         12.8278
   666.52         12.7583
   666.66         12.6724
   666.80         12.5744
   666.94         12.4708
   667.08         12.3691
   667.22         12.2766
   667.36         12.2003
   667.50         12.1462
   667.64         12.1177
   667.78         12.1159
   667.92         12.1399
   668.06         12.1867
   668.20         12.2509
   668.34         12.3256
   668.48         12.4032
   668.62         12.4762
   668.76         12.5372
   668.90         12.5817
   669.04         12.6089
   669.18         12.6207
   669.32         12.6210
   669.46         12.6146
   669.60         12.6060
   669.74         12.5983
   669.88         12.5933
   670.02         12.5915
   670.16         12.5927
   670.30         12.5959
   670.44         12.5992
   670.58         12.6006
   670.72         12.5984
   670.86         12.5920
   671.00         12.5818
   671.14         12.5686
   671.28         12.5532
   671.42         12.5369
   671.56         12.5214
   671.70         12.5078
   671.84         12.4964
   671.98         12.4872
   672.12         12.4801
   672.26         12.4753
   672.40         12.4729
   672.54         12.4728
   672.68         12.4743
   672.82         12.4764
   672.96         12.4772
   673.10         12.4745
   673.24         12.4675
   673.38         12.4568
   673.52         12.4441
   673.66         12.4311
   673.80         12.4189
   673.94         12.4077
   674.08         12.3980
   674.22         12.3899
   674.36         12.3826
   674.50         12.3751
   674.64         12.3666
   674.78         12.3562
   674.92         12.3424
   675.06         12.3242
   675.20         12.3010
   675.34         12.2733
   675.48         12.2426
   675.62         12.2107
   675.76         12.1801
   675.90         12.1540
   676.04         12.1350
   676.18         12.1241
   676.32         12.1204
   676.46         12.1219
   676.60         12.1266
   676.74         12.1325
   676.88         12.1368
   677.02         12.1374
   677.16         12.1334
   677.30         12.1250
   677.44         12.1137
   677.58         12.1016
   677.72         12.0906
   677.86         12.0826
   678.00         12.0797
   678.14         12.0828
   678.28         12.0918
   678.42         12.1060
   678.56         12.1250
   678.70         12.1476
   678.84         12.1709
   678.98         12.1909
   679.12         12.2044
   679.26         12.2089
   679.40         12.2031
   679.54         12.1877
   679.68         12.1642
   679.82         12.1345
   679.96         12.1002
   680.10         12.0634
   680.24         12.0260
   680.38         11.9894
   680.52         11.9543
   680.66         11.9205
   680.80         11.8867
   680.94         11.8518
   681.08         11.8161
   681.22         11.7805
   681.36         11.7452
   681.50         11.7101
   681.64         11.6752
   681.78         11.6418
   681.92         11.6118
   682.06         11.5873
   682.20         11.5689
   682.34         11.5560
   682.48         11.5478
   682.62         11.5433
   682.76         11.5421
   682.90         11.5434
   683.04         11.5465
   683.18         11.5511
   683.32         11.5571
   683.46         11.5644
   683.60         11.5727
   683.74         11.5813
   683.88         11.5894
   684.02         11.5968
   684.16         11.6033
   684.30         11.6087
   684.44         11.6131
   684.58         11.6158
   684.72         11.6154
   684.86         11.6109
   685.00         11.6018
   685.14         11.5882
   685.28         11.5699
   685.42         11.5444
   685.56         11.5050
   685.70         11.4410
   685.84         11.3413
   685.98         11.1982
   686.12         11.0107
   686.26         10.7836
   686.40         10.5267
   686.54         10.2533
   686.68         9.9798
   686.82         9.7239
   686.96         9.5036
   687.10         9.3359
   687.24         9.2328
   687.38         9.1993
   687.52         9.2315
   687.66         9.3182
   687.80         9.4426
   687.94         9.5851
   688.08         9.7258
   688.22         9.8475
   688.36         9.9402
   688.50         10.0027
   688.64         10.0403
   688.78         10.0612
   688.92         10.0727
   689.06         10.0813
   689.20         10.0928
   689.34         10.1124
   689.48         10.1438
   689.62         10.1866
   689.76         10.2371
   689.90         10.2895
   690.04         10.3390
   690.18         10.3826
   690.32         10.4197
   690.46         10.4517
   690.60         10.4803
   690.74         10.5064
   690.88         10.5309
   691.02         10.5553
   691.16         10.5810
   691.30         10.6083
   691.44         10.6360
   691.58         10.6618
   691.72         10.6849
   691.86         10.7050
   692.00         10.7222
   692.14         10.7370
   692.28         10.7497
   692.42         10.7611
   692.56         10.7734
   692.70         10.7881
   692.84         10.8058
   692.98         10.8262
   693.12         10.8478
   693.26         10.8683
   693.40         10.8855
   693.54         10.8986
   693.68         10.9082
   693.82         10.9147
   693.96         10.9185
   694.10         10.9201
   694.24         10.9204
   694.38         10.9202
   694.52         10.9204
   694.66         10.9215
   694.80         10.9242
   694.94         10.9293
   695.08         10.9372
   695.22         10.9483
   695.36         10.9624
   695.50         10.9789
   695.64         10.9972
   695.78         11.0169
   695.92         11.0375
   696.06         11.0587
   696.20         11.0800
   696.34         11.0999
   696.48         11.1152
   696.62         11.1223
   696.76         11.1191
   696.90         11.1044
   697.04         11.0788
   697.18         11.0443
   697.32         11.0041
   697.46         10.9622
   697.60         10.9218
   697.74         10.8851
   697.88         10.8530
   698.02         10.8257
   698.16         10.8032
   698.30         10.7861
   698.44         10.7742
   698.58         10.7674
   698.72         10.7652
   698.86         10.7667
   699.00         10.7715
   699.14         10.7793
   699.28         10.7905
   699.42         10.8050
   699.56         10.8213
   699.70         10.8368
   699.84         10.8491
   699.98         10.8558
   700.12         10.8548
   700.26         10.8447
   700.40         10.8257
   700.54         10.7999
   700.68         10.7709
   700.82         10.7423
   700.96         10.7170
   701.10         10.6963
   701.24         10.6799
   701.38         10.6674
   701.52         10.6578
   701.66         10.6495
   701.80         10.6405
   701.94         10.6297
   702.08         10.6159
   702.22         10.5988
   702.36         10.5793
   702.50         10.5597
   702.64         10.5420
   702.78         10.5275
   702.92         10.5170
   703.06         10.5111
   703.20         10.5097
   703.34         10.5121
   703.48         10.5167
   703.62         10.5218
   703.76         10.5258
   703.90         10.5279
   704.04         10.5277
   704.18         10.5253
   704.32         10.5219
   704.46         10.5193
   704.60         10.5180
   704.74         10.5165
   704.88         10.5119
   705.02         10.5016
   705.16         10.4825
   705.30         10.4527
   705.44         10.4115
   705.58         10.3600
   705.72         10.3001
   705.86         10.2355
   706.00         10.1718
   706.14         10.1143
   706.28         10.0677
   706.42         10.0361
   706.56         10.0224
   706.70         10.0274
   706.84         10.0497
   706.98         10.0860
   707.12         10.1317
   707.26         10.1809
   707.40         10.2274
   707.54         10.2673
   707.68         10.2992
   707.82         10.3233
   707.96         10.3404
   708.10         10.3511
   708.24         10.3560
   708.38         10.3568
   708.52         10.3565
   708.66         10.3574
   708.80         10.3612
   708.94         10.3687
   709.08         10.3801
   709.22         10.3942
   709.36         10.4097
   709.50         10.4253
   709.64         10.4396
   709.78         10.4509
   709.92         10.4576
   710.06         10.4589
   710.20         10.4563
   710.34         10.4522
   710.48         10.4481
   710.62         10.4443
   710.76         10.4407
   710.90         10.4372
   711.04         10.4349
   711.18         10.4348
   711.32         10.4362
   711.46         10.4377
   711.60         10.4375
   711.74         10.4340
   711.88         10.4261
   712.02         10.4123
   712.16         10.3914
   712.30         10.3650
   712.44         10.3363
   712.58         10.3082
   712.72         10.2816
   712.86         10.2573
   713.00         10.2343
   713.14         10.2104
   713.28         10.1830
   713.42         10.1518
   713.56         10.1185
   713.70         10.0861
   713.84         10.0569
   713.98         10.0326
   714.12         10.0150
   714.26         10.0054
   714.40         10.0038
   714.54         10.0094
   714.68         10.0221
   714.82         10.0423
   714.96         10.0696
   715.10         10.1008
   715.24         10.1300
   715.38         10.1515
   715.52         10.1605
   715.66         10.1547
   715.80         10.1338
   715.94         10.0989
   716.08         10.0527
   716.22         9.9981
   716.36         9.9379
   716.50         9.8744
   716.64         9.8091
   716.78         9.7434
   716.92         9.6790
   717.06         9.6168
   717.20         9.5572
   717.34         9.4993
   717.48         9.4424
   717.62         9.3864
   717.76         9.3327
   717.90         9.2824
   718.04         9.2377
   718.18         9.2019
   718.32         9.1781
   718.46         9.1675
   718.60         9.1697
   718.74         9.1826
   718.88         9.2030
   719.02         9.2273
   719.16         9.2523
   719.30         9.2763
   719.44         9.2990
   719.58         9.3211
   719.72         9.3433
   719.86         9.3661
   720.00         9.3913
   720.14         9.4218
   720.28         9.4600
   720.42         9.5058
   720.56         9.5577
   720.70         9.6137
   720.84         9.6705
   720.98         9.7234
   721.12         9.7671
   721.26         9.7979
   721.40         9.8147
   721.54         9.8184
   721.68         9.8113
   721.82         9.7959
   721.96         9.7743
   722.10         9.7482
   722.24         9.7186
   722.38         9.6869
   722.52         9.6552
   722.66         9.6257
   722.80         9.5996
   722.94         9.5769
   723.08         9.5566
   723.22         9.5372
   723.36         9.5174
   723.50         9.4961
   723.64         9.4729
   723.78         9.4477
   723.92         9.4202
   724.06         9.3903
   724.20         9.3588
   724.34         9.3276
   724.48         9.2997
   724.62         9.2783
   724.76         9.2662
   724.90         9.2651
   725.04         9.2749
   725.18         9.2931
   725.32         9.3156
   725.46         9.3390
   725.60         9.3618
   725.74         9.3835
   725.88         9.4032
   726.02         9.4186
   726.16         9.4270
   726.30         9.4259
   726.44         9.4140
   726.58         9.3917
   726.72         9.3621
   726.86         9.3289
   727.00         9.2951
   727.14         9.2629
   727.28         9.2334
   727.42         9.2067
   727.56         9.1830
   727.70         9.1629
   727.84         9.1468
   727.98         9.1348
   728.12         9.1274
   728.26         9.1241
   728.40         9.1231
   728.54         9.1225
   728.68         9.1213
   728.82         9.1192
   728.96         9.1171
   729.10         9.1158
   729.24         9.1161
   729.38         9.1194
   729.52         9.1267
   729.66         9.1380
   729.80         9.1527
   729.94         9.1697
   730.08         9.1886
   730.22         9.2090
   730.36         9.2293
   730.50         9.2467
   730.64         9.2594
   730.78         9.2659
   730.92         9.2653
   731.06         9.2572
   731.20         9.2415
   731.34         9.2181
   731.48         9.1872
   731.62         9.1498
   731.76         9.1073
   731.90         9.0624
   732.04         9.0189
   732.18         8.9802
   732.32         8.9490
   732.46         8.9278
   732.60         8.9176
   732.74         8.9179
   732.88         8.9268
   733.02         8.9423
   733.16         8.9626
   733.30         8.9866
   733.44         9.0123
   733.58         9.0372
   733.72         9.0582
   733.86         9.0729
   734.00         9.0788
   734.14         9.0748
   734.28         9.0620
   734.42         9.0437
   734.56         9.0232
   734.70         9.0029
   734.84         8.9840
   734.98         8.9681
   735.12         8.9564
   735.26         8.9485
   735.40         8.9439
   735.54         8.9424
   735.68         8.9436
   735.82         8.9463
   735.96         8.9476
   736.10         8.9448
   736.24         8.9359
   736.38         8.9205
   736.52         8.8994
   736.66         8.8740
   736.80         8.8464
   736.94         8.8189
   737.08         8.7925
   737.22         8.7677
   737.36         8.7450
   737.50         8.7258
   737.64         8.7119
   737.78         8.7038
   737.92         8.7006
   738.06         8.7014
   738.20         8.7044
   738.34         8.7067
   738.48         8.7043
   738.62         8.6937
   738.76         8.6737
   738.90         8.6451
   739.04         8.6103
   739.18         8.5722
   739.32         8.5336
   739.46         8.4975
   739.60         8.4665
   739.74         8.4428
   739.88         8.4278
   740.02         8.4231
   740.16         8.4298
   740.30         8.4477
   740.44         8.4755
   740.58         8.5114
   740.72         8.5527
   740.86         8.5951
   741.00         8.6341
   741.14         8.6666
   741.28         8.6903
   741.42         8.7043
   741.56         8.7083
   741.70         8.7023
   741.84         8.6866
   741.98         8.6625
   742.12         8.6325
   742.26         8.5996
   742.40         8.5668
   742.54         8.5369
   742.68         8.5140
   742.82         8.5016
   742.96         8.5016
   743.10         8.5140
   743.24         8.5369
   743.38         8.5668
   743.52         8.5996
   743.66         8.6325
   743.80         8.6625
   743.94         8.6866
   744.08         8.7023
   744.22         8.7083
