# File HD14330
# Wavelength [nm]    Normalized Amplitude
   349.70         4.1408
   349.84         4.1719
   349.98         4.2385
   350.12         4.3181
   350.26         4.3867
   350.40         4.4285
   350.54         4.4403
   350.68         4.4261
   350.82         4.3964
   350.96         4.3672
   351.10         4.3549
   351.24         4.3672
   351.38         4.3964
   351.52         4.4261
   351.66         4.4403
   351.80         4.4285
   351.94         4.3867
   352.08         4.3181
   352.22         4.2385
   352.36         4.1719
   352.50         4.1408
   352.64         4.1643
   352.78         4.2564
   352.92         4.4291
   353.06         4.6904
   353.20         5.0379
   353.34         5.4504
   353.48         5.8871
   353.62         6.3007
   353.76         6.6491
   353.90         6.8984
   354.04         7.0272
   354.18         7.0274
   354.32         6.9050
   354.46         6.6793
   354.60         6.3754
   354.74         6.0237
   354.88         5.6598
   355.02         5.3172
   355.16         5.0175
   355.30         4.7672
   355.44         4.5675
   355.58         4.4196
   355.72         4.3159
   355.86         4.2347
   356.00         4.1499
   356.14         4.0488
   356.28         3.9389
   356.42         3.8318
   356.56         3.7291
   356.70         3.6245
   356.84         3.5131
   356.98         3.4012
   357.12         3.3008
   357.26         3.2217
   357.40         3.1735
   357.54         3.1628
   357.68         3.1888
   357.82         3.2491
   357.96         3.3462
   358.10         3.4832
   358.24         3.6537
   358.38         3.8431
   358.52         4.0397
   358.66         4.2367
   358.80         4.4291
   358.94         4.6110
   359.08         4.7745
   359.22         4.9094
   359.36         5.0076
   359.50         5.0712
   359.64         5.1095
   359.78         5.1300
   359.92         5.1354
   360.06         5.1249
   360.20         5.0998
   360.34         5.0676
   360.48         5.0329
   360.62         4.9895
   360.76         4.9307
   360.90         4.8643
   361.04         4.8102
   361.18         4.7852
   361.32         4.7972
   361.46         4.8500
   361.60         4.9397
   361.74         5.0518
   361.88         5.1658
   362.02         5.2671
   362.16         5.3504
   362.30         5.4101
   362.44         5.4427
   362.58         5.4547
   362.72         5.4595
   362.86         5.4732
   363.00         5.5068
   363.14         5.5642
   363.28         5.6494
   363.42         5.7671
   363.56         5.9143
   363.70         6.0787
   363.84         6.2441
   363.98         6.3976
   364.12         6.5326
   364.26         6.6477
   364.40         6.7487
   364.54         6.8441
   364.68         6.9391
   364.82         7.0339
   364.96         7.1243
   365.10         7.2071
   365.24         7.2796
   365.38         7.3354
   365.52         7.3698
   365.66         7.3849
   365.80         7.3880
   365.94         7.3856
   366.08         7.3788
   366.22         7.3700
   366.36         7.3675
   366.50         7.3788
   366.64         7.4063
   366.78         7.4486
   366.92         7.5014
   367.06         7.5558
   367.20         7.5972
   367.34         7.6116
   367.48         7.5921
   367.62         7.5399
   367.76         7.4639
   367.90         7.3752
   368.04         7.2824
   368.18         7.1917
   368.32         7.1065
   368.46         7.0323
   368.60         6.9806
   368.74         6.9651
   368.88         6.9931
   369.02         7.0603
   369.16         7.1521
   369.30         7.2488
   369.44         7.3293
   369.58         7.3731
   369.72         7.3633
   369.86         7.2941
   370.00         7.1750
   370.14         7.0264
   370.28         6.8723
   370.42         6.7314
   370.56         6.6138
   370.70         6.5219
   370.84         6.4538
   370.98         6.4054
   371.12         6.3695
   371.26         6.3360
   371.40         6.2913
   371.54         6.2221
   371.68         6.1220
   371.82         5.9935
   371.96         5.8452
   372.10         5.6876
   372.24         5.5315
   372.38         5.3876
   372.52         5.2645
   372.66         5.1661
   372.80         5.0916
   372.94         5.0373
   373.08         4.9998
   373.22         4.9772
   373.36         4.9667
   373.50         4.9640
   373.64         4.9679
   373.78         4.9797
   373.92         5.0027
   374.06         5.0391
   374.20         5.0901
   374.34         5.1584
   374.48         5.2472
   374.62         5.3583
   374.76         5.4901
   374.90         5.6406
   375.04         5.8090
   375.18         5.9966
   375.32         6.2051
   375.46         6.4317
   375.60         6.6673
   375.74         6.9006
   375.88         7.1240
   376.02         7.3329
   376.16         7.5258
   376.30         7.7046
   376.44         7.8686
   376.58         8.0170
   376.72         8.1523
   376.86         8.2808
   377.00         8.4079
   377.14         8.5330
   377.28         8.6491
   377.42         8.7462
   377.56         8.8163
   377.70         8.8557
   377.84         8.8626
   377.98         8.8331
   378.12         8.7592
   378.26         8.6346
   378.40         8.4599
   378.54         8.2420
   378.68         7.9902
   378.82         7.7179
   378.96         7.4451
   379.10         7.1964
   379.24         6.9953
   379.38         6.8566
   379.52         6.7864
   379.66         6.7834
   379.80         6.8377
   379.94         6.9360
   380.08         7.0670
   380.22         7.2190
   380.36         7.3782
   380.50         7.5305
   380.64         7.6597
   380.78         7.7491
   380.92         7.7876
   381.06         7.7725
   381.20         7.7073
   381.34         7.5975
   381.48         7.4496
   381.62         7.2728
   381.76         7.0775
   381.90         6.8745
   382.04         6.6752
   382.18         6.4945
   382.32         6.3490
   382.46         6.2518
   382.60         6.2118
   382.74         6.2319
   382.88         6.3105
   383.02         6.4441
   383.16         6.6240
   383.30         6.8345
   383.44         7.0576
   383.58         7.2789
   383.72         7.4875
   383.86         7.6730
   384.00         7.8260
   384.14         7.9435
   384.28         8.0272
   384.42         8.0774
   384.56         8.0919
   384.70         8.0705
   384.84         8.0187
   384.98         7.9458
   385.12         7.8599
   385.26         7.7670
   385.40         7.6748
   385.54         7.5932
   385.68         7.5298
   385.82         7.4875
   385.96         7.4677
   386.10         7.4729
   386.24         7.5034
   386.38         7.5518
   386.52         7.6049
   386.66         7.6496
   386.80         7.6754
   386.94         7.6733
   387.08         7.6381
   387.22         7.5716
   387.36         7.4808
   387.50         7.3756
   387.64         7.2689
   387.78         7.1752
   387.92         7.1101
   388.06         7.0893
   388.20         7.1204
   388.34         7.2020
   388.48         7.3283
   388.62         7.4911
   388.76         7.6788
   388.90         7.8788
   389.04         8.0808
   389.18         8.2785
   389.32         8.4672
   389.46         8.6419
   389.60         8.7986
   389.74         8.9373
   389.88         9.0586
   390.02         9.1620
   390.16         9.2490
   390.30         9.3219
   390.44         9.3791
   390.58         9.4145
   390.72         9.4159
   390.86         9.3664
   391.00         9.2549
   391.14         9.0836
   391.28         8.8608
   391.42         8.5944
   391.56         8.2919
   391.70         7.9600
   391.84         7.6050
   391.98         7.2371
   392.12         6.8708
   392.26         6.5207
   392.40         6.1971
   392.54         5.9049
   392.68         5.6463
   392.82         5.4236
   392.96         5.2399
   393.10         5.0989
   393.24         5.0075
   393.38         4.9734
   393.52         5.0042
   393.66         5.1080
   393.80         5.2910
   393.94         5.5497
   394.08         5.8739
   394.22         6.2521
   394.36         6.6695
   394.50         7.1075
   394.64         7.5453
   394.78         7.9561
   394.92         8.3076
   395.06         8.5698
   395.20         8.7225
   395.34         8.7547
   395.48         8.6632
   395.62         8.4524
   395.76         8.1360
   395.90         7.7374
   396.04         7.2894
   396.18         6.8318
   396.32         6.4093
   396.46         6.0653
   396.60         5.8354
   396.74         5.7461
   396.88         5.8113
   397.02         6.0283
   397.16         6.3856
   397.30         6.8670
   397.44         7.4503
   397.58         8.1085
   397.72         8.8151
   397.86         9.5438
   398.00         10.2661
   398.14         10.9530
   398.28         11.5790
   398.42         12.1261
   398.56         12.5872
   398.70         12.9690
   398.84         13.2931
   398.98         13.5881
   399.12         13.8797
   399.26         14.1833
   399.40         14.5050
   399.54         14.8444
   399.68         15.2006
   399.82         15.5735
   399.96         15.9589
   400.10         16.3478
   400.24         16.7310
   400.38         17.1007
   400.52         17.4465
   400.66         17.7561
   400.80         18.0196
   400.94         18.2313
   401.08         18.3907
   401.22         18.5032
   401.36         18.5813
   401.50         18.6376
   401.64         18.6751
   401.78         18.6851
   401.92         18.6507
   402.06         18.5569
   402.20         18.4012
   402.34         18.1982
   402.48         17.9781
   402.62         17.7780
   402.76         17.6289
   402.90         17.5479
   403.04         17.5362
   403.18         17.5801
   403.32         17.6576
   403.46         17.7478
   403.60         17.8373
   403.74         17.9253
   403.88         18.0225
   404.02         18.1404
   404.16         18.2793
   404.30         18.4251
   404.44         18.5575
   404.58         18.6622
   404.72         18.7403
   404.86         18.8055
   405.00         18.8660
   405.14         18.9161
   405.28         18.9374
   405.42         18.9094
   405.56         18.8223
   405.70         18.6778
   405.84         18.4856
   405.98         18.2665
   406.12         18.0515
   406.26         17.8685
   406.40         17.7277
   406.54         17.6198
   406.68         17.5268
   406.82         17.4372
   406.96         17.3541
   407.10         17.2914
   407.24         17.2681
   407.38         17.3065
   407.52         17.4303
   407.66         17.6614
   407.80         18.0172
   407.94         18.5042
   408.08         19.1116
   408.22         19.8085
   408.36         20.5457
   408.50         21.2640
   408.64         21.9028
   408.78         22.4010
   408.92         22.7030
   409.06         22.7782
   409.20         22.6357
   409.34         22.3203
   409.48         21.8961
   409.62         21.4256
   409.76         20.9593
   409.90         20.5391
   410.04         20.2003
   410.18         19.9671
   410.32         19.8471
   410.46         19.8298
   410.60         19.8892
   410.74         19.9886
   410.88         20.0900
   411.02         20.1655
   411.16         20.2021
   411.30         20.2008
   411.44         20.1747
   411.58         20.1447
   411.72         20.1311
   411.86         20.1424
   412.00         20.1689
   412.14         20.1910
   412.28         20.1912
   412.42         20.1637
   412.56         20.1149
   412.70         20.0577
   412.84         20.0030
   412.98         19.9519
   413.12         19.8960
   413.26         19.8272
   413.40         19.7480
   413.54         19.6723
   413.68         19.6135
   413.82         19.5780
   413.96         19.5649
   414.10         19.5684
   414.24         19.5820
   414.38         19.6061
   414.52         19.6541
   414.66         19.7495
   414.80         19.9197
   414.94         20.1862
   415.08         20.5523
   415.22         20.9966
   415.36         21.4822
   415.50         21.9678
   415.64         22.4152
   415.78         22.7957
   415.92         23.0876
   416.06         23.2702
   416.20         23.3230
   416.34         23.2345
   416.48         23.0114
   416.62         22.6786
   416.76         22.2746
   416.90         21.8470
   417.04         21.4484
   417.18         21.1303
   417.32         20.9325
   417.46         20.8759
   417.60         20.9616
   417.74         21.1719
   417.88         21.4784
   418.02         21.8546
   418.16         22.2738
   418.30         22.7003
   418.44         23.0871
   418.58         23.3860
   418.72         23.5604
   418.86         23.5925
   419.00         23.4831
   419.14         23.2494
   419.28         22.9222
   419.42         22.5464
   419.56         22.1789
   419.70         21.8794
   419.84         21.6978
   419.98         21.6620
   420.12         21.7737
   420.26         22.0154
   420.40         22.3609
   420.54         22.7835
   420.68         23.2586
   420.82         23.7560
   420.96         24.2347
   421.10         24.6466
   421.24         24.9392
   421.38         25.0627
   421.52         24.9845
   421.66         24.7035
   421.80         24.2542
   421.94         23.6943
   422.08         23.0863
   422.22         22.4874
   422.36         21.9459
   422.50         21.5004
   422.64         21.1807
   422.78         21.0165
   422.92         21.0458
   423.06         21.3118
   423.20         21.8438
   423.34         22.6329
   423.48         23.6229
   423.62         24.7221
   423.76         25.8252
   423.90         26.8339
   424.04         27.6750
   424.18         28.3045
   424.32         28.7014
   424.46         28.8636
   424.60         28.8019
   424.74         28.5419
   424.88         28.1339
   425.02         27.6568
   425.16         27.2115
   425.30         26.9053
   425.44         26.8295
   425.58         27.0321
   425.72         27.4994
   425.86         28.1529
   426.00         28.8688
   426.14         29.5168
   426.28         29.9944
   426.42         30.2468
   426.56         30.2691
   426.70         30.0936
   426.84         29.7713
   426.98         29.3620
   427.12         28.9295
   427.26         28.5328
   427.40         28.2146
   427.54         27.9964
   427.68         27.8747
   427.82         27.8172
   427.96         27.7691
   428.10         27.6715
   428.24         27.4791
   428.38         27.1754
   428.52         26.7753
   428.66         26.3144
   428.80         25.8403
   428.94         25.4057
   429.08         25.0551
   429.22         24.8102
   429.36         24.6633
   429.50         24.5879
   429.64         24.5616
   429.78         24.5842
   429.92         24.6752
   430.06         24.8615
   430.20         25.1767
   430.34         25.6700
   430.48         26.4033
   430.62         27.4290
   430.76         28.7627
   430.90         30.3687
   431.04         32.1640
   431.18         34.0259
   431.32         35.8100
   431.46         37.3915
   431.60         38.6963
   431.74         39.6992
   431.88         40.4108
   432.02         40.8731
   432.16         41.1624
   432.30         41.3723
   432.44         41.5754
   432.58         41.7952
   432.72         42.0100
   432.86         42.1828
   433.00         42.2881
   433.14         42.3102
   433.28         42.2343
   433.42         42.0574
   433.56         41.8059
   433.70         41.5327
   433.84         41.2944
   433.98         41.1435
   434.12         41.1372
   434.26         41.3352
   434.40         41.7781
   434.54         42.4638
   434.68         43.3449
   434.82         44.3390
   434.96         45.3546
   435.10         46.3187
   435.24         47.1978
   435.38         47.9955
   435.52         48.7297
   435.66         49.4139
   435.80         50.0451
   435.94         50.6027
   436.08         51.0470
   436.22         51.3238
   436.36         51.3838
   436.50         51.2090
   436.64         50.8275
   436.78         50.2941
   436.92         49.6536
   437.06         48.9130
   437.20         48.0531
   437.34         47.0702
   437.48         45.9978
   437.62         44.8914
   437.76         43.7987
   437.90         42.7503
   438.04         41.7706
   438.18         40.8904
   438.32         40.1581
   438.46         39.6352
   438.60         39.3707
   438.74         39.3809
   438.88         39.6636
   439.02         40.2046
   439.16         40.9475
   439.30         41.7720
   439.44         42.5211
   439.58         43.0591
   439.72         43.3209
   439.86         43.3273
   440.00         43.1551
   440.14         42.8847
   440.28         42.5766
   440.42         42.2816
   440.56         42.0554
   440.70         41.9500
   440.84         41.9944
   440.98         42.1893
   441.12         42.5106
   441.26         42.9124
   441.40         43.3368
   441.54         43.7312
   441.68         44.0497
   441.82         44.2584
   441.96         44.3511
   442.10         44.3494
   442.24         44.2851
   442.38         44.1907
   442.52         44.1046
   442.66         44.0582
   442.80         44.0667
   442.94         44.1318
   443.08         44.2467
   443.22         44.4104
   443.36         44.6309
   443.50         44.9232
   443.64         45.3061
   443.78         45.7874
   443.92         46.3515
   444.06         46.9553
   444.20         47.5339
   444.34         48.0128
   444.48         48.3209
   444.62         48.3922
   444.76         48.1737
   444.90         47.6504
   445.04         46.8689
   445.18         45.9203
   445.32         44.8933
   445.46         43.8552
   445.60         42.8664
   445.74         42.0020
   445.88         41.3567
   446.02         41.0240
   446.16         41.0741
   446.30         41.5425
   446.44         42.4281
   446.58         43.6920
   446.72         45.2515
   446.86         46.9878
   447.00         48.7824
   447.14         50.5464
   447.28         52.2290
   447.42         53.8067
   447.56         55.2588
   447.70         56.5502
   447.84         57.6357
   447.98         58.4748
   448.12         59.0375
   448.26         59.3083
   448.40         59.2978
   448.54         59.0561
   448.68         58.6680
   448.82         58.2320
   448.96         57.8483
   449.10         57.6164
   449.24         57.6211
   449.38         57.9216
   449.52         58.5550
   449.66         59.5400
   449.80         60.8568
   449.94         62.4208
   450.08         64.0857
   450.22         65.6805
   450.36         67.0592
   450.50         68.1251
   450.64         68.8243
   450.78         69.1478
   450.92         69.1289
   451.06         68.8291
   451.20         68.3206
   451.34         67.6601
   451.48         66.8757
   451.62         65.9786
   451.76         64.9741
   451.90         63.8587
   452.04         62.6241
   452.18         61.2694
   452.32         59.8309
   452.46         58.3963
   452.60         57.0776
   452.74         55.9762
   452.88         55.1721
   453.02         54.7231
   453.16         54.6509
   453.30         54.9353
   453.44         55.5156
   453.58         56.2880
   453.72         57.1331
   453.86         57.9460
   454.00         58.6374
   454.14         59.1373
   454.28         59.4219
   454.42         59.5332
   454.56         59.5585
   454.70         59.5972
   454.84         59.7435
   454.98         60.0742
   455.12         60.6206
   455.26         61.3620
   455.40         62.2637
   455.54         63.3051
   455.68         64.4615
   455.82         65.6811
   455.96         66.9011
   456.10         68.0632
   456.24         69.1134
   456.38         70.0036
   456.52         70.6854
   456.66         71.1184
   456.80         71.3006
   456.94         71.2820
   457.08         71.1317
   457.22         70.8997
   457.36         70.6233
   457.50         70.3483
   457.64         70.1309
   457.78         70.0259
   457.92         70.0714
   458.06         70.2694
   458.20         70.5764
   458.34         70.9217
   458.48         71.2362
   458.62         71.4655
   458.76         71.5623
   458.90         71.4850
   459.04         71.2123
   459.18         70.7469
   459.32         70.1340
   459.46         69.4833
   459.60         68.9511
   459.74         68.6941
   459.88         68.8383
   460.02         69.4619
   460.16         70.5837
   460.30         72.1651
   460.44         74.1276
   460.58         76.3693
   460.72         78.7785
   460.86         81.2440
   461.00         83.6570
   461.14         85.9069
   461.28         87.8822
   461.42         89.4796
   461.56         90.6291
   461.70         91.3168
   461.84         91.5862
   461.98         91.5154
   462.12         91.1753
   462.26         90.5987
   462.40         89.7838
   462.54         88.7171
   462.68         87.4019
   462.82         85.8791
   462.96         84.2270
   463.10         82.5278
   463.24         80.8388
   463.38         79.1983
   463.52         77.6422
   463.66         76.2102
   463.80         74.9466
   463.94         73.8946
   464.08         73.0888
   464.22         72.5502
   464.36         72.2883
   464.50         72.3174
   464.64         72.6598
   464.78         73.3316
   464.92         74.3311
   465.06         75.6243
   465.20         77.1387
   465.34         78.7586
   465.48         80.3327
   465.62         81.6995
   465.76         82.7216
   465.90         83.3229
   466.04         83.4966
   466.18         83.2940
   466.32         82.8099
   466.46         82.1606
   466.60         81.4615
   466.74         80.8058
   466.88         80.2718
   467.02         79.9420
   467.16         79.8847
   467.30         80.1025
   467.44         80.5135
   467.58         80.9999
   467.72         81.4615
   467.86         81.8336
   468.00         82.0930
   468.14         82.2791
   468.28         82.4931
   468.42         82.8429
   468.56         83.3841
   468.70         84.1081
   468.84         84.9691
   468.98         85.9048
   469.12         86.8425
   469.26         87.7003
   469.40         88.3909
   469.54         88.8446
   469.68         89.0281
   469.82         88.9497
   469.96         88.6517
   470.10         88.1914
   470.24         87.6376
   470.38         87.0750
   470.52         86.6092
   470.66         86.3591
   470.80         86.4227
   470.94         86.8417
   471.08         87.5924
   471.22         88.6126
   471.36         89.8182
   471.50         91.0855
   471.64         92.2611
   471.78         93.2006
   471.92         93.7922
   472.06         93.9764
   472.20         93.7636
   472.34         93.2369
   472.48         92.5233
   472.62         91.7454
   472.76         91.0023
   472.90         90.3809
   473.04         89.9648
   473.18         89.8217
   473.32         89.9831
   473.46         90.4403
   473.60         91.1572
   473.74         92.0867
   473.88         93.1627
   474.02         94.2887
   474.16         95.3627
   474.30         96.3197
   474.44         97.1349
   474.58         97.7890
   474.72         98.2573
   474.86         98.5068
   475.00         98.4890
   475.14         98.1420
   475.28         97.4139
   475.42         96.3012
   475.56         94.8706
   475.70         93.2504
   475.84         91.5968
   475.98         90.0607
   476.12         88.7807
   476.26         87.8782
   476.40         87.4417
   476.54         87.5007
   476.68         88.0218
   476.82         88.9205
   476.96         90.0629
   477.10         91.2788
   477.24         92.3946
   477.38         93.2639
   477.52         93.7772
   477.66         93.8748
   477.80         93.5728
   477.94         92.9697
   478.08         92.2321
   478.22         91.5544
   478.36         91.0957
   478.50         90.9451
   478.64         91.1312
   478.78         91.6481
   478.92         92.4674
   479.06         93.5173
   479.20         94.6690
   479.34         95.7627
   479.48         96.6517
   479.62         97.2334
   479.76         97.4734
   479.90         97.4045
   480.04         97.0969
   480.18         96.6381
   480.32         96.1251
   480.46         95.6619
   480.60         95.3484
   480.74         95.2559
   480.88         95.3996
   481.02         95.7363
   481.16         96.2019
   481.30         96.7550
   481.44         97.3733
   481.58         98.0200
   481.72         98.6234
   481.86         99.0978
   482.00         99.3812
   482.14         99.4616
   482.28         99.3765
   482.42         99.1839
   482.56         98.9323
   482.70         98.6455
   482.84         98.3401
   482.98         98.0453
   483.12         97.8029
   483.26         97.6523
   483.40         97.6100
   483.54         97.6593
   483.68         97.7620
   483.82         97.8796
   483.96         97.9829
   484.10         98.0413
   484.24         98.0198
   484.38         97.8908
   484.52         97.6367
   484.66         97.2416
   484.80         96.6821
   484.94         95.9202
   485.08         94.9224
   485.22         93.6922
   485.36         92.2808
   485.50         90.7858
   485.64         89.3282
   485.78         88.0152
   485.92         86.9160
   486.06         86.0648
   486.20         85.4766
   486.34         85.1639
   486.48         85.1425
   486.62         85.4219
   486.76         85.9853
   486.90         86.7693
   487.04         87.6695
   487.18         88.5665
   487.32         89.3511
   487.46         89.9490
   487.60         90.3373
   487.74         90.5363
   487.88         90.5794
   488.02         90.5175
   488.16         90.4483
   488.30         90.5116
   488.44         90.8578
   488.58         91.6172
   488.72         92.8685
   488.86         94.6170
   489.00         96.7974
   489.14         99.2867
   489.28         101.9303
   489.42         104.5556
   489.56         106.9794
   489.70         109.0391
   489.84         110.6237
   489.98         111.6867
   490.12         112.2432
   490.26         112.3698
   490.40         112.1905
   490.54         111.8368
   490.68         111.4151
   490.82         110.9803
   490.96         110.5332
   491.10         110.0422
   491.24         109.4685
   491.38         108.8011
   491.52         108.0937
   491.66         107.4659
   491.80         107.0651
   491.94         107.0112
   492.08         107.3441
   492.22         108.0252
   492.36         108.9744
   492.50         110.0823
   492.64         111.2197
   492.78         112.2622
   492.92         113.1125
   493.06         113.7073
   493.20         114.0236
   493.34         114.0933
   493.48         114.0239
   493.62         113.9957
   493.76         114.2087
   493.90         114.8236
   494.04         115.9158
   494.18         117.4404
   494.32         119.2094
   494.46         120.9179
   494.60         122.2285
   494.74         122.8699
   494.88         122.6936
   495.02         121.6619
   495.16         119.8158
   495.30         117.2726
   495.44         114.2255
   495.58         110.9210
   495.72         107.6229
   495.86         104.5780
   496.00         101.9967
   496.14         100.0540
   496.28         98.8633
   496.42         98.4340
   496.56         98.6589
   496.70         99.3345
   496.84         100.2088
   496.98         101.0370
   497.12         101.6452
   497.26         101.9611
   497.40         101.9836
   497.54         101.7330
   497.68         101.2332
   497.82         100.5377
   497.96         99.7522
   498.10         99.0166
   498.24         98.4653
   498.38         98.1917
   498.52         98.2242
   498.66         98.5202
   498.80         98.9859
   498.94         99.4991
   499.08         99.9276
   499.22         100.1493
   499.36         100.0802
   499.50         99.7047
   499.64         99.0770
   499.78         98.2852
   499.92         97.4034
   500.06         96.4556
   500.20         95.4235
   500.34         94.3002
   500.48         93.1221
   500.62         91.9511
   500.76         90.8530
   500.90         89.8971
   501.04         89.1573
   501.18         88.7030
   501.32         88.5935
   501.46         88.8784
   501.60         89.5947
   501.74         90.7661
   501.88         92.4014
   502.02         94.4780
   502.16         96.9090
   502.30         99.5138
   502.44         102.0406
   502.58         104.2176
   502.72         105.8031
   502.86         106.6527
   503.00         106.7723
   503.14         106.3106
   503.28         105.5123
   503.42         104.6469
   503.56         103.9374
   503.70         103.5354
   503.84         103.5323
   503.98         103.9836
   504.12         104.9323
   504.26         106.4054
   504.40         108.3709
   504.54         110.7054
   504.68         113.2140
   504.82         115.6898
   504.96         117.9564
   505.10         119.8633
   505.24         121.2868
   505.38         122.1751
   505.52         122.5762
   505.66         122.6047
   505.80         122.3684
   505.94         121.9155
   506.08         121.2398
   506.22         120.3344
   506.36         119.2359
   506.50         118.0182
   506.64         116.7499
   506.78         115.4640
   506.92         114.1681
   507.06         112.8721
   507.20         111.6124
   507.34         110.4519
   507.48         109.4572
   507.62         108.6757
   507.76         108.1431
   507.90         107.9256
   508.04         108.1208
   508.18         108.7977
   508.32         109.9485
   508.46         111.4731
   508.60         113.2085
   508.74         114.9792
   508.88         116.6292
   509.02         118.0302
   509.16         119.0852
   509.30         119.7338
   509.44         119.9593
   509.58         119.7832
   509.72         119.2424
   509.86         118.3833
   510.00         117.2771
   510.14         116.0342
   510.28         114.8029
   510.42         113.7431
   510.56         112.9935
   510.70         112.6368
   510.84         112.6645
   510.98         112.9814
   511.12         113.4567
   511.26         113.9655
   511.40         114.3953
   511.54         114.6421
   511.68         114.6154
   511.82         114.2577
   511.96         113.5748
   512.10         112.6536
   512.24         111.6488
   512.38         110.7417
   512.52         110.0998
   512.66         109.8492
   512.80         110.0397
   512.94         110.6168
   513.08         111.4331
   513.22         112.2880
   513.36         112.9622
   513.50         113.2627
   513.64         113.0807
   513.78         112.4049
   513.92         111.2947
   514.06         109.8751
   514.20         108.3440
   514.34         106.9498
   514.48         105.9423
   514.62         105.5140
   514.76         105.7595
   514.90         106.6639
   515.04         108.1030
   515.18         109.8514
   515.32         111.5901
   515.46         112.9434
   515.60         113.5691
   515.74         113.2283
   515.88         111.7957
   516.02         109.2583
   516.16         105.7453
   516.30         101.5322
   516.44         96.9953
   516.58         92.5664
   516.72         88.6721
   516.86         85.6460
   517.00         83.6633
   517.14         82.7443
   517.28         82.8031
   517.42         83.7025
   517.56         85.2692
   517.70         87.2772
   517.84         89.4542
   517.98         91.5305
   518.12         93.3134
   518.26         94.7294
   518.40         95.8021
   518.54         96.6118
   518.68         97.2761
   518.82         97.9225
   518.96         98.6320
   519.10         99.3943
   519.24         100.1119
   519.38         100.6409
   519.52         100.8490
   519.66         100.6701
   519.80         100.1403
   519.94         99.3909
   520.08         98.5884
   520.22         97.8773
   520.36         97.3613
   520.50         97.1297
   520.64         97.2863
   520.78         97.9435
   520.92         99.1747
   521.06         100.9426
   521.20         103.0659
   521.34         105.2719
   521.48         107.2897
   521.62         108.9337
   521.76         110.1461
   521.90         110.9822
   522.04         111.5695
   522.18         112.0744
   522.32         112.6811
   522.46         113.5758
   522.60         114.8913
   522.74         116.6544
   522.88         118.7981
   523.02         121.2055
   523.16         123.7449
   523.30         126.2362
   523.44         128.4283
   523.58         130.0460
   523.72         130.8453
   523.86         130.6789
   524.00         129.5554
   524.14         127.6355
   524.28         125.1714
   524.42         122.4505
   524.56         119.7642
   524.70         117.3860
   524.84         115.5402
   524.98         114.3585
   525.12         113.8401
   525.26         113.8583
   525.40         114.2238
   525.54         114.7328
   525.68         115.1744
   525.82         115.3496
   525.96         115.1113
   526.10         114.4304
   526.24         113.4176
   526.38         112.2881
   526.52         111.3314
   526.66         110.8566
   526.80         111.1140
   526.94         112.2355
   527.08         114.2166
   527.22         116.9374
   527.36         120.2006
   527.50         123.7687
   527.64         127.4062
   527.78         130.9229
   527.92         134.1965
   528.06         137.1528
   528.20         139.7193
   528.34         141.8010
   528.48         143.2926
   528.62         144.1142
   528.76         144.2354
   528.90         143.6881
   529.04         142.5879
   529.18         141.1340
   529.32         139.5686
   529.46         138.1360
   529.60         137.0655
   529.74         136.5683
   529.88         136.8158
   530.02         137.8777
   530.16         139.6856
   530.30         142.0558
   530.44         144.7362
   530.58         147.4439
   530.72         149.8952
   530.86         151.8382
   531.00         153.0926
   531.14         153.5829
   531.28         153.3400
   531.42         152.4498
   531.56         151.0010
   531.70         149.0829
   531.84         146.8163
   531.98         144.3614
   532.12         141.9052
   532.26         139.6513
   532.40         137.7898
   532.54         136.4586
   532.68         135.7215
   532.82         135.5721
   532.96         135.9566
   533.10         136.7979
   533.24         137.9940
   533.38         139.4078
   533.52         140.8763
   533.66         142.2314
   533.80         143.3473
   533.94         144.1894
   534.08         144.8296
   534.22         145.4388
   534.36         146.2532
   534.50         147.5116
   534.64         149.3700
   534.78         151.8495
   534.92         154.8306
   535.06         158.0775
   535.20         161.3017
   535.34         164.2209
   535.48         166.5966
   535.62         168.2436
   535.76         169.0151
   535.90         168.8183
   536.04         167.6766
   536.18         165.7701
   536.32         163.4010
   536.46         160.9323
   536.60         158.7158
   536.74         157.0187
   536.88         155.9920
   537.02         155.6601
   537.16         155.9380
   537.30         156.6647
   537.44         157.6288
   537.58         158.5958
   537.72         159.3414
   537.86         159.6836
   538.00         159.4985
   538.14         158.7192
   538.28         157.3267
   538.42         155.3668
   538.56         152.9814
   538.70         150.3993
   538.84         147.8717
   538.98         145.5932
   539.12         143.6707
   539.26         142.1143
   539.40         140.8619
   539.54         139.8283
   539.68         138.9282
   539.82         138.1101
   539.96         137.3867
   540.10         136.8302
   540.24         136.5500
   540.38         136.6709
   540.52         137.3112
   540.66         138.5446
   540.80         140.3698
   540.94         142.7273
   541.08         145.5299
   541.22         148.6646
   541.36         151.9817
   541.50         155.2756
   541.64         158.2819
   541.78         160.7195
   541.92         162.3553
   542.06         163.0613
   542.20         162.8172
   542.34         161.6961
   542.48         159.8867
   542.62         157.6851
   542.76         155.4334
   542.90         153.4600
   543.04         152.0410
   543.18         151.3523
   543.32         151.4205
   543.46         152.1301
   543.60         153.2802
   543.74         154.6307
   543.88         155.9344
   544.02         156.9503
   544.16         157.4425
   544.30         157.2048
   544.44         156.1276
   544.58         154.2515
   544.72         151.7490
   544.86         148.8787
   545.00         145.9541
   545.14         143.3031
   545.28         141.1999
   545.42         139.8085
   545.56         139.1662
   545.70         139.1912
   545.84         139.7028
   545.98         140.4679
   546.12         141.2758
   546.26         141.9810
   546.40         142.4865
   546.54         142.7303
   546.68         142.6847
   546.82         142.3568
   546.96         141.7967
   547.10         141.1180
   547.24         140.4747
   547.38         140.0013
   547.52         139.7889
   547.66         139.8923
   547.80         140.3373
   547.94         141.1112
   548.08         142.1567
   548.22         143.3833
   548.36         144.6786
   548.50         145.9266
   548.64         147.0447
   548.78         147.9928
   548.92         148.7509
   549.06         149.3103
   549.20         149.6784
   549.34         149.8601
   549.48         149.8508
   549.62         149.6697
   549.76         149.3684
   549.90         148.9844
   550.04         148.5047
   550.18         147.8990
   550.32         147.1728
   550.46         146.3959
   550.60         145.6945
   550.74         145.2195
   550.88         145.1063
   551.02         145.4469
   551.16         146.2902
   551.30         147.6374
   551.44         149.4162
   551.58         151.4881
   551.72         153.6970
   551.86         155.9060
   552.00         157.9873
   552.14         159.8146
   552.28         161.2823
   552.42         162.3197
   552.56         162.9077
   552.70         163.1087
   552.84         163.0717
   552.98         162.9822
   553.12         162.9977
   553.26         163.2075
   553.40         163.6302
   553.54         164.2438
   553.68         165.0258
   553.82         165.9531
   553.96         166.9793
   554.10         168.0424
   554.24         169.0853
   554.38         170.0676
   554.52         170.9551
   554.66         171.6959
   554.80         172.2382
   554.94         172.5621
   555.08         172.6734
   555.22         172.5771
   555.36         172.2679
   555.50         171.7336
   555.64         170.9674
   555.78         169.9900
   555.92         168.8680
   556.06         167.7097
   556.20         166.6364
   556.34         165.7533
   556.48         165.1247
   556.62         164.7772
   556.76         164.7193
   556.90         164.9383
   557.04         165.3938
   557.18         166.0084
   557.32         166.6617
   557.46         167.1990
   557.60         167.4587
   557.74         167.3094
   557.88         166.6770
   558.02         165.5601
   558.16         164.0309
   558.30         162.2295
   558.44         160.3388
   558.58         158.5358
   558.72         156.9547
   558.86         155.6766
   559.00         154.7390
   559.14         154.1504
   559.28         153.9113
   559.42         154.0249
   559.56         154.4875
   559.70         155.2714
   559.84         156.3215
   559.98         157.5732
   560.12         158.9625
   560.26         160.4097
   560.40         161.8212
   560.54         163.0954
   560.68         164.1282
   560.82         164.8381
   560.96         165.1775
   561.10         165.1072
   561.24         164.5887
   561.38         163.6271
   561.52         162.3043
   561.66         160.7736
   561.80         159.2285
   561.94         157.8626
   562.08         156.8318
   562.22         156.2221
   562.36         156.0328
   562.50         156.1908
   562.64         156.5747
   562.78         157.0346
   562.92         157.4275
   563.06         157.6728
   563.20         157.7639
   563.34         157.7357
   563.48         157.6379
   563.62         157.5202
   563.76         157.4320
   563.90         157.4382
   564.04         157.6293
   564.18         158.0905
   564.32         158.8514
   564.46         159.8576
   564.60         160.9802
   564.74         162.0552
   564.88         162.9162
   565.02         163.4257
   565.16         163.5125
   565.30         163.1911
   565.44         162.5363
   565.58         161.6496
   565.72         160.6453
   565.86         159.6465
   566.00         158.7932
   566.14         158.2379
   566.28         158.1231
   566.42         158.5497
   566.56         159.5449
   566.70         161.0498
   566.84         162.9260
   566.98         164.9807
   567.12         167.0219
   567.26         168.9072
   567.40         170.5425
   567.54         171.8514
   567.68         172.7817
   567.82         173.3414
   567.96         173.6000
   568.10         173.6525
   568.24         173.6044
   568.38         173.5716
   568.52         173.6551
   568.66         173.9005
   568.80         174.2674
   568.94         174.6369
   569.08         174.8594
   569.22         174.8010
   569.36         174.3644
   569.50         173.4850
   569.64         172.1359
   569.78         170.3485
   569.92         168.2196
   570.06         165.9060
   570.20         163.6277
   570.34         161.6585
   570.48         160.2653
   570.62         159.6331
   570.76         159.8395
   570.90         160.8780
   571.04         162.6805
   571.18         165.1120
   571.32         167.9604
   571.46         170.9646
   571.60         173.8683
   571.74         176.4611
   571.88         178.5822
   572.02         180.1205
   572.16         181.0432
   572.30         181.4086
   572.44         181.3391
   572.58         180.9892
   572.72         180.5200
   572.86         180.0642
   573.00         179.7020
   573.14         179.4695
   573.28         179.3886
   573.42         179.4681
   573.56         179.6757
   573.70         179.9428
   573.84         180.1969
   573.98         180.3693
   574.12         180.4115
   574.26         180.3252
   574.40         180.1698
   574.54         180.0330
   574.68         179.9758
   574.82         179.9996
   574.96         180.0573
   575.10         180.1016
   575.24         180.1403
   575.38         180.2333
   575.52         180.4488
   575.66         180.8382
   575.80         181.4229
   575.94         182.1880
   576.08         183.0814
   576.22         184.0314
   576.36         184.9768
   576.50         185.8577
   576.64         186.5788
   576.78         187.0125
   576.92         187.0306
   577.06         186.5221
   577.20         185.3898
   577.34         183.5867
   577.48         181.1898
   577.62         178.4077
   577.76         175.5263
   577.90         172.8398
   578.04         170.6030
   578.18         169.0165
   578.32         168.2109
   578.46         168.2248
   578.60         169.0289
   578.74         170.5754
   578.88         172.7923
   579.02         175.5479
   579.16         178.6316
   579.30         181.7749
   579.44         184.7248
   579.58         187.3185
   579.72         189.4963
   579.86         191.2689
   580.00         192.6832
   580.14         193.7790
   580.28         194.5661
   580.42         195.0550
   580.56         195.2933
   580.70         195.3685
   580.84         195.3688
   580.98         195.3477
   581.12         195.3400
   581.26         195.4023
   581.40         195.5962
   581.54         195.9315
   581.68         196.3646
   581.82         196.8397
   581.96         197.3220
   582.10         197.7948
   582.24         198.2395
   582.38         198.6282
   582.52         198.9294
   582.66         199.1228
   582.80         199.2158
   582.94         199.2598
   583.08         199.3342
   583.22         199.4970
   583.36         199.7447
   583.50         200.0160
   583.64         200.2262
   583.78         200.2864
   583.92         200.0987
   584.06         199.5614
   584.20         198.5965
   584.34         197.1675
   584.48         195.2747
   584.62         192.9718
   584.76         190.3827
   584.90         187.6905
   585.04         185.0927
   585.18         182.7548
   585.32         180.7926
   585.46         179.2725
   585.60         178.2270
   585.74         177.6638
   585.88         177.5518
   586.02         177.8160
   586.16         178.3617
   586.30         179.0786
   586.44         179.8253
   586.58         180.4427
   586.72         180.7962
   586.86         180.8078
   587.00         180.4550
   587.14         179.7454
   587.28         178.7122
   587.42         177.3741
   587.56         175.6536
   587.70         173.3805
   587.84         170.4015
   587.98         166.6785
   588.12         162.2745
   588.26         157.2884
   588.40         151.8515
   588.54         146.1621
   588.68         140.5075
   588.82         135.2464
   588.96         130.7523
   589.10         127.3603
   589.24         125.3344
   589.38         124.8541
   589.52         125.9896
   589.66         128.6711
   589.80         132.6708
   589.94         137.6150
   590.08         143.0168
   590.22         148.3593
   590.36         153.2297
   590.50         157.3880
   590.64         160.7148
   590.78         163.1459
   590.92         164.6942
   591.06         165.4964
   591.20         165.7697
   591.34         165.7391
   591.48         165.6031
   591.62         165.5164
   591.76         165.5843
   591.90         165.8676
   592.04         166.3848
   592.18         167.1040
   592.32         167.9532
   592.46         168.8417
   592.60         169.6701
   592.74         170.3478
   592.88         170.8210
   593.02         171.0840
   593.16         171.1694
   593.30         171.1374
   593.44         171.0494
   593.58         170.9406
   593.72         170.8276
   593.86         170.7219
   594.00         170.6242
   594.14         170.5042
   594.28         170.2989
   594.42         169.9427
   594.56         169.4099
   594.70         168.7448
   594.84         168.0630
   594.98         167.5058
   595.12         167.1845
   595.26         167.1606
   595.40         167.4655
   595.54         168.1350
   595.68         169.2090
   595.82         170.6965
   595.96         172.5440
   596.10         174.6209
   596.24         176.7525
   596.38         178.7640
   596.52         180.4996
   596.66         181.8443
   596.80         182.7367
   596.94         183.1617
   597.08         183.1458
   597.22         182.7713
   597.36         182.1603
   597.50         181.4216
   597.64         180.6347
   597.78         179.8774
   597.92         179.2504
   598.06         178.8741
   598.20         178.8538
   598.34         179.2278
   598.48         179.9444
   598.62         180.8837
   598.76         181.8959
   598.90         182.8387
   599.04         183.6135
   599.18         184.1685
   599.32         184.4669
   599.46         184.4661
   599.60         184.1458
   599.74         183.5511
   599.88         182.7745
   600.02         181.9059
   600.16         181.0120
   600.30         180.1424
   600.44         179.3360
   600.58         178.6268
   600.72         178.0462
   600.86         177.6074
   601.00         177.3052
   601.14         177.1317
   601.28         177.0933
   601.42         177.2161
   601.56         177.5393
   601.70         178.0908
   601.84         178.8571
   601.98         179.8070
   602.12         180.9295
   602.26         182.2275
   602.40         183.6855
   602.54         185.2389
   602.68         186.8005
   602.82         188.2955
   602.96         189.6676
   603.10         190.8990
   603.24         192.0137
   603.38         193.0486
   603.52         194.0344
   603.66         194.9940
   603.80         195.9381
   603.94         196.8692
   604.08         197.7732
   604.22         198.6054
   604.36         199.2959
   604.50         199.7756
   604.64         200.0032
   604.78         199.9627
   604.92         199.6479
   605.06         199.0529
   605.20         198.1810
   605.34         197.0871
   605.48         195.9105
   605.62         194.8525
   605.76         194.1201
   605.90         193.8780
   606.04         194.2237
   606.18         195.1722
   606.32         196.6514
   606.46         198.5153
   606.60         200.5745
   606.74         202.6105
   606.88         204.3954
   607.02         205.7316
   607.16         206.4804
   607.30         206.5731
   607.44         206.0152
   607.58         204.8732
   607.72         203.2544
   607.86         201.3119
   608.00         199.2513
   608.14         197.2938
   608.28         195.6127
   608.42         194.3099
   608.56         193.4401
   608.70         193.0136
   608.84         192.9767
   608.98         193.2198
   609.12         193.6131
   609.26         194.0419
   609.40         194.4250
   609.54         194.7090
   609.68         194.8785
   609.82         194.9572
   609.96         194.9896
   610.10         195.0399
   610.24         195.1679
   610.38         195.4157
   610.52         195.8227
   610.66         196.3927
   610.80         197.0532
   610.94         197.6890
   611.08         198.2064
   611.22         198.5423
   611.36         198.6237
   611.50         198.3583
   611.64         197.6966
   611.78         196.7033
   611.92         195.5380
   612.06         194.3616
   612.20         193.2474
   612.34         192.1688
   612.48         191.0545
   612.62         189.8649
   612.76         188.6100
   612.90         187.3044
   613.04         185.9705
   613.18         184.6722
   613.32         183.5106
   613.46         182.6076
   613.60         182.0858
   613.74         182.0167
   613.88         182.3847
   614.02         183.1137
   614.16         184.1194
   614.30         185.3277
   614.44         186.6455
   614.58         187.9000
   614.72         188.8234
   614.86         189.1186
   615.00         188.5635
   615.14         187.1036
   615.28         184.8421
   615.42         181.9562
   615.56         178.6441
   615.70         175.1179
   615.84         171.5946
   615.98         168.2657
   616.12         165.2725
   616.26         162.7217
   616.40         160.7138
   616.54         159.3359
   616.68         158.6343
   616.82         158.5913
   616.96         159.1250
   617.10         160.1014
   617.24         161.3392
   617.38         162.6325
   617.52         163.7916
   617.66         164.6696
   617.80         165.1679
   617.94         165.2195
   618.08         164.7916
   618.22         163.9019
   618.36         162.6305
   618.50         161.1142
   618.64         159.5056
   618.78         157.9371
   618.92         156.5356
   619.06         155.4401
   619.20         154.7763
   619.34         154.6258
   619.48         155.0144
   619.62         155.9044
   619.76         157.1787
   619.90         158.6459
   620.04         160.0636
   620.18         161.1795
   620.32         161.7891
   620.46         161.7772
   620.60         161.1323
   620.74         159.9172
   620.88         158.2244
   621.02         156.1558
   621.16         153.8265
   621.30         151.3761
   621.44         148.9825
   621.58         146.8345
   621.72         145.0593
   621.86         143.6921
   622.00         142.7133
   622.14         142.0961
   622.28         141.8138
   622.42         141.8256
   622.56         142.0609
   622.70         142.4105
   622.84         142.7637
   622.98         143.0502
   623.12         143.2317
   623.26         143.2897
   623.40         143.2330
   623.54         143.1125
   623.68         143.0071
   623.82         142.9794
   623.96         143.0556
   624.10         143.2304
   624.24         143.4614
   624.38         143.6687
   624.52         143.7781
   624.66         143.7697
   624.80         143.6774
   624.94         143.5540
   625.08         143.4508
   625.22         143.4008
   625.36         143.4308
   625.50         143.5966
   625.64         143.9775
   625.78         144.6479
   625.92         145.6638
   626.06         147.0445
   626.20         148.7429
   626.34         150.6377
   626.48         152.5616
   626.62         154.3369
   626.76         155.7869
   626.90         156.7594
   627.04         157.1712
   627.18         157.0453
   627.32         156.5151
   627.46         155.7820
   627.60         155.0746
   627.74         154.6069
   627.88         154.5259
   628.02         154.9105
   628.16         155.7913
   628.30         157.1350
   628.44         158.8341
   628.58         160.7373
   628.72         162.6848
   628.86         164.5291
   629.00         166.1486
   629.14         167.4538
   629.28         168.3991
   629.42         169.0126
   629.56         169.4167
   629.70         169.7826
   629.84         170.2575
   629.98         170.9421
   630.12         171.8942
   630.26         173.1043
   630.40         174.4711
   630.54         175.8356
   630.68         177.0512
   630.82         178.0276
   630.96         178.7327
   631.10         179.1937
   631.24         179.4956
   631.38         179.7464
   631.52         180.0464
   631.66         180.4813
   631.80         181.1216
   631.94         182.0153
   632.08         183.1681
   632.22         184.5010
   632.36         185.8697
   632.50         187.1396
   632.64         188.2278
   632.78         189.1010
   632.92         189.7549
   633.06         190.1883
   633.20         190.4006
   633.34         190.4188
   633.48         190.3033
   633.62         190.1331
   633.76         189.9979
   633.90         189.9818
   634.04         190.1304
   634.18         190.4308
   634.32         190.8191
   634.46         191.1775
   634.60         191.3308
   634.74         191.0966
   634.88         190.3518
   635.02         189.0799
   635.16         187.3541
   635.30         185.3066
   635.44         183.1238
   635.58         181.0268
   635.72         179.2446
   635.86         178.0162
   636.00         177.5737
   636.14         178.0775
   636.28         179.5733
   636.42         181.9752
   636.56         185.0606
   636.70         188.5062
   636.84         191.9712
   636.98         195.1603
   637.12         197.8385
   637.26         199.8535
   637.40         201.1777
   637.54         201.8851
   637.68         202.0936
   637.82         201.9368
   637.96         201.5410
   638.10         201.0002
   638.24         200.3992
   638.38         199.8414
   638.52         199.4178
   638.66         199.1578
   638.80         199.0239
   638.94         198.9848
   639.08         199.0690
   639.22         199.3425
   639.36         199.8749
   639.50         200.7127
   639.64         201.8577
   639.78         203.2549
   639.92         204.7982
   640.06         206.3539
   640.20         207.7867
   640.34         208.9895
   640.48         209.8925
   640.62         210.4498
   640.76         210.6378
   640.90         210.4739
   641.04         210.0184
   641.18         209.3457
   641.32         208.5492
   641.46         207.7740
   641.60         207.1912
   641.74         206.8834
   641.88         206.8058
   642.02         206.8632
   642.16         206.9790
   642.30         207.1155
   642.44         207.2553
   642.58         207.3907
   642.72         207.5344
   642.86         207.7554
   643.00         208.1548
   643.14         208.7909
   643.28         209.6760
   643.42         210.8018
   643.56         212.1305
   643.70         213.5481
   643.84         214.8596
   643.98         215.8738
   644.12         216.4623
   644.26         216.5475
   644.40         216.1168
   644.54         215.2802
   644.68         214.2465
   644.82         213.2306
   644.96         212.3789
   645.10         211.7646
   645.24         211.4332
   645.38         211.4310
   645.52         211.8047
   645.66         212.5341
   645.80         213.4919
   645.94         214.5021
   646.08         215.3848
   646.22         215.9801
   646.36         216.1979
   646.50         216.0734
   646.64         215.7315
   646.78         215.2744
   646.92         214.7136
   647.06         214.0122
   647.20         213.1491
   647.34         212.1173
   647.48         210.9102
   647.62         209.5438
   647.76         208.0838
   647.90         206.6149
   648.04         205.1682
   648.18         203.6708
   648.32         201.9592
   648.46         199.8599
   648.60         197.2786
   648.74         194.2494
   648.88         190.9394
   649.02         187.6064
   649.16         184.5390
   649.30         182.0057
   649.44         180.2099
   649.58         179.2917
   649.72         179.3639
   649.86         180.5020
   650.00         182.6924
   650.14         185.8000
   650.28         189.5752
   650.42         193.6825
   650.56         197.7567
   650.70         201.4894
   650.84         204.6872
   650.98         207.2960
   651.12         209.3819
   651.26         211.0735
   651.40         212.5043
   651.54         213.7747
   651.68         214.9374
   651.82         216.0083
   651.96         216.9813
   652.10         217.8487
   652.24         218.6301
   652.38         219.3735
   652.52         220.1323
   652.66         220.9392
   652.80         221.8048
   652.94         222.7217
   653.08         223.6623
   653.22         224.5783
   653.36         225.3989
   653.50         226.0343
   653.64         226.3918
   653.78         226.3840
   653.92         225.9336
   654.06         224.9904
   654.20         223.5510
   654.34         221.6648
   654.48         219.4322
   654.62         217.0121
   654.76         214.5884
   654.90         212.2764
   655.04         210.0700
   655.18         207.9346
   655.32         205.9201
   655.46         204.1469
   655.60         202.7391
   655.74         201.7910
   655.88         201.3557
   656.02         201.4230
   656.16         201.9239
   656.30         202.7614
   656.44         203.8512
   656.58         205.1387
   656.72         206.5744
   656.86         208.1034
   657.00         209.6868
   657.14         211.3049
   657.28         212.9373
   657.42         214.5463
   657.56         216.1041
   657.70         217.6496
   657.84         219.2738
   657.98         220.9891
   658.12         222.6482
   658.26         224.0246
   658.40         224.9249
   658.54         225.2260
   658.68         224.8979
   658.82         224.0524
   658.96         222.9243
   659.10         221.7642
   659.24         220.7405
   659.38         219.9198
   659.52         219.3042
   659.66         218.8769
   659.80         218.6190
   659.94         218.5054
   660.08         218.4839
   660.22         218.4917
   660.36         218.4841
   660.50         218.4353
   660.64         218.3791
   660.78         218.4316
   660.92         218.7295
   661.06         219.3430
   661.20         220.2341
   661.34         221.3136
   661.48         222.4956
   661.62         223.6589
   661.76         224.6359
   661.90         225.2625
   662.04         225.4323
   662.18         225.1323
   662.32         224.4480
   662.46         223.5215
   662.60         222.5057
   662.74         221.5403
   662.88         220.7505
   663.02         220.2145
   663.16         219.9347
   663.30         219.8745
   663.44         219.9673
   663.58         220.1183
   663.72         220.2397
   663.86         220.2747
   664.00         220.2076
   664.14         220.0349
   664.28         219.7300
   664.42         219.2690
   664.56         218.6449
   664.70         217.8590
   664.84         216.9227
   664.98         215.8491
   665.12         214.6542
   665.26         213.3691
   665.40         212.0283
   665.54         210.6629
   665.68         209.3193
   665.82         208.0795
   665.96         207.0527
   666.10         206.3248
   666.24         205.9345
   666.38         205.8677
   666.52         206.0569
   666.66         206.4153
   666.80         206.8504
   666.94         207.2667
   667.08         207.5944
   667.22         207.7999
   667.36         207.8762
   667.50         207.8361
   667.64         207.7053
   667.78         207.5278
   667.92         207.3586
   668.06         207.2463
   668.20         207.2315
   668.34         207.3357
   668.48         207.5424
   668.62         207.8137
   668.76         208.1199
   668.90         208.4301
   669.04         208.7000
   669.18         208.9027
   669.32         209.0557
   669.46         209.2005
   669.60         209.3710
   669.74         209.5813
   669.88         209.8139
   670.02         210.0110
   670.16         210.0885
   670.30         209.9645
   670.44         209.5775
   670.58         208.8939
   670.72         207.9145
   670.86         206.6751
   671.00         205.2465
   671.14         203.7389
   671.28         202.2850
   671.42         200.9973
   671.56         199.9392
   671.70         199.1635
   671.84         198.7399
   671.98         198.7142
   672.12         199.0630
   672.26         199.7018
   672.40         200.5244
   672.54         201.4055
   672.68         202.1978
   672.82         202.7651
   672.96         203.0160
   673.10         202.9176
   673.24         202.4979
   673.38         201.8251
   673.52         200.9780
   673.66         200.0291
   673.80         199.0390
   673.94         198.0567
   674.08         197.1264
   674.22         196.2985
   674.36         195.6404
   674.50         195.2237
   674.64         195.1060
   674.78         195.3207
   674.92         195.8834
   675.06         196.7886
   675.20         197.9959
   675.34         199.4373
   675.48         201.0250
   675.62         202.6642
   675.76         204.2733
   675.90         205.7862
   676.04         207.1473
   676.18         208.3236
   676.32         209.3182
   676.46         210.1725
   676.60         210.9524
   676.74         211.7282
   676.88         212.5531
   677.02         213.4264
   677.16         214.2702
   677.30         214.9546
   677.44         215.3487
   677.58         215.3588
   677.72         214.9323
   677.86         214.0590
   678.00         212.7773
   678.14         211.1699
   678.28         209.3738
   678.42         207.5703
   678.56         205.9537
   678.70         204.7100
   678.84         203.9835
   678.98         203.8387
   679.12         204.2581
   679.26         205.1614
   679.40         206.4139
   679.54         207.8434
   679.68         209.2803
   679.82         210.6057
   679.96         211.7643
   680.10         212.7312
   680.24         213.4813
   680.38         214.0047
   680.52         214.3368
   680.66         214.5388
   680.80         214.6677
   680.94         214.7858
   681.08         214.9633
   681.22         215.2614
   681.36         215.7110
   681.50         216.2879
   681.64         216.9219
   681.78         217.5462
   681.92         218.1129
   682.06         218.5863
   682.20         218.9585
   682.34         219.2516
   682.48         219.4941
   682.62         219.6939
   682.76         219.8240
   682.90         219.8463
   683.04         219.7456
   683.18         219.5331
   683.32         219.2275
   683.46         218.8533
   683.60         218.4505
   683.74         218.0618
   683.88         217.7091
   684.02         217.3876
   684.16         217.0740
   684.30         216.7565
   684.44         216.4535
   684.58         216.1906
   684.72         215.9666
   684.86         215.7418
   685.00         215.4643
   685.14         215.1049
   685.28         214.6694
   685.42         214.1762
   685.56         213.6087
   685.70         212.8776
   685.84         211.8316
   685.98         210.3090
   686.12         208.1841
   686.26         205.3999
   686.40         201.9983
   686.54         198.1348
   686.68         194.0569
   686.82         190.0611
   686.96         186.4692
   687.10         183.5995
   687.24         181.7105
   687.38         180.9525
   687.52         181.3702
   687.66         182.9198
   687.80         185.4362
   687.94         188.6334
   688.08         192.1487
   688.22         195.6017
   688.36         198.6966
   688.50         201.2749
   688.64         203.2963
   688.78         204.7933
   688.92         205.8473
   689.06         206.5894
   689.20         207.1817
   689.34         207.7800
   689.48         208.5141
   689.62         209.4793
   689.76         210.7142
   689.90         212.1893
   690.04         213.8226
   690.18         215.5089
   690.32         217.1467
   690.46         218.6565
   690.60         219.9981
   690.74         221.1482
   690.88         222.0952
   691.02         222.8537
   691.16         223.4320
   691.30         223.8212
   691.44         224.0281
   691.58         224.0902
   691.72         224.0568
   691.86         223.9593
   692.00         223.8015
   692.14         223.5796
   692.28         223.2969
   692.42         222.9638
   692.56         222.6058
   692.70         222.2684
   692.84         222.0015
   692.98         221.8395
   693.12         221.7899
   693.26         221.8245
   693.40         221.8853
   693.54         221.9152
   693.68         221.8602
   693.82         221.6603
   693.96         221.2798
   694.10         220.7299
   694.24         220.0573
   694.38         219.3359
   694.52         218.6683
   694.66         218.1736
   694.80         217.9656
   694.94         218.1227
   695.08         218.6791
   695.22         219.6341
   695.36         220.9503
   695.50         222.5611
   695.64         224.3923
   695.78         226.3709
   695.92         228.4166
   696.06         230.4473
   696.20         232.3725
   696.34         234.0638
   696.48         235.3583
   696.62         236.1027
   696.76         236.2222
   696.90         235.7693
   697.04         234.8985
   697.18         233.7988
   697.32         232.6488
   697.46         231.5936
   697.60         230.7304
   697.74         230.1185
   697.88         229.7943
   698.02         229.7626
   698.16         229.9886
   698.30         230.4151
   698.44         230.9691
   698.58         231.5558
   698.72         232.0695
   698.86         232.4060
   699.00         232.4977
   699.14         232.3376
   699.28         231.9756
   699.42         231.5159
   699.56         231.0747
   699.70         230.7140
   699.84         230.4286
   699.98         230.1962
   700.12         229.9969
   700.26         229.7903
   700.40         229.5446
   700.54         229.2818
   700.68         229.0618
   700.82         228.9567
   700.96         229.0221
   701.10         229.2577
   701.24         229.6277
   701.38         230.1110
   701.52         230.7094
   701.66         231.4303
   701.80         232.2615
   701.94         233.1787
   702.08         234.1775
   702.22         235.2698
   702.36         236.4438
   702.50         237.6425
   702.64         238.8061
   702.78         239.9190
   702.92         241.0192
   703.06         242.1949
   703.20         243.5280
   703.34         245.0438
   703.48         246.7244
   703.62         248.5214
   703.76         250.3578
   703.90         252.1166
   704.04         253.6073
   704.18         254.5996
   704.32         254.9064
   704.46         254.4187
   704.60         253.0911
   704.74         250.9315
   704.88         248.0088
   705.02         244.4431
   705.16         240.4015
   705.30         236.0902
   705.44         231.7140
   705.58         227.4495
   705.72         223.4637
   705.86         219.9350
   706.00         217.0445
   706.14         214.9205
   706.28         213.5918
   706.42         213.0134
   706.56         213.1217
   706.70         213.8670
   706.84         215.2056
   706.98         217.0357
   707.12         219.1482
   707.26         221.2516
   707.40         223.0398
   707.54         224.2454
   707.68         224.6603
   707.82         224.1589
   707.96         222.7187
   708.10         220.4343
   708.24         217.5122
   708.38         214.2256
   708.52         210.8375
   708.66         207.5587
   708.80         204.5447
   708.94         201.9066
   709.08         199.7300
   709.22         198.0684
   709.36         196.9102
   709.50         196.1704
   709.64         195.7284
   709.78         195.4715
   709.92         195.3227
   710.06         195.2460
   710.20         195.2505
   710.34         195.3820
   710.48         195.6950
   710.62         196.2254
   710.76         196.9787
   710.90         197.9321
   711.04         199.0166
   711.18         200.0910
   711.32         200.9709
   711.46         201.4859
   711.60         201.5011
   711.74         200.9286
   711.88         199.7391
   712.02         197.9672
   712.16         195.7204
   712.30         193.1742
   712.44         190.5437
   712.58         188.0513
   712.72         185.9054
   712.86         184.2899
   713.00         183.3437
   713.14         183.1345
   713.28         183.6451
   713.42         184.7628
   713.56         186.2972
   713.70         188.0370
   713.84         189.8020
   713.98         191.4663
   714.12         192.9576
   714.26         194.2454
   714.40         195.3432
   714.54         196.3019
   714.68         197.1777
   714.82         198.0149
   714.96         198.8307
   715.10         199.6057
   715.24         200.3105
   715.38         200.9466
   715.52         201.5255
   715.66         202.0326
   715.80         202.4404
   715.94         202.7301
   716.08         202.8873
   716.22         202.9189
   716.36         202.8826
   716.50         202.8453
   716.64         202.8314
   716.78         202.8236
   716.92         202.7973
   717.06         202.7475
   717.20         202.6659
   717.34         202.5047
   717.48         202.1756
   717.62         201.5969
   717.76         200.7647
   717.90         199.7563
   718.04         198.6771
   718.18         197.6297
   718.32         196.7099
   718.46         196.0037
   718.60         195.5656
   718.74         195.3861
   718.88         195.4148
   719.02         195.6199
   719.16         195.9965
   719.30         196.5290
   719.44         197.1552
   719.58         197.8078
   719.72         198.4595
   719.86         199.1043
   720.00         199.7568
   720.14         200.4749
   720.28         201.3619
   720.42         202.5175
   720.56         203.9838
   720.70         205.7556
   720.84         207.7975
   720.98         210.0345
   721.12         212.3572
   721.26         214.6596
   721.40         216.8570
   721.54         218.8898
   721.68         220.7364
   721.82         222.3925
   721.96         223.8320
   722.10         225.0251
   722.24         225.9845
   722.38         226.7295
   722.52         227.2546
   722.66         227.5591
   722.80         227.6492
   722.94         227.5353
   723.08         227.2359
   723.22         226.7707
   723.36         226.1800
   723.50         225.5481
   723.64         224.9927
   723.78         224.6064
   723.92         224.4192
   724.06         224.3985
   724.20         224.4792
   724.34         224.6286
   724.48         224.8546
   724.62         225.1348
   724.76         225.3935
   724.90         225.5441
   725.04         225.5311
   725.18         225.3494
   725.32         225.0156
   725.46         224.5669
   725.60         224.0835
   725.74         223.6717
   725.88         223.4281
   726.02         223.4155
   726.16         223.6544
   726.30         224.1180
   726.44         224.7320
   726.58         225.4107
   726.72         226.1063
   726.86         226.7909
   727.00         227.4140
   727.14         227.8982
   727.28         228.1589
   727.42         228.1508
   727.56         227.8815
   727.70         227.3734
   727.84         226.6384
   727.98         225.6931
   728.12         224.5960
   728.26         223.4379
   728.40         222.3155
   728.54         221.3166
   728.68         220.5260
   728.82         220.0462
   728.96         219.9546
   729.10         220.2504
   729.24         220.8778
   729.38         221.7760
   729.52         222.8817
   729.66         224.1247
   729.80         225.4331
   729.94         226.7160
   730.08         227.8652
   730.22         228.7787
   730.36         229.3715
   730.50         229.5995
   730.64         229.4877
   730.78         229.1245
   730.92         228.6238
   731.06         228.0645
   731.20         227.4652
   731.34         226.8318
   731.48         226.2041
   731.62         225.6428
   731.76         225.1979
   731.90         224.9043
   732.04         224.7867
   732.18         224.8532
   732.32         225.0914
   732.46         225.4920
   732.60         226.0646
   732.74         226.8272
   732.88         227.7790
   733.02         228.8684
   733.16         229.9982
   733.30         231.0551
   733.44         231.9513
   733.58         232.6325
   733.72         233.0445
   733.86         233.1279
   734.00         232.8674
   734.14         232.2930
   734.28         231.4048
   734.42         230.1510
   734.56         228.4977
   734.70         226.5048
   734.84         224.3175
   734.98         222.1019
   735.12         220.0077
   735.26         218.1553
   735.40         216.6396
   735.54         215.5252
   735.68         214.8359
   735.82         214.5875
   735.96         214.8227
   736.10         215.6009
   736.24         216.9389
   736.38         218.7762
   736.52         221.0062
   736.66         223.5158
   736.80         226.1716
   736.94         228.8043
   737.08         231.2560
   737.22         233.4200
   737.36         235.2189
   737.50         236.5632
   737.64         237.3542
   737.78         237.5398
   737.92         237.1535
   738.06         236.2968
   738.20         235.1073
   738.34         233.7373
   738.48         232.3393
   738.62         231.0506
   738.76         229.9919
   738.90         229.2809
   739.04         229.0268
   739.18         229.3013
   739.32         230.0999
   739.46         231.3309
   739.60         232.8381
   739.74         234.4382
   739.88         235.9458
   740.02         237.1787
   740.16         237.9864
   740.30         238.2762
   740.44         238.0201
   740.58         237.2445
   740.72         236.0138
   740.86         234.4349
   741.00         232.6593
   741.14         230.8786
   741.28         229.2919
   741.42         228.0586
   741.56         227.2948
   741.70         227.0479
   741.84         227.2485
   741.98         227.7579
   742.12         228.4527
   742.26         229.2307
   742.40         229.9917
   742.54         230.6405
   742.68         231.1013
   742.82         231.3361
   742.96         231.3361
   743.10         231.1013
   743.24         230.6405
   743.38         229.9917
   743.52         229.2307
   743.66         228.4527
   743.80         227.7579
   743.94         227.2485
   744.08         227.0479
   744.22         227.2948
