# File HD14357
# Wavelength [nm]    Normalized Amplitude
   349.70         1499.9525
   349.84         1498.5107
   349.98         1498.5655
   350.12         1499.4435
   350.26         1500.3687
   350.40         1500.8344
   350.54         1500.7216
   350.68         1500.1858
   350.82         1499.5315
   350.96         1499.0209
   351.10         1498.8264
   351.24         1499.0209
   351.38         1499.5315
   351.52         1500.1858
   351.66         1500.7216
   351.80         1500.8344
   351.94         1500.3687
   352.08         1499.4435
   352.22         1498.5655
   352.36         1498.5107
   352.50         1499.9525
   352.64         1503.1976
   352.78         1508.2465
   352.92         1514.8865
   353.06         1522.6510
   353.20         1530.8069
   353.34         1538.4532
   353.48         1544.6798
   353.62         1548.6545
   353.76         1549.8170
   353.90         1547.8601
   354.04         1542.6279
   354.18         1534.3193
   354.32         1523.6449
   354.46         1511.7425
   354.60         1499.8849
   354.74         1489.1324
   354.88         1480.3810
   355.02         1474.2891
   355.16         1471.0394
   355.30         1470.4410
   355.44         1472.0852
   355.58         1475.4487
   355.72         1480.0702
   355.86         1485.5902
   356.00         1491.5689
   356.14         1497.4772
   356.28         1502.8468
   356.42         1507.3040
   356.56         1510.4589
   356.70         1512.1080
   356.84         1512.4935
   356.98         1512.0182
   357.12         1510.9293
   357.26         1509.2919
   357.40         1507.0851
   357.54         1504.3168
   357.68         1500.9621
   357.82         1497.0458
   357.96         1492.7628
   358.10         1488.3268
   358.24         1483.8637
   358.38         1479.4360
   358.52         1475.0415
   358.66         1470.6698
   358.80         1466.4039
   358.94         1462.3676
   359.08         1458.6355
   359.22         1455.2646
   359.36         1452.4746
   359.50         1450.5975
   359.64         1449.8316
   359.78         1450.2275
   359.92         1451.7146
   360.06         1454.0739
   360.20         1457.0304
   360.34         1460.3339
   360.48         1463.6023
   360.62         1466.2635
   360.76         1467.8197
   360.90         1468.1064
   361.04         1467.3255
   361.18         1465.8789
   361.32         1464.2018
   361.46         1462.6519
   361.60         1461.4321
   361.74         1460.5298
   361.88         1459.7420
   362.02         1458.7739
   362.16         1457.0693
   362.30         1453.8114
   362.44         1448.3890
   362.58         1440.6502
   362.72         1430.9267
   362.86         1420.0431
   363.00         1409.1626
   363.14         1399.4335
   363.28         1391.7495
   363.42         1386.7231
   363.56         1384.6188
   363.70         1385.3367
   363.84         1388.5447
   363.98         1393.6424
   364.12         1399.7149
   364.26         1405.7932
   364.40         1411.1087
   364.54         1415.2095
   364.68         1417.9929
   364.82         1419.5778
   364.96         1420.2472
   365.10         1420.4788
   365.24         1420.7614
   365.38         1421.3660
   365.52         1422.3189
   365.66         1423.4829
   365.80         1424.5605
   365.94         1425.2308
   366.08         1425.3719
   366.22         1425.0729
   366.36         1424.5709
   366.50         1424.1281
   366.64         1423.9052
   366.78         1424.0367
   366.92         1424.6368
   367.06         1425.6592
   367.20         1426.9058
   367.34         1428.0809
   367.48         1428.8173
   367.62         1428.8620
   367.76         1428.2374
   367.90         1427.0487
   368.04         1425.3071
   368.18         1423.0558
   368.32         1420.3977
   368.46         1417.3409
   368.60         1413.8690
   368.74         1410.1677
   368.88         1406.6041
   369.02         1403.4365
   369.16         1400.5004
   369.30         1397.2851
   369.44         1393.3250
   369.58         1388.5034
   369.72         1383.1285
   369.86         1377.6920
   370.00         1372.6087
   370.14         1368.3370
   370.28         1365.6059
   370.42         1365.2479
   370.56         1367.8610
   370.70         1373.5712
   370.84         1381.8317
   370.98         1391.5011
   371.12         1401.3172
   371.26         1410.3706
   371.40         1418.1934
   371.54         1424.5682
   371.68         1429.4215
   371.82         1432.8583
   371.96         1435.2028
   372.10         1436.8446
   372.24         1437.9340
   372.38         1438.3691
   372.52         1438.1073
   372.66         1437.4630
   372.80         1437.2017
   372.94         1438.3130
   373.08         1441.5497
   373.22         1447.0941
   373.36         1454.5381
   373.50         1463.1383
   373.64         1472.0994
   373.78         1480.6029
   373.92         1487.7309
   374.06         1492.6288
   374.20         1494.7856
   374.34         1494.0659
   374.48         1490.5867
   374.62         1484.7913
   374.76         1477.6777
   374.90         1470.8233
   375.04         1466.0467
   375.18         1464.8653
   375.32         1468.0702
   375.46         1475.5679
   375.60         1486.2941
   375.74         1498.1515
   375.88         1508.4891
   376.02         1514.9807
   376.16         1516.2569
   376.30         1512.1437
   376.44         1503.6238
   376.58         1492.6299
   376.72         1481.6037
   376.86         1472.8359
   377.00         1467.9384
   377.14         1467.7480
   377.28         1472.4571
   377.42         1481.6829
   377.56         1494.4588
   377.70         1509.3286
   377.84         1524.6361
   377.98         1538.7850
   378.12         1550.3756
   378.26         1558.2416
   378.40         1561.5077
   378.54         1559.7735
   378.68         1553.1353
   378.82         1542.2404
   378.96         1528.2435
   379.10         1512.5244
   379.24         1496.5166
   379.38         1481.5374
   379.52         1468.7007
   379.66         1459.0527
   379.80         1453.5719
   379.94         1452.9001
   380.08         1457.2156
   380.22         1466.2772
   380.36         1479.3690
   380.50         1495.1753
   380.64         1511.7696
   380.78         1526.8863
   380.92         1538.5098
   381.06         1545.4411
   381.20         1547.4985
   381.34         1545.4057
   381.48         1540.4588
   381.62         1533.9596
   381.76         1526.8746
   381.90         1519.7407
   382.04         1512.5588
   382.18         1504.8302
   382.32         1495.7724
   382.46         1484.6347
   382.60         1471.0146
   382.74         1455.0976
   382.88         1437.6123
   383.02         1419.5090
   383.16         1401.8747
   383.30         1386.1052
   383.44         1373.8934
   383.58         1366.9314
   383.72         1366.3241
   383.86         1372.1456
   384.00         1383.5544
   384.14         1399.1597
   384.28         1417.2480
   384.42         1435.9433
   384.56         1453.4230
   384.70         1468.2062
   384.84         1479.4403
   384.98         1487.0487
   385.12         1491.6251
   385.26         1493.9820
   385.40         1494.7328
   385.54         1494.2079
   385.68         1492.5663
   385.82         1489.9711
   385.96         1486.6300
   386.10         1482.7206
   386.24         1478.3736
   386.38         1473.7037
   386.52         1468.9111
   386.66         1464.3499
   386.80         1460.4249
   386.94         1457.4495
   387.08         1455.5705
   387.22         1454.7172
   387.36         1454.5084
   387.50         1454.1347
   387.64         1452.3628
   387.78         1447.8855
   387.92         1439.8489
   388.06         1428.1785
   388.20         1413.6224
   388.34         1397.5127
   388.48         1381.4335
   388.62         1367.0421
   388.76         1355.8694
   388.90         1349.0484
   389.04         1347.2271
   389.18         1350.6842
   389.32         1359.2965
   389.46         1372.3631
   389.60         1388.6366
   389.74         1406.4874
   389.88         1424.1021
   390.02         1439.7001
   390.16         1451.8133
   390.30         1459.6818
   390.44         1463.4629
   390.58         1463.9121
   390.72         1461.7905
   390.86         1457.5850
   391.00         1451.6311
   391.14         1444.2989
   391.28         1435.9708
   391.42         1426.9653
   391.56         1417.6083
   391.70         1408.3410
   391.84         1399.6253
   391.98         1391.6143
   392.12         1384.0130
   392.26         1376.4055
   392.40         1368.6116
   392.54         1360.7455
   392.68         1353.2127
   392.82         1346.6722
   392.96         1341.8597
   393.10         1339.3343
   393.24         1339.3384
   393.38         1341.8691
   393.52         1346.8133
   393.66         1353.9734
   393.80         1362.9396
   393.94         1373.0277
   394.08         1383.4140
   394.22         1393.2263
   394.36         1401.5874
   394.50         1407.7594
   394.64         1411.2851
   394.78         1412.1400
   394.92         1410.7787
   395.06         1407.8239
   395.20         1403.6799
   395.34         1398.4294
   395.48         1391.7614
   395.62         1382.8703
   395.76         1370.7225
   395.90         1354.6399
   396.04         1334.7553
   396.18         1312.1074
   396.32         1288.3942
   396.46         1265.6213
   396.60         1245.8246
   396.74         1230.8243
   396.88         1221.9861
   397.02         1220.0845
   397.16         1225.2250
   397.30         1236.7771
   397.44         1253.4753
   397.58         1273.5433
   397.72         1294.8992
   397.86         1315.5088
   398.00         1333.6189
   398.14         1347.8117
   398.28         1357.1457
   398.42         1361.5124
   398.56         1361.6907
   398.70         1358.8869
   398.84         1354.3077
   398.98         1348.9593
   399.12         1343.5439
   399.26         1338.4375
   399.40         1333.7140
   399.54         1329.2364
   399.68         1324.8090
   399.82         1320.3440
   399.96         1315.9408
   400.10         1311.7955
   400.24         1308.0568
   400.38         1304.8607
   400.52         1302.3464
   400.66         1300.5616
   400.80         1299.4389
   400.94         1298.8948
   401.08         1298.8480
   401.22         1298.9556
   401.36         1298.4949
   401.50         1296.6691
   401.64         1292.9327
   401.78         1287.1497
   401.92         1279.6415
   402.06         1271.1209
   402.20         1262.5249
   402.34         1254.7830
   402.48         1248.6897
   402.62         1244.8292
   402.76         1243.4595
   402.90         1244.4480
   403.04         1247.3088
   403.18         1251.3286
   403.32         1255.6834
   403.46         1259.4941
   403.60         1262.0059
   403.74         1262.7869
   403.88         1261.7975
   404.02         1259.4649
   404.16         1256.5434
   404.30         1253.8258
   404.44         1251.8813
   404.58         1250.8858
   404.72         1250.6820
   404.86         1250.9377
   405.00         1251.2973
   405.14         1251.5202
   405.28         1251.4963
   405.42         1251.1009
   405.56         1250.1254
   405.70         1248.3888
   405.84         1245.7918
   405.98         1242.2927
   406.12         1237.9059
   406.26         1232.7184
   406.40         1226.8194
   406.54         1220.2846
   406.68         1213.2889
   406.82         1206.1253
   406.96         1199.2236
   407.10         1193.0342
   407.24         1187.8888
   407.38         1183.9901
   407.52         1181.3845
   407.66         1179.9820
   407.80         1179.5992
   407.94         1179.9776
   408.08         1180.7669
   408.22         1181.5863
   408.36         1182.1135
   408.50         1182.0642
   408.64         1181.1374
   408.78         1178.8341
   408.92         1174.3972
   409.06         1167.2190
   409.20         1157.2967
   409.34         1145.2686
   409.48         1132.1752
   409.62         1119.2393
   409.76         1107.7151
   409.90         1098.7794
   410.04         1093.3854
   410.18         1092.1075
   410.32         1095.0585
   410.46         1101.8371
   410.60         1111.5643
   410.74         1123.0139
   410.88         1134.8033
   411.02         1145.6193
   411.16         1154.4033
   411.30         1160.4422
   411.44         1163.4411
   411.58         1163.7009
   411.72         1162.1740
   411.86         1160.0836
   412.00         1158.4279
   412.14         1157.7753
   412.28         1158.2680
   412.42         1159.7157
   412.56         1161.7468
   412.70         1163.9495
   412.84         1165.9026
   412.98         1167.1091
   413.12         1167.0569
   413.26         1165.4475
   413.40         1162.3653
   413.54         1158.2708
   413.68         1153.8293
   413.82         1149.6981
   413.96         1146.3918
   414.10         1144.2463
   414.24         1143.4299
   414.38         1143.9419
   414.52         1145.6245
   414.66         1148.1978
   414.80         1151.2853
   414.94         1154.4598
   415.08         1157.3569
   415.22         1159.7443
   415.36         1161.4397
   415.50         1162.2233
   415.64         1161.9376
   415.78         1160.6817
   415.92         1158.8231
   416.06         1156.7640
   416.20         1154.7035
   416.34         1152.6084
   416.48         1150.3486
   416.62         1147.8001
   416.76         1144.8943
   416.90         1141.6587
   417.04         1138.2216
   417.18         1134.7751
   417.32         1131.5145
   417.46         1128.5975
   417.60         1126.1409
   417.74         1124.2064
   417.88         1122.7631
   418.02         1121.6759
   418.16         1120.7941
   418.30         1120.0573
   418.44         1119.4397
   418.58         1118.8672
   418.72         1118.2195
   418.86         1117.3766
   419.00         1116.3035
   419.14         1115.0735
   419.28         1113.8142
   419.42         1112.6588
   419.56         1111.7007
   419.70         1110.9702
   419.84         1110.4554
   419.98         1110.1409
   420.12         1110.0572
   420.26         1110.2689
   420.40         1110.8141
   420.54         1111.6760
   420.68         1112.7556
   420.82         1113.8860
   420.96         1114.8539
   421.10         1115.3907
   421.24         1115.2236
   421.38         1114.1609
   421.52         1112.1477
   421.66         1109.2905
   421.80         1105.8101
   421.94         1101.9740
   422.08         1098.0718
   422.22         1094.4098
   422.36         1091.2827
   422.50         1088.9087
   422.64         1087.3878
   422.78         1086.6904
   422.92         1086.6131
   423.06         1086.8354
   423.20         1087.0421
   423.34         1086.9706
   423.48         1086.4443
   423.62         1085.4096
   423.76         1083.9237
   423.90         1082.0928
   424.04         1080.0302
   424.18         1077.8569
   424.32         1075.7196
   424.46         1073.7689
   424.60         1072.1271
   424.74         1070.8693
   424.88         1069.9865
   425.02         1069.3913
   425.16         1068.9708
   425.30         1068.6044
   425.44         1068.1226
   425.58         1067.3450
   425.72         1066.2056
   425.86         1064.7378
   426.00         1063.0118
   426.14         1061.1157
   426.28         1059.1301
   426.42         1057.0754
   426.56         1054.9325
   426.70         1052.7596
   426.84         1050.7277
   426.98         1049.0063
   427.12         1047.6538
   427.26         1046.6239
   427.40         1045.8242
   427.54         1045.1910
   427.68         1044.6982
   427.82         1044.3352
   427.96         1044.1058
   428.10         1044.0398
   428.24         1044.2147
   428.38         1044.6671
   428.52         1045.2915
   428.66         1045.8826
   428.80         1046.2281
   428.94         1046.1672
   429.08         1045.6542
   429.22         1044.8203
   429.36         1043.8792
   429.50         1043.0135
   429.64         1042.3667
   429.78         1042.0683
   429.92         1042.2257
   430.06         1042.8749
   430.20         1043.9548
   430.34         1045.2692
   430.48         1046.5058
   430.62         1047.3063
   430.76         1047.3328
   430.90         1046.3577
   431.04         1044.3345
   431.18         1041.4391
   431.32         1038.0309
   431.46         1034.5438
   431.60         1031.3607
   431.74         1028.7517
   431.88         1026.8498
   432.02         1025.6209
   432.16         1024.8866
   432.30         1024.3343
   432.44         1023.5486
   432.58         1022.0194
   432.72         1019.0975
   432.86         1014.0945
   433.00         1006.5451
   433.14         996.4342
   433.28         984.2352
   433.42         970.7847
   433.56         957.0748
   433.70         944.0572
   433.84         932.5619
   433.98         923.3028
   434.12         916.8528
   434.26         913.6205
   434.40         913.8246
   434.54         917.4473
   434.68         924.2052
   434.82         933.5052
   434.96         944.4785
   435.10         956.1257
   435.24         967.4300
   435.38         977.4832
   435.52         985.6940
   435.66         991.9116
   435.80         996.2792
   435.94         998.9904
   436.08         1000.2304
   436.22         1000.2320
   436.36         999.3245
   436.50         997.9456
   436.64         996.5668
   436.78         995.5366
   436.92         995.0034
   437.06         994.9528
   437.20         995.2355
   437.34         995.5293
   437.48         995.3032
   437.62         993.9836
   437.76         991.2304
   437.90         987.0517
   438.04         981.7505
   438.18         975.8507
   438.32         970.0239
   438.46         964.9264
   438.60         961.0720
   438.74         958.8204
   438.88         958.3537
   439.02         959.6403
   439.16         962.4297
   439.30         966.2846
   439.44         970.6645
   439.58         975.0439
   439.72         978.9357
   439.86         981.8346
   440.00         983.2883
   440.14         983.0486
   440.28         981.1351
   440.42         977.7749
   440.56         973.2781
   440.70         967.9411
   440.84         962.0524
   440.98         955.9070
   441.12         949.7580
   441.26         943.8066
   441.40         938.2097
   441.54         933.0592
   441.68         928.4009
   441.82         924.2390
   441.96         920.4879
   442.10         917.0103
   442.24         913.6957
   442.38         910.4669
   442.52         907.3030
   442.66         904.2974
   442.80         901.6317
   442.94         899.5216
   443.08         898.2189
   443.22         897.9586
   443.36         898.8530
   443.50         900.8216
   443.64         903.6126
   443.78         906.9150
   443.92         910.4509
   444.06         913.9791
   444.20         917.2980
   444.34         920.2763
   444.48         922.8435
   444.62         925.0206
   444.76         926.9942
   444.90         929.0316
   445.04         931.3186
   445.18         933.9069
   445.32         936.7517
   445.46         939.6828
   445.60         942.3586
   445.74         944.2693
   445.88         944.7477
   446.02         943.1950
   446.16         939.3918
   446.30         933.5945
   446.44         926.4026
   446.58         918.5243
   446.72         910.6250
   446.86         903.2893
   447.00         897.0336
   447.14         892.3280
   447.28         889.5755
   447.42         889.0320
   447.56         890.7535
   447.70         894.5730
   447.84         900.0957
   447.98         906.7722
   448.12         914.0023
   448.26         921.2196
   448.40         927.9598
   448.54         933.9500
   448.68         939.1732
   448.82         943.7224
   448.96         947.5844
   449.10         950.5947
   449.24         952.5580
   449.38         953.3834
   449.52         953.1224
   449.66         951.9412
   449.80         950.0704
   449.94         947.7230
   450.08         945.0535
   450.22         942.1608
   450.36         939.0961
   450.50         935.9316
   450.64         932.8405
   450.78         930.0428
   450.92         927.6831
   451.06         925.8106
   451.20         924.3974
   451.34         923.3654
   451.48         922.6214
   451.62         922.0633
   451.76         921.6104
   451.90         921.1990
   452.04         920.7906
   452.18         920.4069
   452.32         920.1062
   452.46         919.9752
   452.60         920.0777
   452.74         920.4131
   452.88         920.9327
   453.02         921.5412
   453.16         922.0896
   453.30         922.3861
   453.44         922.1871
   453.58         921.2377
   453.72         919.3477
   453.86         916.3481
   454.00         912.0671
   454.14         906.4492
   454.28         899.6972
   454.42         892.2697
   454.56         884.7466
   454.70         877.7444
   454.84         871.8243
   454.98         867.3839
   455.12         864.6280
   455.26         863.5530
   455.40         863.9100
   455.54         865.2474
   455.68         867.0916
   455.82         869.0883
   455.96         870.9864
   456.10         872.5103
   456.24         873.3591
   456.38         873.3595
   456.52         872.5544
   456.66         871.2256
   456.80         869.8586
   456.94         868.9418
   457.08         868.7697
   457.22         869.4110
   457.36         870.7490
   457.50         872.5572
   457.64         874.5174
   457.78         876.2295
   457.92         877.3153
   458.06         877.5258
   458.20         876.8658
   458.34         875.5579
   458.48         873.8131
   458.62         871.7135
   458.76         869.2618
   458.90         866.5264
   459.04         863.6848
   459.18         860.9177
   459.32         858.3123
   459.46         855.8464
   459.60         853.4599
   459.74         851.1652
   459.88         849.0760
   460.02         847.3267
   460.16         846.0017
   460.30         845.1078
   460.44         844.6517
   460.58         844.7142
   460.72         845.3494
   460.86         846.4719
   461.00         847.8531
   461.14         849.2526
   461.28         850.5420
   461.42         851.6697
   461.56         852.5561
   461.70         853.0225
   461.84         852.8372
   461.98         851.8531
   462.12         850.1229
   462.26         847.8922
   462.40         845.4745
   462.54         843.0880
   462.68         840.7817
   462.82         838.4955
   462.96         836.1288
   463.10         833.6105
   463.24         830.9470
   463.38         828.2047
   463.52         825.4564
   463.66         822.7111
   463.80         819.9488
   463.94         817.2192
   464.08         814.6461
   464.22         812.3794
   464.36         810.6201
   464.50         809.6804
   464.64         809.8923
   464.78         811.4097
   464.92         814.1043
   465.06         817.6315
   465.20         821.5738
   465.34         825.5537
   465.48         829.3119
   465.62         832.7380
   465.76         835.8480
   465.90         838.6727
   466.04         841.1305
   466.18         843.0337
   466.32         844.2281
   466.46         844.7370
   466.60         844.7484
   466.74         844.4862
   466.88         844.0838
   467.02         843.5930
   467.16         843.0664
   467.30         842.5553
   467.44         842.0993
   467.58         841.7001
   467.72         841.3444
   467.86         841.0544
   468.00         840.8193
   468.14         840.5458
   468.28         840.0980
   468.42         839.3315
   468.56         838.1361
   468.70         836.5048
   468.84         834.5414
   468.98         832.4042
   469.12         830.2836
   469.26         828.3864
   469.40         826.8443
   469.54         825.6521
   469.68         824.7506
   469.82         824.0467
   469.96         823.3307
   470.10         822.3085
   470.24         820.7364
   470.38         818.5586
   470.52         815.8671
   470.66         812.7926
   470.80         809.5456
   470.94         806.4351
   471.08         803.7891
   471.22         801.8942
   471.36         800.8923
   471.50         800.7142
   471.64         801.1771
   471.78         802.0780
   471.92         803.1823
   472.06         804.2288
   472.20         804.9674
   472.34         805.1634
   472.48         804.5951
   472.62         803.1319
   472.76         800.8462
   472.90         798.0335
   473.04         795.1020
   473.18         792.3953
   473.32         790.1498
   473.46         788.5337
   473.60         787.6282
   473.74         787.4139
   473.88         787.7939
   474.02         788.6246
   474.16         789.7778
   474.30         791.1427
   474.44         792.5474
   474.58         793.7733
   474.72         794.6391
   474.86         795.0153
   475.00         794.8162
   475.14         793.9980
   475.28         792.5954
   475.42         790.7462
   475.56         788.6421
   475.70         786.4604
   475.84         784.3201
   475.98         782.3386
   476.12         780.6680
   476.26         779.4146
   476.40         778.5839
   476.54         778.1101
   476.68         777.8716
   476.82         777.7214
   476.96         777.5202
   477.10         777.1505
   477.24         776.5520
   477.38         775.7247
   477.52         774.7088
   477.66         773.5555
   477.80         772.3341
   477.94         771.1808
   478.08         770.2501
   478.22         769.6322
   478.36         769.3508
   478.50         769.3698
   478.64         769.6169
   478.78         769.9913
   478.92         770.3329
   479.06         770.4409
   479.20         770.1445
   479.34         769.3583
   479.48         768.0914
   479.62         766.3767
   479.76         764.2958
   479.90         762.0183
   480.04         759.7153
   480.18         757.5299
   480.32         755.5861
   480.46         754.0139
   480.60         752.9315
   480.74         752.3756
   480.88         752.3015
   481.02         752.6251
   481.16         753.2580
   481.30         754.0967
   481.44         754.9798
   481.58         755.7038
   481.72         756.0969
   481.86         756.1170
   482.00         755.9520
   482.14         755.8391
   482.28         755.8959
   482.42         756.2321
   482.56         756.9549
   482.70         758.1636
   482.84         759.9756
   482.98         762.4556
   483.12         765.5462
   483.26         769.0673
   483.40         772.7637
   483.54         776.3231
   483.68         779.3823
   483.82         781.5845
   483.96         782.6063
   484.10         782.2041
   484.24         780.2872
   484.38         776.8561
   484.52         771.8922
   484.66         765.2747
   484.80         756.6930
   484.94         745.8965
   485.08         732.9906
   485.22         718.4761
   485.36         703.2130
   485.50         688.2479
   485.64         674.6614
   485.78         663.4777
   485.92         655.5649
   486.06         651.5167
   486.20         651.5560
   486.34         655.5355
   486.48         662.9874
   486.62         673.1447
   486.76         685.0215
   486.90         697.5154
   487.04         709.4948
   487.18         719.9904
   487.32         728.3728
   487.46         734.3959
   487.60         738.1770
   487.74         740.1175
   487.88         740.8093
   488.02         740.8521
   488.16         740.6640
   488.30         740.4580
   488.44         740.2862
   488.58         740.0998
   488.72         739.8197
   488.86         739.3750
   489.00         738.6970
   489.14         737.7940
   489.28         736.7831
   489.42         735.8113
   489.56         734.9850
   489.70         734.3256
   489.84         733.7936
   489.98         733.3154
   490.12         732.8383
   490.26         732.4062
   490.40         732.1071
   490.54         731.9272
   490.68         731.6363
   490.82         730.8394
   490.96         729.1422
   491.10         726.2816
   491.24         722.2174
   491.38         717.1435
   491.52         711.3880
   491.66         705.3282
   491.80         699.4233
   491.94         694.1313
   492.08         689.7918
   492.22         686.6721
   492.36         684.9885
   492.50         684.8917
   492.64         686.4243
   492.78         689.4665
   492.92         693.7110
   493.06         698.6981
   493.20         703.9290
   493.34         708.9470
   493.48         713.4186
   493.62         717.1858
   493.76         720.2254
   493.90         722.5802
   494.04         724.2907
   494.18         725.3957
   494.32         725.9761
   494.46         726.1586
   494.60         726.0434
   494.74         725.6740
   494.88         725.0939
   495.02         724.3317
   495.16         723.3607
   495.30         722.1517
   495.44         720.7152
   495.58         719.0675
   495.72         717.2111
   495.86         715.1350
   496.00         712.8350
   496.14         710.3623
   496.28         707.8105
   496.42         705.2895
   496.56         702.9294
   496.70         700.8412
   496.84         699.0876
   496.98         697.6708
   497.12         696.5522
   497.26         695.6879
   497.40         695.0425
   497.54         694.5954
   497.68         694.3304
   497.82         694.2461
   497.96         694.3661
   498.10         694.6734
   498.24         695.1076
   498.38         695.6292
   498.52         696.2123
   498.66         696.7842
   498.80         697.2159
   498.94         697.3795
   499.08         697.1634
   499.22         696.4456
   499.36         695.1139
   499.50         693.1706
   499.64         690.7732
   499.78         688.1413
   499.92         685.4352
   500.06         682.7217
   500.20         680.0264
   500.34         677.3698
   500.48         674.7755
   500.62         672.2701
   500.76         669.9160
   500.90         667.8329
   501.04         666.1238
   501.18         664.8094
   501.32         663.8446
   501.46         663.1777
   501.60         662.7537
   501.74         662.4892
   501.88         662.3302
   502.02         662.2723
   502.16         662.2961
   502.30         662.3228
   502.44         662.2136
   502.58         661.8190
   502.72         661.0507
   502.86         659.9014
   503.00         658.4040
   503.14         656.6054
   503.28         654.5807
   503.42         652.4230
   503.56         650.2124
   503.70         648.0138
   503.84         645.9149
   503.98         644.0505
   504.12         642.5724
   504.26         641.6073
   504.40         641.2258
   504.54         641.4260
   504.68         642.1162
   504.82         643.1511
   504.96         644.3868
   505.10         645.6765
   505.24         646.8725
   505.38         647.8526
   505.52         648.5484
   505.66         648.9712
   505.80         649.1935
   505.94         649.2963
   506.08         649.3216
   506.22         649.2756
   506.36         649.1350
   506.50         648.8466
   506.64         648.3718
   506.78         647.7072
   506.92         646.8598
   507.06         645.8563
   507.20         644.7759
   507.34         643.7350
   507.48         642.8470
   507.62         642.1965
   507.76         641.8475
   507.90         641.8436
   508.04         642.1835
   508.18         642.8198
   508.32         643.6661
   508.46         644.6009
   508.60         645.4881
   508.74         646.2172
   508.88         646.7187
   509.02         646.9527
   509.16         646.9242
   509.30         646.6911
   509.44         646.3009
   509.58         645.7445
   509.72         644.9890
   509.86         644.0096
   510.00         642.8012
   510.14         641.3837
   510.28         639.8200
   510.42         638.2255
   510.56         636.7253
   510.70         635.4063
   510.84         634.2970
   510.98         633.3888
   511.12         632.6666
   511.26         632.0992
   511.40         631.6185
   511.54         631.1362
   511.68         630.5814
   511.82         629.9143
   511.96         629.0978
   512.10         628.0877
   512.24         626.8610
   512.38         625.4201
   512.52         623.8176
   512.66         622.1770
   512.80         620.6499
   512.94         619.3835
   513.08         618.4782
   513.22         617.9345
   513.36         617.6591
   513.50         617.5499
   513.64         617.5609
   513.78         617.6555
   513.92         617.7439
   514.06         617.7059
   514.20         617.4633
   514.34         617.0015
   514.48         616.3260
   514.62         615.4484
   514.76         614.4037
   514.90         613.2467
   515.04         612.0683
   515.18         611.0273
   515.32         610.2786
   515.46         609.8692
   515.60         609.7527
   515.74         609.8467
   515.88         610.0622
   516.02         610.3036
   516.16         610.4588
   516.30         610.3880
   516.44         609.9317
   516.58         608.9740
   516.72         607.5087
   516.86         605.6336
   517.00         603.5029
   517.14         601.2907
   517.28         599.1794
   517.42         597.3428
   517.56         595.9105
   517.70         594.9628
   517.84         594.5279
   517.98         594.5615
   518.12         594.9782
   518.26         595.7223
   518.40         596.7649
   518.54         598.0423
   518.68         599.4376
   518.82         600.8189
   518.96         602.0864
   519.10         603.1863
   519.24         604.0912
   519.38         604.7619
   519.52         605.1532
   519.66         605.2172
   519.80         604.9200
   519.94         604.2890
   520.08         603.3985
   520.22         602.3232
   520.36         601.1249
   520.50         599.8431
   520.64         598.4816
   520.78         597.0320
   520.92         595.5056
   521.06         593.9325
   521.20         592.3688
   521.34         590.8983
   521.48         589.5983
   521.62         588.5118
   521.76         587.6484
   521.90         586.9948
   522.04         586.5260
   522.18         586.2108
   522.32         585.9909
   522.46         585.8204
   522.60         585.6641
   522.74         585.4314
   522.88         584.9973
   523.02         584.2472
   523.16         583.1306
   523.30         581.6931
   523.44         580.0583
   523.58         578.3850
   523.72         576.8306
   523.86         575.5101
   524.00         574.4576
   524.14         573.6493
   524.28         573.0486
   524.42         572.6154
   524.56         572.3011
   524.70         572.0545
   524.84         571.8241
   524.98         571.5609
   525.12         571.2216
   525.26         570.7671
   525.40         570.1842
   525.54         569.5057
   525.68         568.8073
   525.82         568.2001
   525.96         567.7672
   526.10         567.5135
   526.24         567.3918
   526.38         567.3524
   526.52         567.3644
   526.66         567.3970
   526.80         567.4189
   526.94         567.4008
   527.08         567.2869
   527.22         566.9993
   527.36         566.4791
   527.50         565.6934
   527.64         564.6265
   527.78         563.2882
   527.92         561.7346
   528.06         560.0437
   528.20         558.2802
   528.34         556.5131
   528.48         554.8073
   528.62         553.2041
   528.76         551.7534
   528.90         550.5285
   529.04         549.5825
   529.18         548.9160
   529.32         548.4769
   529.46         548.1843
   529.60         547.9512
   529.74         547.7213
   529.88         547.5154
   530.02         547.4107
   530.16         547.4866
   530.30         547.7673
   530.44         548.2131
   530.58         548.7711
   530.72         549.3845
   530.86         549.9789
   531.00         550.4719
   531.14         550.7728
   531.28         550.8103
   531.42         550.5506
   531.56         549.9880
   531.70         549.1594
   531.84         548.1478
   531.98         547.0576
   532.12         545.9970
   532.26         545.0796
   532.40         544.4075
   532.54         544.0138
   532.68         543.8283
   532.82         543.7042
   532.96         543.4602
   533.10         542.9599
   533.24         542.1553
   533.38         541.0454
   533.52         539.6791
   533.66         538.1584
   533.80         536.6063
   533.94         535.1317
   534.08         533.8034
   534.22         532.6567
   534.36         531.7073
   534.50         530.9437
   534.64         530.3311
   534.78         529.8152
   534.92         529.3163
   535.06         528.7466
   535.20         528.0299
   535.34         527.1375
   535.48         526.1159
   535.62         525.0734
   535.76         524.1453
   535.90         523.4583
   536.04         523.1175
   536.18         523.1968
   536.32         523.6834
   536.46         524.5008
   536.60         525.5741
   536.74         526.8303
   536.88         528.2046
   537.02         529.6272
   537.16         530.9850
   537.30         532.1179
   537.44         532.8552
   537.58         533.1012
   537.72         532.8510
   537.86         532.1455
   538.00         531.0793
   538.14         529.7789
   538.28         528.3426
   538.42         526.8255
   538.56         525.2607
   538.70         523.6693
   538.84         522.0641
   538.98         520.4567
   539.12         518.8798
   539.26         517.3602
   539.40         515.8760
   539.54         514.3743
   539.68         512.7959
   539.82         511.1166
   539.96         509.3813
   540.10         507.7041
   540.24         506.2527
   540.38         505.1570
   540.52         504.4625
   540.66         504.1593
   540.80         504.1814
   540.94         504.4309
   541.08         504.8267
   541.22         505.3144
   541.36         505.8571
   541.50         506.4151
   541.64         506.9327
   541.78         507.3585
   541.92         507.6464
   542.06         507.7526
   542.20         507.6645
   542.34         507.4103
   542.48         507.0354
   542.62         506.5643
   542.76         506.0010
   542.90         505.3544
   543.04         504.6369
   543.18         503.8600
   543.32         503.0385
   543.46         502.2018
   543.60         501.3967
   543.74         500.6585
   543.88         499.9770
   544.02         499.3021
   544.16         498.5607
   544.30         497.7148
   544.44         496.7881
   544.58         495.8102
   544.72         494.8014
   544.86         493.7903
   545.00         492.8066
   545.14         491.8773
   545.28         491.0229
   545.42         490.2781
   545.56         489.6908
   545.70         489.2802
   545.84         489.0227
   545.98         488.8665
   546.12         488.7459
   546.26         488.5897
   546.40         488.3154
   546.54         487.8357
   546.68         487.0926
   546.82         486.0818
   546.96         484.8682
   547.10         483.5373
   547.24         482.1521
   547.38         480.7882
   547.52         479.5310
   547.66         478.4420
   547.80         477.5616
   547.94         476.9208
   548.08         476.5377
   548.22         476.4027
   548.36         476.4786
   548.50         476.7198
   548.64         477.0913
   548.78         477.5879
   548.92         478.2286
   549.06         479.0126
   549.20         479.9070
   549.34         480.8724
   549.48         481.8850
   549.62         482.9179
   549.76         483.8970
   549.90         484.6931
   550.04         485.1744
   550.18         485.2642
   550.32         484.9408
   550.46         484.2240
   550.60         483.1782
   550.74         481.9076
   550.88         480.5314
   551.02         479.1464
   551.16         477.8203
   551.30         476.6008
   551.44         475.5142
   551.58         474.5468
   551.72         473.6536
   551.86         472.8034
   552.00         471.9776
   552.14         471.1495
   552.28         470.2909
   552.42         469.3831
   552.56         468.4277
   552.70         467.4461
   552.84         466.4536
   552.98         465.4327
   553.12         464.3576
   553.26         463.2392
   553.40         462.1263
   553.54         461.0636
   553.68         460.0799
   553.82         459.2002
   553.96         458.4429
   554.10         457.8167
   554.24         457.3258
   554.38         456.9923
   554.52         456.8518
   554.66         456.9082
   554.80         457.1383
   554.94         457.5139
   555.08         457.9823
   555.22         458.4615
   555.36         458.8491
   555.50         459.0603
   555.64         459.0654
   555.78         458.8635
   555.92         458.4490
   556.06         457.8051
   556.20         456.9128
   556.34         455.7892
   556.48         454.5071
   556.62         453.1876
   556.76         451.9650
   556.90         450.9252
   557.04         450.1088
   557.18         449.5179
   557.32         449.1103
   557.46         448.8470
   557.60         448.7103
   557.74         448.6817
   557.88         448.7398
   558.02         448.8731
   558.16         449.0697
   558.30         449.3015
   558.44         449.5220
   558.58         449.6852
   558.72         449.7699
   558.86         449.7802
   559.00         449.7383
   559.14         449.6692
   559.28         449.5894
   559.42         449.5060
   559.56         449.4183
   559.70         449.3240
   559.84         449.1864
   559.98         448.9476
   560.12         448.5828
   560.26         448.0765
   560.40         447.4017
   560.54         446.5398
   560.68         445.4950
   560.82         444.3130
   560.96         443.0825
   561.10         441.9051
   561.24         440.8579
   561.38         439.9699
   561.52         439.2320
   561.66         438.6123
   561.80         438.0528
   561.94         437.4767
   562.08         436.8226
   562.22         436.0532
   562.36         435.1440
   562.50         434.1018
   562.64         432.9781
   562.78         431.8388
   562.92         430.7355
   563.06         429.7301
   563.20         428.8986
   563.34         428.2971
   563.48         427.9475
   563.62         427.8330
   563.76         427.9218
   563.90         428.1771
   564.04         428.5467
   564.18         428.9896
   564.32         429.4812
   564.46         430.0011
   564.60         430.5392
   564.74         431.0835
   564.88         431.5791
   565.02         431.9349
   565.16         432.0747
   565.30         431.9569
   565.44         431.5623
   565.58         430.8924
   565.72         429.9781
   565.86         428.8706
   566.00         427.6229
   566.14         426.2841
   566.28         424.8925
   566.42         423.4654
   566.56         421.9947
   566.70         420.4778
   566.84         418.9469
   566.98         417.4482
   567.12         416.0465
   567.26         414.8204
   567.40         413.8145
   567.54         413.0232
   567.68         412.4260
   567.82         412.0239
   567.96         411.8305
   568.10         411.8313
   568.24         411.9641
   568.38         412.1393
   568.52         412.2611
   568.66         412.2307
   568.80         411.9796
   568.94         411.5082
   569.08         410.8797
   569.22         410.1728
   569.36         409.4636
   569.50         408.8271
   569.64         408.3360
   569.78         408.0538
   569.92         407.9984
   570.06         408.1374
   570.20         408.4240
   570.34         408.8125
   570.48         409.2484
   570.62         409.6633
   570.76         409.9831
   570.90         410.1457
   571.04         410.1247
   571.18         409.9381
   571.32         409.6240
   571.46         409.2211
   571.60         408.7569
   571.74         408.2073
   571.88         407.5105
   572.02         406.6372
   572.16         405.6198
   572.30         404.5458
   572.44         403.5007
   572.58         402.5056
   572.72         401.5343
   572.86         400.5480
   573.00         399.5363
   573.14         398.5301
   573.28         397.5738
   573.42         396.7008
   573.56         395.9239
   573.70         395.2421
   573.84         394.6589
   573.98         394.1798
   574.12         393.8021
   574.26         393.5211
   574.40         393.3366
   574.54         393.2743
   574.68         393.3932
   574.82         393.7587
   574.96         394.3984
   575.10         395.2561
   575.24         396.2284
   575.38         397.2293
   575.52         398.2008
   575.66         399.1104
   575.80         399.9017
   575.94         400.4825
   576.08         400.7658
   576.22         400.6860
   576.36         400.2059
   576.50         399.3305
   576.64         398.0932
   576.78         396.5295
   576.92         394.6816
   577.06         392.6088
   577.20         390.3967
   577.34         388.1717
   577.48         386.0847
   577.62         384.2700
   577.76         382.8291
   577.90         381.8137
   578.04         381.2059
   578.18         380.9525
   578.32         380.9938
   578.46         381.2454
   578.60         381.6189
   578.74         382.0541
   578.88         382.5105
   579.02         382.9631
   579.16         383.4123
   579.30         383.8710
   579.44         384.3561
   579.58         384.8907
   579.72         385.4940
   579.86         386.1686
   580.00         386.8933
   580.14         387.6082
   580.28         388.2032
   580.42         388.5496
   580.56         388.5510
   580.70         388.1703
   580.84         387.4466
   580.98         386.4887
   581.12         385.4386
   581.26         384.4422
   581.40         383.6263
   581.54         383.0754
   581.68         382.8234
   581.82         382.8534
   581.96         383.1057
   582.10         383.5027
   582.24         383.9588
   582.38         384.3774
   582.52         384.6564
   582.66         384.7107
   582.80         384.4970
   582.94         384.0298
   583.08         383.3800
   583.22         382.6478
   583.36         381.9280
   583.50         381.3308
   583.64         380.9755
   583.78         380.9222
   583.92         381.1547
   584.06         381.6153
   584.20         382.2191
   584.34         382.8547
   584.48         383.4158
   584.62         383.8284
   584.76         384.0364
   584.90         383.9829
   585.04         383.6423
   585.18         383.0446
   585.32         382.2743
   585.46         381.4505
   585.60         380.6653
   585.74         379.9682
   585.88         379.3733
   586.02         378.8344
   586.16         378.2226
   586.30         377.3247
   586.44         375.9083
   586.58         373.8433
   586.72         371.1718
   586.86         368.0820
   587.00         364.8409
   587.14         361.7456
   587.28         359.0799
   587.42         357.0474
   587.56         355.6957
   587.70         354.8783
   587.84         354.3076
   587.98         353.6996
   588.12         352.8333
   588.26         351.4782
   588.40         349.4114
   588.54         346.5263
   588.68         342.9217
   588.82         338.9060
   588.96         334.9445
   589.10         331.5954
   589.24         329.3964
   589.38         328.7380
   589.52         329.7813
   589.66         332.4477
   589.80         336.4845
   589.94         341.5164
   590.08         347.0635
   590.22         352.6024
   590.36         357.6815
   590.50         362.0405
   590.64         365.5789
   590.78         368.2208
   590.92         369.9099
   591.06         370.7244
   591.20         370.8888
   591.34         370.6507
   591.48         370.1932
   591.62         369.6388
   591.76         369.0694
   591.90         368.5227
   592.04         368.0208
   592.18         367.5813
   592.32         367.1886
   592.46         366.7962
   592.60         366.3231
   592.74         365.6819
   592.88         364.8348
   593.02         363.7853
   593.16         362.5618
   593.30         361.2001
   593.44         359.7503
   593.58         358.2867
   593.72         356.8715
   593.86         355.5283
   594.00         354.2562
   594.14         353.0591
   594.28         351.9475
   594.42         350.9285
   594.56         350.0135
   594.70         349.2268
   594.84         348.5908
   594.98         348.1214
   595.12         347.8376
   595.26         347.7535
   595.40         347.8707
   595.54         348.1802
   595.68         348.6477
   595.82         349.2214
   595.96         349.8511
   596.10         350.4750
   596.24         351.0267
   596.38         351.4534
   596.52         351.7266
   596.66         351.8541
   596.80         351.8754
   596.94         351.8265
   597.08         351.7027
   597.22         351.4804
   597.36         351.1542
   597.50         350.7432
   597.64         350.2646
   597.78         349.7158
   597.92         349.0949
   598.06         348.4335
   598.20         347.8050
   598.34         347.2871
   598.48         346.9100
   598.62         346.6412
   598.76         346.4108
   598.90         346.1475
   599.04         345.8076
   599.18         345.3808
   599.32         344.8771
   599.46         344.3047
   599.60         343.6611
   599.74         342.9554
   599.88         342.2150
   600.02         341.4768
   600.16         340.7812
   600.30         340.1655
   600.44         339.6619
   600.58         339.2831
   600.72         339.0249
   600.86         338.8585
   601.00         338.7147
   601.14         338.5027
   601.28         338.1478
   601.42         337.6149
   601.56         336.9031
   601.70         336.0430
   601.84         335.0598
   601.98         333.9444
   602.12         332.6717
   602.26         331.2266
   602.40         329.6354
   602.54         327.9745
   602.68         326.3665
   602.82         324.9458
   602.96         323.8042
   603.10         322.9824
   603.24         322.4899
   603.38         322.3329
   603.52         322.5139
   603.66         323.0138
   603.80         323.7679
   603.94         324.6673
   604.08         325.5946
   604.22         326.4480
   604.36         327.1487
   604.50         327.6276
   604.64         327.8360
   604.78         327.7740
   604.92         327.4957
   605.06         327.0903
   605.20         326.6433
   605.34         326.2023
   605.48         325.7721
   605.62         325.3361
   605.76         324.8900
   605.90         324.4526
   606.04         324.0468
   606.18         323.6817
   606.32         323.3449
   606.46         323.0117
   606.60         322.6754
   606.74         322.3476
   606.88         322.0418
   607.02         321.7689
   607.16         321.5387
   607.30         321.3674
   607.44         321.2687
   607.58         321.2414
   607.72         321.2670
   607.86         321.3145
   608.00         321.3495
   608.14         321.3479
   608.28         321.3000
   608.42         321.2012
   608.56         321.0438
   608.70         320.8160
   608.84         320.5086
   608.98         320.1262
   609.12         319.6862
   609.26         319.2054
   609.40         318.6972
   609.54         318.1797
   609.68         317.6841
   609.82         317.2457
   609.96         316.8805
   610.10         316.5835
   610.24         316.3474
   610.38         316.1602
   610.52         316.0009
   610.66         315.8520
   610.80         315.7090
   610.94         315.5725
   611.08         315.4404
   611.22         315.3115
   611.36         315.1821
   611.50         315.0418
   611.64         314.8815
   611.78         314.6980
   611.92         314.4876
   612.06         314.2534
   612.20         314.0079
   612.34         313.7525
   612.48         313.4722
   612.62         313.1599
   612.76         312.8365
   612.90         312.5285
   613.04         312.2411
   613.18         311.9671
   613.32         311.6990
   613.46         311.4285
   613.60         311.1450
   613.74         310.8395
   613.88         310.5127
   614.02         310.1773
   614.16         309.8501
   614.30         309.5521
   614.44         309.3022
   614.58         309.1057
   614.72         308.9602
   614.86         308.8551
   615.00         308.7767
   615.14         308.7159
   615.28         308.6583
   615.42         308.5648
   615.56         308.3767
   615.70         308.0479
   615.84         307.5581
   615.98         306.9062
   616.12         306.1100
   616.26         305.2023
   616.40         304.2263
   616.54         303.2381
   616.68         302.3006
   616.82         301.4673
   616.96         300.7794
   617.10         300.2623
   617.24         299.9224
   617.38         299.7470
   617.52         299.7033
   617.66         299.7454
   617.80         299.8293
   617.94         299.9280
   618.08         300.0266
   618.22         300.1145
   618.36         300.1854
   618.50         300.2391
   618.64         300.2894
   618.78         300.3594
   618.92         300.4637
   619.06         300.5970
   619.20         300.7321
   619.34         300.8312
   619.48         300.8646
   619.62         300.8220
   619.76         300.7202
   619.90         300.5944
   620.04         300.4772
   620.18         300.3955
   620.32         300.3723
   620.46         300.4217
   620.60         300.5462
   620.74         300.7285
   620.88         300.9383
   621.02         301.1538
   621.16         301.3644
   621.30         301.5531
   621.44         301.6852
   621.58         301.7257
   621.72         301.6644
   621.86         301.5226
   622.00         301.3360
   622.14         301.1335
   622.28         300.9332
   622.42         300.7474
   622.56         300.5740
   622.70         300.4029
   622.84         300.2374
   622.98         300.0945
   623.12         299.9951
   623.26         299.9567
   623.40         299.9793
   623.54         300.0506
   623.68         300.1613
   623.82         300.3037
   623.96         300.4653
   624.10         300.6290
   624.24         300.7785
   624.38         300.8952
   624.52         300.9564
   624.66         300.9468
   624.80         300.8753
   624.94         300.7453
   625.08         300.4882
   625.22         299.9700
   625.36         299.0800
   625.50         297.7899
   625.64         296.1489
   625.78         294.2604
   625.92         292.2475
   626.06         290.2402
   626.20         288.3741
   626.34         286.7658
   626.48         285.4827
   626.62         284.5183
   626.76         283.8021
   626.90         283.2271
   627.04         282.6611
   627.18         281.9581
   627.32         280.9853
   627.46         279.6625
   627.60         277.9866
   627.74         276.0421
   627.88         274.0261
   628.02         272.2281
   628.16         270.9349
   628.30         270.3521
   628.44         270.5752
   628.58         271.5890
   628.72         273.2927
   628.86         275.5199
   629.00         278.0554
   629.14         280.6630
   629.28         283.1152
   629.42         285.2273
   629.56         286.8685
   629.70         287.9683
   629.84         288.5338
   629.98         288.6462
   630.12         288.4279
   630.26         287.9966
   630.40         287.4389
   630.54         286.8229
   630.68         286.2099
   630.82         285.6469
   630.96         285.1574
   631.10         284.7423
   631.24         284.3962
   631.38         284.1261
   631.52         283.9550
   631.66         283.9058
   631.80         283.9791
   631.94         284.1562
   632.08         284.4167
   632.22         284.7453
   632.36         285.1309
   632.50         285.5580
   632.64         285.9995
   632.78         286.4192
   632.92         286.7840
   633.06         287.0745
   633.20         287.2860
   633.34         287.4176
   633.48         287.4679
   633.62         287.4392
   633.76         287.3342
   633.90         287.1568
   634.04         286.9115
   634.18         286.6000
   634.32         286.2211
   634.46         285.7744
   634.60         285.2707
   634.74         284.7346
   634.88         284.1920
   635.02         283.6594
   635.16         283.1426
   635.30         282.6387
   635.44         282.1406
   635.58         281.6441
   635.72         281.1475
   635.86         280.6455
   636.00         280.1349
   636.14         279.6216
   636.28         279.1140
   636.42         278.6109
   636.56         278.1026
   636.70         277.5723
   636.84         276.9994
   636.98         276.3719
   637.12         275.7003
   637.26         275.0186
   637.40         274.3661
   637.54         273.7750
   637.68         273.2754
   637.82         272.9035
   637.96         272.7001
   638.10         272.6954
   638.24         272.8960
   638.38         273.2854
   638.52         273.8334
   638.66         274.4965
   638.80         275.2040
   638.94         275.8634
   639.08         276.3906
   639.22         276.7330
   639.36         276.8773
   639.50         276.8543
   639.64         276.7204
   639.78         276.5256
   639.92         276.3026
   640.06         276.0725
   640.20         275.8500
   640.34         275.6466
   640.48         275.4706
   640.62         275.3181
   640.76         275.1675
   640.90         274.9934
   641.04         274.7852
   641.18         274.5464
   641.32         274.2825
   641.46         273.9978
   641.60         273.7067
   641.74         273.4382
   641.88         273.2222
   642.02         273.0785
   642.16         273.0125
   642.30         273.0125
   642.44         273.0586
   642.58         273.1317
   642.72         273.2091
   642.86         273.2645
   643.00         273.2789
   643.14         273.2395
   643.28         273.1336
   643.42         272.9515
   643.56         272.6912
   643.70         272.3566
   643.84         271.9529
   643.98         271.4896
   644.12         270.9865
   644.26         270.4708
   644.40         269.9706
   644.54         269.5101
   644.68         269.1036
   644.82         268.7542
   644.96         268.4574
   645.10         268.1987
   645.24         267.9555
   645.38         267.7062
   645.52         267.4382
   645.66         267.1500
   645.80         266.8474
   645.94         266.5345
   646.08         266.2114
   646.22         265.8774
   646.36         265.5309
   646.50         265.1716
   646.64         264.7953
   646.78         264.3714
   646.92         263.8459
   647.06         263.1793
   647.20         262.3718
   647.34         261.4599
   647.48         260.5067
   647.62         259.5877
   647.76         258.7745
   647.90         258.1204
   648.04         257.6572
   648.18         257.4049
   648.32         257.3719
   648.46         257.5474
   648.60         257.9082
   648.74         258.4256
   648.88         259.0640
   649.02         259.7850
   649.16         260.5518
   649.30         261.3248
   649.44         262.0640
   649.58         262.7585
   649.72         263.4336
   649.86         264.1108
   650.00         264.7778
   650.14         265.3935
   650.28         265.9068
   650.42         266.2770
   650.56         266.4881
   650.70         266.5585
   650.84         266.5348
   650.98         266.4659
   651.12         266.3883
   651.26         266.3315
   651.40         266.3143
   651.54         266.3382
   651.68         266.3871
   651.82         266.4329
   651.96         266.4420
   652.10         266.3884
   652.24         266.2683
   652.38         266.0915
   652.52         265.8656
   652.66         265.6005
   652.80         265.3209
   652.94         265.0660
   653.08         264.8804
   653.22         264.8054
   653.36         264.8645
   653.50         265.0502
   653.64         265.3300
   653.78         265.6667
   653.92         266.0273
   654.06         266.3761
   654.20         266.6747
   654.34         266.9008
   654.48         267.0460
   654.62         267.1098
   654.76         267.1299
   654.90         267.2205
   655.04         267.5528
   655.18         268.2778
   655.32         269.4582
   655.46         271.0563
   655.60         272.9563
   655.74         274.9899
   655.88         276.9610
   656.02         278.6640
   656.16         279.9062
   656.30         280.5327
   656.44         280.4416
   656.58         279.5954
   656.72         278.0251
   656.86         275.8263
   657.00         273.1521
   657.14         270.2081
   657.28         267.2481
   657.42         264.5469
   657.56         262.3318
   657.70         260.7071
   657.84         259.6384
   657.98         259.0184
   658.12         258.7455
   658.26         258.7458
   658.40         258.9564
   658.54         259.3113
   658.68         259.7406
   658.82         260.1846
   658.96         260.6005
   659.10         260.9598
   659.24         261.2453
   659.38         261.4445
   659.52         261.5452
   659.66         261.5377
   659.80         261.4154
   659.94         261.1651
   660.08         260.7613
   660.22         260.1832
   660.36         259.4386
   660.50         258.5686
   660.64         257.6388
   660.78         256.7259
   660.92         255.9036
   661.06         255.2336
   661.20         254.7614
   661.34         254.5155
   661.48         254.5033
   661.62         254.6992
   661.76         255.0484
   661.90         255.4831
   662.04         255.9313
   662.18         256.3213
   662.32         256.5891
   662.46         256.6896
   662.60         256.6066
   662.74         256.3514
   662.88         255.9588
   663.02         255.4713
   663.16         254.9189
   663.30         254.3191
   663.44         253.6854
   663.58         253.0357
   663.72         252.3979
   663.86         251.8022
   664.00         251.2758
   664.14         250.8413
   664.28         250.5120
   664.42         250.2903
   664.56         250.1663
   664.70         250.1160
   664.84         250.1085
   664.98         250.1118
   665.12         250.0994
   665.26         250.0515
   665.40         249.9533
   665.54         249.7943
   665.68         249.5691
   665.82         249.2764
   665.96         248.9161
   666.10         248.4768
   666.24         247.9162
   666.38         247.1488
   666.52         246.0721
   666.66         244.6335
   666.80         242.8674
   666.94         240.8783
   667.08         238.8107
   667.22         236.8237
   667.36         235.0801
   667.50         233.7344
   667.64         232.9102
   667.78         232.6800
   667.92         233.0601
   668.06         234.0099
   668.20         235.4266
   668.34         237.1510
   668.48         238.9888
   668.62         240.7409
   668.76         242.2277
   668.90         243.3145
   669.04         243.9506
   669.18         244.1866
   669.32         244.1436
   669.46         243.9483
   669.60         243.6862
   669.74         243.4017
   669.88         243.1145
   670.02         242.8343
   670.16         242.5653
   670.30         242.3072
   670.44         242.0568
   670.58         241.8098
   670.72         241.5559
   670.86         241.2830
   671.00         240.9889
   671.14         240.6872
   671.28         240.4005
   671.42         240.1463
   671.56         239.9373
   671.70         239.7801
   671.84         239.6631
   671.98         239.5587
   672.12         239.4396
   672.26         239.2850
   672.40         239.0848
   672.54         238.8404
   672.68         238.5642
   672.82         238.2802
   672.96         238.0157
   673.10         237.7896
   673.24         237.6101
   673.38         237.4799
   673.52         237.3992
   673.66         237.3627
   673.80         237.3562
   673.94         237.3586
   674.08         237.3499
   674.22         237.3153
   674.36         237.2413
   674.50         237.1209
   674.64         236.9642
   674.78         236.7892
   674.92         236.6047
   675.06         236.4129
   675.20         236.2209
   675.34         236.0417
   675.48         235.8900
   675.62         235.7741
   675.76         235.6910
   675.90         235.6315
   676.04         235.5849
   676.18         235.5393
   676.32         235.4825
   676.46         235.4061
   676.60         235.3068
   676.74         235.1805
   676.88         235.0176
   677.02         234.8073
   677.16         234.5409
   677.30         234.2125
   677.44         233.8230
   677.58         233.3901
   677.72         232.9510
   677.86         232.5467
   678.00         232.2045
   678.14         231.9385
   678.28         231.7520
   678.42         231.6396
   678.56         231.5939
   678.70         231.6099
   678.84         231.6834
   678.98         231.8049
   679.12         231.9603
   679.26         232.1343
   679.40         232.3131
   679.54         232.4900
   679.68         232.6641
   679.82         232.8328
   679.96         232.9956
   680.10         233.1574
   680.24         233.3202
   680.38         233.4737
   680.52         233.5959
   680.66         233.6630
   680.80         233.6540
   680.94         233.5511
   681.08         233.3463
   681.22         233.0442
   681.36         232.6557
   681.50         232.1943
   681.64         231.6772
   681.78         231.1268
   681.92         230.5662
   682.06         230.0163
   682.20         229.4934
   682.34         229.0056
   682.48         228.5579
   682.62         228.1572
   682.76         227.8096
   682.90         227.5168
   683.04         227.2738
   683.18         227.0689
   683.32         226.8892
   683.46         226.7266
   683.60         226.5801
   683.74         226.4577
   683.88         226.3692
   684.02         226.3234
   684.16         226.3274
   684.30         226.3804
   684.44         226.4696
   684.58         226.5744
   684.72         226.6742
   684.86         226.7491
   685.00         226.7783
   685.14         226.7414
   685.28         226.6086
   685.42         226.3094
   685.56         225.6967
   685.70         224.5582
   685.84         222.6854
   685.98         219.9495
   686.12         216.3317
   686.26         211.9172
   686.40         206.8848
   686.54         201.4961
   686.68         196.0774
   686.82         190.9943
   686.96         186.6167
   687.10         183.2732
   687.24         181.1967
   687.38         180.4824
   687.52         181.0715
   687.66         182.7609
   687.80         185.2356
   687.94         188.1127
   688.08         190.9884
   688.22         193.5113
   688.36         195.4624
   688.50         196.7793
   688.64         197.5241
   688.78         197.8240
   688.92         197.8292
   689.06         197.6999
   689.20         197.5872
   689.34         197.6128
   689.48         197.8589
   689.62         198.3532
   689.76         199.0608
   689.90         199.9094
   690.04         200.8262
   690.18         201.7567
   690.32         202.6701
   690.46         203.5590
   690.60         204.4228
   690.74         205.2528
   690.88         206.0427
   691.02         206.7899
   691.16         207.4875
   691.30         208.1290
   691.44         208.7095
   691.58         209.2205
   691.72         209.6477
   691.86         209.9732
   692.00         210.1862
   692.14         210.2880
   692.28         210.2873
   692.42         210.2028
   692.56         210.0635
   692.70         209.8892
   692.84         209.6796
   692.98         209.4300
   693.12         209.1417
   693.26         208.8248
   693.40         208.5077
   693.54         208.2359
   693.68         208.0482
   693.82         207.9700
   693.96         208.0210
   694.10         208.2063
   694.24         208.5055
   694.38         208.8793
   694.52         209.2842
   694.66         209.6792
   694.80         210.0297
   694.94         210.3100
   695.08         210.5047
   695.22         210.6122
   695.36         210.6496
   695.50         210.6576
   695.64         210.6955
   695.78         210.8221
   695.92         211.0758
   696.06         211.4658
   696.20         211.9816
   696.34         212.6004
   696.48         213.2869
   696.62         213.9945
   696.76         214.6706
   696.90         215.2653
   697.04         215.7370
   697.18         216.0592
   697.32         216.2263
   697.46         216.2450
   697.60         216.1198
   697.74         215.8546
   697.88         215.4561
   698.02         214.9293
   698.16         214.2816
   698.30         213.5327
   698.44         212.7183
   698.58         211.8824
   698.72         211.0708
   698.86         210.3308
   699.00         209.6991
   699.14         209.1904
   699.28         208.8011
   699.42         208.5188
   699.56         208.3301
   699.70         208.2212
   699.84         208.1763
   699.98         208.1785
   700.12         208.2107
   700.26         208.2580
   700.40         208.3131
   700.54         208.3772
   700.68         208.4582
   700.82         208.5611
   700.96         208.6799
   701.10         208.7954
   701.24         208.8799
   701.38         208.9074
   701.52         208.8545
   701.66         208.6990
   701.80         208.4295
   701.94         208.0590
   702.08         207.6265
   702.22         207.1791
   702.36         206.7594
   702.50         206.4066
   702.64         206.1511
   702.78         206.0061
   702.92         205.9666
   703.06         206.0203
   703.20         206.1542
   703.34         206.3481
   703.48         206.5640
   703.62         206.7636
   703.76         206.9247
   703.90         207.0261
   704.04         207.0424
   704.18         206.9619
   704.32         206.7992
   704.46         206.5827
   704.60         206.3386
   704.74         206.0812
   704.88         205.8067
   705.02         205.4959
   705.16         205.1110
   705.30         204.6096
   705.44         203.9790
   705.58         203.2494
   705.72         202.4780
   705.86         201.7274
   706.00         201.0524
   706.14         200.4987
   706.28         200.1095
   706.42         199.9172
   706.56         199.9320
   706.70         200.1495
   706.84         200.5567
   706.98         201.1223
   707.12         201.7988
   707.26         202.5348
   707.40         203.2724
   707.54         203.9463
   707.68         204.4997
   707.82         204.8995
   707.96         205.1478
   708.10         205.2740
   708.24         205.3075
   708.38         205.2647
   708.52         205.1585
   708.66         205.0082
   708.80         204.8350
   708.94         204.6602
   709.08         204.5081
   709.22         204.4034
   709.36         204.3605
   709.50         204.3773
   709.64         204.4362
   709.78         204.5089
   709.92         204.5656
   710.06         204.5829
   710.20         204.5501
   710.34         204.4773
   710.48         204.3865
   710.62         204.3011
   710.76         204.2448
   710.90         204.2395
   711.04         204.2977
   711.18         204.4248
   711.32         204.6141
   711.46         204.8397
   711.60         205.0758
   711.74         205.3109
   711.88         205.5362
   712.02         205.7375
   712.16         205.9017
   712.30         206.0199
   712.44         206.0924
   712.58         206.1275
   712.72         206.1241
   712.86         206.0670
   713.00         205.9389
   713.14         205.7251
   713.28         205.4210
   713.42         205.0406
   713.56         204.6047
   713.70         204.1277
   713.84         203.6232
   713.98         203.1096
   714.12         202.6120
   714.26         202.1631
   714.40         201.7898
   714.54         201.4987
   714.68         201.2816
   714.82         201.1271
   714.96         201.0196
   715.10         200.9414
   715.24         200.8720
   715.38         200.7749
   715.52         200.6052
   715.66         200.3236
   715.80         199.8946
   715.94         199.2779
   716.08         198.4334
   716.22         197.3340
   716.36         195.9716
   716.50         194.3700
   716.64         192.5954
   716.78         190.7356
   716.92         188.8730
   717.06         187.0696
   717.20         185.3548
   717.34         183.7328
   717.48         182.2106
   717.62         180.8156
   717.76         179.5847
   717.90         178.5360
   718.04         177.6587
   718.18         176.9406
   718.32         176.3856
   718.46         176.0058
   718.60         175.8105
   718.74         175.7971
   718.88         175.9463
   719.02         176.2283
   719.16         176.6112
   719.30         177.0547
   719.44         177.5149
   719.58         177.9776
   719.72         178.4749
   719.86         179.0797
   720.00         179.8977
   720.14         181.0346
   720.28         182.5405
   720.42         184.3902
   720.56         186.5181
   720.70         188.8586
   720.84         191.3432
   720.98         193.8651
   721.12         196.2678
   721.26         198.3830
   721.40         200.0784
   721.54         201.2829
   721.68         201.9912
   721.82         202.2423
   721.96         202.0826
   722.10         201.5557
   722.24         200.7100
   722.38         199.6014
   722.52         198.2988
   722.66         196.8701
   722.80         195.3577
   722.94         193.7890
   723.08         192.2040
   723.22         190.6633
   723.36         189.2350
   723.50         187.9718
   723.64         186.9040
   723.78         186.0518
   723.92         185.4242
   724.06         184.9955
   724.20         184.7171
   724.34         184.5432
   724.48         184.4241
   724.62         184.3124
   724.76         184.2024
   724.90         184.1316
   725.04         184.1325
   725.18         184.1932
   725.32         184.2617
   725.46         184.2940
   725.60         184.2904
   725.74         184.2772
   725.88         184.2739
   726.02         184.2721
   726.16         184.2249
   726.30         184.0551
   726.44         183.6767
   726.58         183.0246
   726.72         182.0946
   726.86         180.9558
   727.00         179.7122
   727.14         178.4711
   727.28         177.3447
   727.42         176.4338
   727.56         175.7945
   727.70         175.4323
   727.84         175.3231
   727.98         175.4304
   728.12         175.7066
   728.26         176.0834
   728.40         176.4785
   728.54         176.8248
   728.68         177.0864
   728.82         177.2441
   728.96         177.2796
   729.10         177.1808
   729.24         176.9649
   729.38         176.6885
   729.52         176.4231
   729.66         176.2218
   729.80         176.1078
   729.94         176.0820
   730.08         176.1279
   730.22         176.2188
   730.36         176.3328
   730.50         176.4578
   730.64         176.5857
   730.78         176.7152
   730.92         176.8604
   731.06         177.0455
   731.20         177.2855
   731.34         177.5703
   731.48         177.8646
   731.62         178.1328
   731.76         178.3647
   731.90         178.5770
   732.04         178.7912
   732.18         179.0084
   732.32         179.2088
   732.46         179.3700
   732.60         179.4759
   732.74         179.5087
   732.88         179.4536
   733.02         179.3140
   733.16         179.1044
   733.30         178.8399
   733.44         178.5458
   733.58         178.2608
   733.72         178.0160
   733.86         177.8177
   734.00         177.6584
   734.14         177.5337
   734.28         177.4461
   734.42         177.3942
   734.56         177.3660
   734.70         177.3446
   734.84         177.3144
   734.98         177.2645
   735.12         177.1886
   735.26         177.0811
   735.40         176.9322
   735.54         176.7313
   735.68         176.4685
   735.82         176.1309
   735.96         175.7161
   736.10         175.2486
   736.24         174.7690
   736.38         174.3132
   736.52         173.9039
   736.66         173.5522
   736.80         173.2624
   736.94         173.0302
   737.08         172.8427
   737.22         172.6853
   737.36         172.5450
   737.50         172.4071
   737.64         172.2593
   737.78         172.0970
   737.92         171.9148
   738.06         171.7005
   738.20         171.4532
   738.34         171.1950
   738.48         170.9542
   738.62         170.7472
   738.76         170.5804
   738.90         170.4561
   739.04         170.3765
   739.18         170.3413
   739.32         170.3457
   739.46         170.3815
   739.60         170.4360
   739.74         170.4914
   739.88         170.5285
   740.02         170.5301
   740.16         170.4832
   740.30         170.3851
   740.44         170.2402
   740.58         170.0535
   740.72         169.8368
   740.86         169.6129
   741.00         169.3996
   741.14         169.2001
   741.28         169.0146
   741.42         168.8508
   741.56         168.7203
   741.70         168.6265
   741.84         168.5591
   741.98         168.5022
   742.12         168.4455
   742.26         168.3885
   742.40         168.3349
   742.54         168.2888
   742.68         168.2546
   742.82         168.2361
   742.96         168.2361
   743.10         168.2546
   743.24         168.2888
   743.38         168.3349
   743.52         168.3885
   743.66         168.4455
   743.80         168.5022
   743.94         168.5591
   744.08         168.6265
   744.22         168.7203
