# File HD1400
# Wavelength [nm]    Normalized Amplitude
   349.70         4.1602
   349.84         4.1555
   349.98         4.1690
   350.12         4.1912
   350.26         4.2125
   350.40         4.2266
   350.54         4.2310
   350.68         4.2266
   350.82         4.2175
   350.96         4.2091
   351.10         4.2057
   351.24         4.2091
   351.38         4.2175
   351.52         4.2266
   351.66         4.2310
   351.80         4.2266
   351.94         4.2125
   352.08         4.1912
   352.22         4.1690
   352.36         4.1555
   352.50         4.1602
   352.64         4.1898
   352.78         4.2484
   352.92         4.3372
   353.06         4.4541
   353.20         4.5927
   353.34         4.7411
   353.48         4.8837
   353.62         5.0033
   353.76         5.0849
   353.90         5.1185
   354.04         5.1005
   354.18         5.0350
   354.32         4.9322
   354.46         4.8054
   354.60         4.6687
   354.74         4.5354
   354.88         4.4160
   355.02         4.3162
   355.16         4.2357
   355.30         4.1694
   355.44         4.1105
   355.58         4.0516
   355.72         3.9854
   355.86         3.9065
   356.00         3.8128
   356.14         3.7051
   356.28         3.5868
   356.42         3.4619
   356.56         3.3345
   356.70         3.2083
   356.84         3.0871
   356.98         2.9730
   357.12         2.8662
   357.26         2.7660
   357.40         2.6717
   357.54         2.5831
   357.68         2.5019
   357.82         2.4330
   357.96         2.3837
   358.10         2.3609
   358.24         2.3707
   358.38         2.4190
   358.52         2.5092
   358.66         2.6416
   358.80         2.8123
   358.94         3.0114
   359.08         3.2236
   359.22         3.4313
   359.36         3.6181
   359.50         3.7705
   359.64         3.8790
   359.78         3.9386
   359.92         3.9497
   360.06         3.9188
   360.20         3.8577
   360.34         3.7805
   360.48         3.7008
   360.62         3.6284
   360.76         3.5715
   360.90         3.5374
   361.04         3.5325
   361.18         3.5601
   361.32         3.6213
   361.46         3.7116
   361.60         3.8214
   361.74         3.9382
   361.88         4.0502
   362.02         4.1476
   362.16         4.2230
   362.30         4.2733
   362.44         4.3005
   362.58         4.3117
   362.72         4.3162
   362.86         4.3219
   363.00         4.3337
   363.14         4.3535
   363.28         4.3822
   363.42         4.4203
   363.56         4.4658
   363.70         4.5150
   363.84         4.5640
   363.98         4.6091
   364.12         4.6464
   364.26         4.6748
   364.40         4.6969
   364.54         4.7214
   364.68         4.7604
   364.82         4.8256
   364.96         4.9258
   365.10         5.0656
   365.24         5.2424
   365.38         5.4456
   365.52         5.6590
   365.66         5.8629
   365.80         6.0389
   365.94         6.1744
   366.08         6.2638
   366.22         6.3086
   366.36         6.3156
   366.50         6.2939
   366.64         6.2512
   366.78         6.1931
   366.92         6.1242
   367.06         6.0507
   367.20         5.9785
   367.34         5.9103
   367.48         5.8443
   367.62         5.7794
   367.76         5.7168
   367.90         5.6599
   368.04         5.6138
   368.18         5.5831
   368.32         5.5706
   368.46         5.5813
   368.60         5.6219
   368.74         5.6955
   368.88         5.7977
   369.02         5.9171
   369.16         6.0371
   369.30         6.1381
   369.44         6.2035
   369.58         6.2223
   369.72         6.1899
   369.86         6.1091
   370.00         5.9902
   370.14         5.8493
   370.28         5.7053
   370.42         5.5736
   370.56         5.4621
   370.70         5.3698
   370.84         5.2905
   370.98         5.2173
   371.12         5.1468
   371.26         5.0758
   371.40         4.9999
   371.54         4.9135
   371.68         4.8126
   371.82         4.6961
   371.96         4.5669
   372.10         4.4303
   372.24         4.2916
   372.38         4.1550
   372.52         4.0240
   372.66         3.9007
   372.80         3.7853
   372.94         3.6774
   373.08         3.5762
   373.22         3.4819
   373.36         3.3974
   373.50         3.3267
   373.64         3.2737
   373.78         3.2418
   373.92         3.2331
   374.06         3.2480
   374.20         3.2855
   374.34         3.3437
   374.48         3.4197
   374.62         3.5088
   374.76         3.6057
   374.90         3.7063
   375.04         3.8079
   375.18         3.9089
   375.32         4.0065
   375.46         4.0970
   375.60         4.1765
   375.74         4.2438
   375.88         4.3017
   376.02         4.3569
   376.16         4.4183
   376.30         4.4953
   376.44         4.5976
   376.58         4.7325
   376.72         4.9027
   376.86         5.1046
   377.00         5.3291
   377.14         5.5637
   377.28         5.7938
   377.42         6.0032
   377.56         6.1765
   377.70         6.3003
   377.84         6.3663
   377.98         6.3725
   378.12         6.3228
   378.26         6.2255
   378.40         6.0898
   378.54         5.9249
   378.68         5.7417
   378.82         5.5529
   378.96         5.3732
   379.10         5.2188
   379.24         5.1034
   379.38         5.0341
   379.52         5.0099
   379.66         5.0250
   379.80         5.0718
   379.94         5.1396
   380.08         5.2154
   380.22         5.2857
   380.36         5.3385
   380.50         5.3645
   380.64         5.3571
   380.78         5.3111
   380.92         5.2238
   381.06         5.0970
   381.20         4.9373
   381.34         4.7552
   381.48         4.5638
   381.62         4.3761
   381.76         4.2035
   381.90         4.0532
   382.04         3.9273
   382.18         3.8263
   382.32         3.7518
   382.46         3.7031
   382.60         3.6756
   382.74         3.6626
   382.88         3.6589
   383.02         3.6636
   383.16         3.6804
   383.30         3.7145
   383.44         3.7700
   383.58         3.8477
   383.72         3.9446
   383.86         4.0556
   384.00         4.1746
   384.14         4.2956
   384.28         4.4104
   384.42         4.5088
   384.56         4.5807
   384.70         4.6193
   384.84         4.6238
   384.98         4.5984
   385.12         4.5501
   385.26         4.4879
   385.40         4.4227
   385.54         4.3667
   385.68         4.3309
   385.82         4.3209
   385.96         4.3351
   386.10         4.3675
   386.24         4.4107
   386.38         4.4575
   386.52         4.5018
   386.66         4.5387
   386.80         4.5646
   386.94         4.5778
   387.08         4.5789
   387.22         4.5701
   387.36         4.5543
   387.50         4.5352
   387.64         4.5177
   387.78         4.5079
   387.92         4.5116
   388.06         4.5343
   388.20         4.5790
   388.34         4.6449
   388.48         4.7287
   388.62         4.8269
   388.76         4.9364
   388.90         5.0541
   389.04         5.1761
   389.18         5.2982
   389.32         5.4167
   389.46         5.5282
   389.60         5.6307
   389.74         5.7248
   389.88         5.8134
   390.02         5.8997
   390.16         5.9871
   390.30         6.0777
   390.44         6.1699
   390.58         6.2579
   390.72         6.3323
   390.86         6.3819
   391.00         6.3967
   391.14         6.3700
   391.28         6.2986
   391.42         6.1827
   391.56         6.0240
   391.70         5.8242
   391.84         5.5852
   391.98         5.3107
   392.12         5.0078
   392.26         4.6859
   392.40         4.3563
   392.54         4.0307
   392.68         3.7223
   392.82         3.4459
   392.96         3.2155
   393.10         3.0431
   393.24         2.9381
   393.38         2.9067
   393.52         2.9520
   393.66         3.0732
   393.80         3.2660
   393.94         3.5231
   394.08         3.8323
   394.22         4.1765
   394.36         4.5356
   394.50         4.8889
   394.64         5.2168
   394.78         5.5015
   394.92         5.7272
   395.06         5.8814
   395.20         5.9545
   395.34         5.9399
   395.48         5.8347
   395.62         5.6416
   395.76         5.3721
   395.90         5.0469
   396.04         4.6947
   396.18         4.3491
   396.32         4.0452
   396.46         3.8154
   396.60         3.6864
   396.74         3.6755
   396.88         3.7891
   397.02         4.0241
   397.16         4.3695
   397.30         4.8083
   397.44         5.3189
   397.58         5.8773
   397.72         6.4578
   397.86         7.0354
   398.00         7.5892
   398.14         8.1038
   398.28         8.5678
   398.42         8.9742
   398.56         9.3210
   398.70         9.6127
   398.84         9.8592
   398.98         10.0725
   399.12         10.2632
   399.26         10.4389
   399.40         10.6034
   399.54         10.7595
   399.68         10.9118
   399.82         11.0651
   399.96         11.2226
   400.10         11.3862
   400.24         11.5570
   400.38         11.7356
   400.52         11.9224
   400.66         12.1164
   400.80         12.3139
   400.94         12.5097
   401.08         12.6991
   401.22         12.8775
   401.36         13.0412
   401.50         13.1863
   401.64         13.3076
   401.78         13.3963
   401.92         13.4399
   402.06         13.4270
   402.20         13.3538
   402.34         13.2276
   402.48         13.0657
   402.62         12.8928
   402.76         12.7343
   402.90         12.6100
   403.04         12.5292
   403.18         12.4888
   403.32         12.4742
   403.46         12.4683
   403.60         12.4593
   403.74         12.4446
   403.88         12.4301
   404.02         12.4247
   404.16         12.4334
   404.30         12.4539
   404.44         12.4793
   404.58         12.5052
   404.72         12.5354
   404.86         12.5782
   405.00         12.6369
   405.14         12.7033
   405.28         12.7604
   405.42         12.7909
   405.56         12.7832
   405.70         12.7365
   405.84         12.6588
   405.98         12.5653
   406.12         12.4796
   406.26         12.4258
   406.40         12.4166
   406.54         12.4497
   406.68         12.5137
   406.82         12.5995
   406.96         12.7050
   407.10         12.8326
   407.24         12.9861
   407.38         13.1698
   407.52         13.3884
   407.66         13.6468
   407.80         13.9491
   407.94         14.2968
   408.08         14.6850
   408.22         15.0971
   408.36         15.5043
   408.50         15.8699
   408.64         16.1580
   408.78         16.3397
   408.92         16.3943
   409.06         16.3130
   409.20         16.1065
   409.34         15.8068
   409.48         15.4581
   409.62         15.1042
   409.76         14.7797
   409.90         14.5096
   410.04         14.3105
   410.18         14.1921
   410.32         14.1539
   410.46         14.1828
   410.60         14.2568
   410.74         14.3510
   410.88         14.4418
   411.02         14.5114
   411.16         14.5527
   411.30         14.5698
   411.44         14.5735
   411.58         14.5754
   411.72         14.5844
   411.86         14.6028
   412.00         14.6243
   412.14         14.6362
   412.28         14.6240
   412.42         14.5771
   412.56         14.4941
   412.70         14.3825
   412.84         14.2514
   412.98         14.1040
   413.12         13.9382
   413.26         13.7544
   413.40         13.5625
   413.54         13.3790
   413.68         13.2199
   413.82         13.0962
   413.96         13.0109
   414.10         12.9602
   414.24         12.9382
   414.38         12.9417
   414.52         12.9745
   414.66         13.0485
   414.80         13.1777
   414.94         13.3712
   415.08         13.6286
   415.22         13.9375
   415.36         14.2740
   415.50         14.6068
   415.64         14.9056
   415.78         15.1491
   415.92         15.3249
   416.06         15.4238
   416.20         15.4361
   416.34         15.3572
   416.48         15.1937
   416.62         14.9646
   416.76         14.6989
   416.90         14.4301
   417.04         14.1903
   417.18         14.0099
   417.32         13.9116
   417.46         13.9048
   417.60         13.9854
   417.74         14.1392
   417.88         14.3459
   418.02         14.5839
   418.16         14.8333
   418.30         15.0761
   418.44         15.2920
   418.58         15.4592
   418.72         15.5585
   418.86         15.5792
   419.00         15.5207
   419.14         15.3918
   419.28         15.2093
   419.42         14.9984
   419.56         14.7897
   419.70         14.6154
   419.84         14.5037
   419.98         14.4729
   420.12         14.5279
   420.26         14.6621
   420.40         14.8619
   420.54         15.1121
   420.68         15.3974
   420.82         15.6998
   420.96         15.9943
   421.10         16.2466
   421.24         16.4166
   421.38         16.4638
   421.52         16.3585
   421.66         16.0931
   421.80         15.6875
   421.94         15.1842
   422.08         14.6366
   422.22         14.0990
   422.36         13.6196
   422.50         13.2404
   422.64         12.9961
   422.78         12.9139
   422.92         13.0123
   423.06         13.3029
   423.20         13.7855
   423.34         14.4382
   423.48         15.2137
   423.62         16.0444
   423.76         16.8536
   423.90         17.5695
   424.04         18.1408
   424.18         18.5419
   424.32         18.7694
   424.46         18.8363
   424.60         18.7630
   424.74         18.5721
   424.88         18.2908
   425.02         17.9578
   425.16         17.6256
   425.30         17.3527
   425.44         17.1905
   425.58         17.1698
   425.72         17.2927
   425.86         17.5281
   426.00         17.8172
   426.14         18.0908
   426.28         18.2881
   426.42         18.3716
   426.56         18.3341
   426.70         18.1953
   426.84         17.9902
   426.98         17.7608
   427.12         17.5492
   427.26         17.3891
   427.40         17.3024
   427.54         17.2997
   427.68         17.3766
   427.82         17.5101
   427.96         17.6624
   428.10         17.7917
   428.24         17.8633
   428.38         17.8567
   428.52         17.7695
   428.66         17.6147
   428.80         17.4160
   428.94         17.2023
   429.08         17.0003
   429.22         16.8263
   429.36         16.6811
   429.50         16.5514
   429.64         16.4185
   429.78         16.2702
   429.92         16.1090
   430.06         15.9532
   430.20         15.8346
   430.34         15.7973
   430.48         15.8965
   430.62         16.1876
   430.76         16.7061
   430.90         17.4531
   431.04         18.3920
   431.18         19.4518
   431.32         20.5385
   431.46         21.5592
   431.60         22.4460
   431.74         23.1627
   431.88         23.6993
   432.02         24.0676
   432.16         24.3019
   432.30         24.4564
   432.44         24.5898
   432.58         24.7441
   432.72         24.9356
   432.86         25.1618
   433.00         25.4103
   433.14         25.6648
   433.28         25.9051
   433.42         26.1117
   433.56         26.2749
   433.70         26.3964
   433.84         26.4837
   433.98         26.5495
   434.12         26.6155
   434.26         26.7088
   434.40         26.8507
   434.54         27.0470
   434.68         27.2903
   434.82         27.5627
   434.96         27.8408
   435.10         28.1036
   435.24         28.3420
   435.38         28.5648
   435.52         28.7903
   435.66         29.0337
   435.80         29.3005
   435.94         29.5827
   436.08         29.8575
   436.22         30.0879
   436.36         30.2321
   436.50         30.2589
   436.64         30.1621
   436.78         29.9559
   436.92         29.6561
   437.06         29.2655
   437.20         28.7767
   437.34         28.1899
   437.48         27.5256
   437.62         26.8241
   437.76         26.1317
   437.90         25.4892
   438.04         24.9303
   438.18         24.4826
   438.32         24.1728
   438.46         24.0283
   438.60         24.0690
   438.74         24.2963
   438.88         24.6929
   439.02         25.2259
   439.16         25.8405
   439.30         26.4545
   439.44         26.9735
   439.58         27.3189
   439.72         27.4556
   439.86         27.4038
   440.00         27.2224
   440.14         26.9770
   440.28         26.7189
   440.42         26.4858
   440.56         26.3166
   440.70         26.2530
   440.84         26.3267
   440.98         26.5486
   441.12         26.9049
   441.26         27.3597
   441.40         27.8627
   441.54         28.3604
   441.68         28.8045
   441.82         29.1586
   441.96         29.4095
   442.10         29.5690
   442.24         29.6580
   442.38         29.6947
   442.52         29.6965
   442.66         29.6815
   442.80         29.6658
   442.94         29.6636
   443.08         29.6897
   443.22         29.7637
   443.36         29.9045
   443.50         30.1236
   443.64         30.4251
   443.78         30.8049
   443.92         31.2505
   444.06         31.7374
   444.20         32.2284
   444.34         32.6776
   444.48         33.0380
   444.62         33.2679
   444.76         33.3327
   444.90         33.2120
   445.04         32.9141
   445.18         32.4792
   445.32         31.9614
   445.46         31.4125
   445.60         30.8806
   445.74         30.4167
   445.88         30.0771
   446.02         29.9102
   446.16         29.9437
   446.30         30.1837
   446.44         30.6198
   446.58         31.2278
   446.72         31.9659
   446.86         32.7759
   447.00         33.5949
   447.14         34.3743
   447.28         35.0875
   447.42         35.7244
   447.56         36.2818
   447.70         36.7551
   447.84         37.1368
   447.98         37.4194
   448.12         37.5960
   448.26         37.6599
   448.40         37.6114
   448.54         37.4705
   448.68         37.2748
   448.82         37.0687
   448.96         36.8952
   449.10         36.7970
   449.24         36.8116
   449.38         36.9634
   449.52         37.2629
   449.66         37.7119
   449.80         38.3022
   449.94         39.0018
   450.08         39.7505
   450.22         40.4730
   450.36         41.1001
   450.50         41.5833
   450.64         41.8966
   450.78         42.0364
   450.92         42.0199
   451.06         41.8806
   451.20         41.6571
   451.34         41.3763
   451.48         41.0451
   451.62         40.6566
   451.76         40.2016
   451.90         39.6720
   452.04         39.0627
   452.18         38.3770
   452.32         37.6342
   452.46         36.8750
   452.60         36.1539
   452.74         35.5269
   452.88         35.0426
   453.02         34.7399
   453.16         34.6430
   453.30         34.7561
   453.44         35.0629
   453.58         35.5241
   453.72         36.0837
   453.86         36.6811
   454.00         37.2588
   454.14         37.7678
   454.28         38.1792
   454.42         38.4957
   454.56         38.7474
   454.70         38.9748
   454.84         39.2164
   454.98         39.5027
   455.12         39.8487
   455.26         40.2479
   455.40         40.6825
   455.54         41.1392
   455.68         41.6086
   455.82         42.0727
   455.96         42.5058
   456.10         42.8872
   456.24         43.2054
   456.38         43.4544
   456.52         43.6299
   456.66         43.7272
   456.80         43.7464
   456.94         43.7010
   457.08         43.6148
   457.22         43.5038
   457.36         43.3711
   457.50         43.2200
   457.64         43.0647
   457.78         42.9276
   457.92         42.8307
   458.06         42.7847
   458.20         42.7845
   458.34         42.8107
   458.48         42.8400
   458.62         42.8589
   458.76         42.8626
   458.90         42.8455
   459.04         42.7993
   459.18         42.7155
   459.32         42.5954
   459.46         42.4631
   459.60         42.3650
   459.74         42.3515
   459.88         42.4603
   460.02         42.7121
   460.16         43.1143
   460.30         43.6607
   460.44         44.3283
   460.58         45.0805
   460.72         45.8781
   460.86         46.6863
   461.00         47.4744
   461.14         48.2124
   461.28         48.8712
   461.42         49.4245
   461.56         49.8540
   461.70         50.1529
   461.84         50.3275
   461.98         50.3933
   462.12         50.3654
   462.26         50.2494
   462.40         50.0412
   462.54         49.7318
   462.68         49.3158
   462.82         48.8032
   462.96         48.2218
   463.10         47.6006
   463.24         46.9582
   463.38         46.3031
   463.52         45.6454
   463.66         45.0049
   463.80         44.4129
   463.94         43.9057
   464.08         43.5141
   464.22         43.2548
   464.36         43.1329
   464.50         43.1506
   464.64         43.3128
   464.78         43.6224
   464.92         44.0720
   465.06         44.6363
   465.20         45.2721
   465.34         45.9224
   465.48         46.5212
   465.62         47.0035
   465.76         47.3164
   465.90         47.4330
   466.04         47.3581
   466.18         47.1243
   466.32         46.7867
   466.46         46.4095
   466.60         46.0494
   466.74         45.7439
   466.88         45.5170
   467.02         45.3922
   467.16         45.3900
   467.30         45.5109
   467.44         45.7229
   467.58         45.9702
   467.72         46.1972
   467.86         46.3644
   468.00         46.4533
   468.14         46.4717
   468.28         46.4553
   468.42         46.4466
   468.56         46.4687
   468.70         46.5190
   468.84         46.5849
   468.98         46.6571
   469.12         46.7259
   469.26         46.7772
   469.40         46.7954
   469.54         46.7735
   469.68         46.7136
   469.82         46.6227
   469.96         46.5099
   470.10         46.3828
   470.24         46.2519
   470.38         46.1386
   470.52         46.0752
   470.66         46.0961
   470.80         46.2268
   470.94         46.4731
   471.08         46.8191
   471.22         47.2381
   471.36         47.7024
   471.50         48.1756
   471.64         48.6061
   471.78         48.9397
   471.92         49.1345
   472.06         49.1671
   472.20         49.0378
   472.34         48.7695
   472.48         48.4011
   472.62         47.9808
   472.76         47.5616
   472.90         47.1984
   473.04         46.9421
   473.18         46.8286
   473.32         46.8725
   473.46         47.0674
   473.60         47.3923
   473.74         47.8190
   473.88         48.3104
   474.02         48.8158
   474.16         49.2800
   474.30         49.6640
   474.44         49.9526
   474.58         50.1414
   474.72         50.2291
   474.86         50.2180
   475.00         50.1103
   475.14         49.9073
   475.28         49.6142
   475.42         49.2402
   475.56         48.8005
   475.70         48.3215
   475.84         47.8369
   475.98         47.3817
   476.12         46.9874
   476.26         46.6802
   476.40         46.4795
   476.54         46.3905
   476.68         46.4024
   476.82         46.4949
   476.96         46.6387
   477.10         46.7952
   477.24         46.9256
   477.38         46.9974
   477.52         46.9845
   477.66         46.8678
   477.80         46.6444
   477.94         46.3342
   478.08         45.9821
   478.22         45.6534
   478.36         45.4136
   478.50         45.3087
   478.64         45.3596
   478.78         45.5666
   478.92         45.9198
   479.06         46.3994
   479.20         46.9681
   479.34         47.5736
   479.48         48.1619
   479.62         48.6857
   479.76         49.1122
   479.90         49.4260
   480.04         49.6255
   480.18         49.7210
   480.32         49.7330
   480.46         49.6928
   480.60         49.6410
   480.74         49.6195
   480.88         49.6543
   481.02         49.7433
   481.16         49.8644
   481.30         49.9953
   481.44         50.1271
   481.58         50.2560
   481.72         50.3675
   481.86         50.4347
   482.00         50.4318
   482.14         50.3489
   482.28         50.1958
   482.42         49.9941
   482.56         49.7683
   482.70         49.5396
   482.84         49.3249
   482.98         49.1366
   483.12         48.9823
   483.26         48.8656
   483.40         48.7849
   483.54         48.7317
   483.68         48.6942
   483.82         48.6681
   483.96         48.6600
   484.10         48.6762
   484.24         48.7103
   484.38         48.7480
   484.52         48.7770
   484.66         48.7881
   484.80         48.7695
   484.94         48.6992
   485.08         48.5506
   485.22         48.3089
   485.36         47.9783
   485.50         47.5807
   485.64         47.1487
   485.78         46.7168
   485.92         46.3154
   486.06         45.9670
   486.20         45.6864
   486.34         45.4836
   486.48         45.3666
   486.62         45.3408
   486.76         45.4047
   486.90         45.5464
   487.04         45.7457
   487.18         45.9793
   487.32         46.2187
   487.46         46.4337
   487.60         46.6033
   487.74         46.7226
   487.88         46.7946
   488.02         46.8251
   488.16         46.8293
   488.30         46.8365
   488.44         46.8845
   488.58         47.0125
   488.72         47.2525
   488.86         47.6211
   489.00         48.1160
   489.14         48.7182
   489.28         49.3951
   489.42         50.1024
   489.56         50.7879
   489.70         51.4014
   489.84         51.9011
   489.98         52.2587
   490.12         52.4680
   490.26         52.5462
   490.40         52.5278
   490.54         52.4516
   490.68         52.3486
   490.82         52.2309
   490.96         52.0885
   491.10         51.9039
   491.24         51.6676
   491.38         51.3807
   491.52         51.0619
   491.66         50.7517
   491.80         50.5043
   491.94         50.3709
   492.08         50.3835
   492.22         50.5464
   492.36         50.8432
   492.50         51.2436
   492.64         51.7043
   492.78         52.1730
   492.92         52.5991
   493.06         52.9452
   493.20         53.1873
   493.34         53.3187
   493.48         53.3628
   493.62         53.3753
   493.76         53.4276
   493.90         53.5826
   494.04         53.8794
   494.18         54.3303
   494.32         54.9144
   494.46         55.5691
   494.60         56.1962
   494.74         56.6936
   494.88         56.9896
   495.02         57.0547
   495.16         56.8881
   495.30         56.5074
   495.44         55.9479
   495.58         55.2592
   495.72         54.5001
   495.86         53.7336
   496.00         53.0281
   496.14         52.4532
   496.28         52.0621
   496.42         51.8788
   496.56         51.8939
   496.70         52.0659
   496.84         52.3296
   496.98         52.6064
   497.12         52.8183
   497.26         52.9117
   497.40         52.8726
   497.54         52.7115
   497.68         52.4431
   497.82         52.0825
   497.96         51.6553
   498.10         51.2048
   498.24         50.7901
   498.38         50.4746
   498.52         50.3069
   498.66         50.3041
   498.80         50.4465
   498.94         50.6845
   499.08         50.9538
   499.22         51.1875
   499.36         51.3256
   499.50         51.3268
   499.64         51.1776
   499.78         50.8940
   499.92         50.5079
   500.06         50.0477
   500.20         49.5314
   500.34         48.9771
   500.48         48.4126
   500.62         47.8746
   500.76         47.3985
   500.90         47.0080
   501.04         46.7136
   501.18         46.5197
   501.32         46.4264
   501.46         46.4282
   501.60         46.5180
   501.74         46.6912
   501.88         46.9468
   502.02         47.2880
   502.16         47.7186
   502.30         48.2264
   502.44         48.7716
   502.58         49.2954
   502.72         49.7332
   502.86         50.0298
   503.00         50.1575
   503.14         50.1212
   503.28         49.9534
   503.42         49.7038
   503.56         49.4239
   503.70         49.1566
   503.84         48.9370
   503.98         48.7970
   504.12         48.7657
   504.26         48.8704
   504.40         49.1301
   504.54         49.5431
   504.68         50.0862
   504.82         50.7204
   504.96         51.3907
   505.10         52.0298
   505.24         52.5705
   505.38         52.9631
   505.52         53.1906
   505.66         53.2657
   505.80         53.2115
   505.94         53.0476
   506.08         52.7870
   506.22         52.4440
   506.36         52.0405
   506.50         51.6119
   506.64         51.1924
   506.78         50.7994
   506.92         50.4360
   507.06         50.0988
   507.20         49.7837
   507.34         49.4916
   507.48         49.2274
   507.62         48.9946
   507.76         48.8005
   507.90         48.6675
   508.04         48.6297
   508.18         48.7086
   508.32         48.9000
   508.46         49.1800
   508.60         49.5081
   508.74         49.8351
   508.88         50.1140
   509.02         50.3047
   509.16         50.3772
   509.30         50.3163
   509.44         50.1294
   509.58         49.8460
   509.72         49.5056
   509.86         49.1470
   510.00         48.8078
   510.14         48.5242
   510.28         48.3289
   510.42         48.2492
   510.56         48.2990
   510.70         48.4705
   510.84         48.7318
   510.98         49.0357
   511.12         49.3293
   511.26         49.5632
   511.40         49.7017
   511.54         49.7234
   511.68         49.6162
   511.82         49.3819
   511.96         49.0489
   512.10         48.6682
   512.24         48.2980
   512.38         47.9922
   512.52         47.7919
   512.66         47.7210
   512.80         47.7856
   512.94         47.9728
   513.08         48.2460
   513.22         48.5474
   513.36         48.8130
   513.50         48.9921
   513.64         49.0555
   513.78         48.9943
   513.92         48.8156
   514.06         48.5391
   514.20         48.1997
   514.34         47.8547
   514.48         47.5758
   514.62         47.4231
   514.76         47.4308
   514.90         47.6050
   515.04         47.9229
   515.18         48.3292
   515.32         48.7398
   515.46         49.0575
   515.60         49.1874
   515.74         49.0506
   515.88         48.5921
   516.02         47.7896
   516.16         46.6683
   516.30         45.3020
   516.44         43.8016
   516.58         42.3024
   516.72         40.9419
   516.86         39.8323
   517.00         39.0387
   517.14         38.5707
   517.28         38.4090
   517.42         38.5335
   517.56         38.9175
   517.70         39.5181
   517.84         40.2770
   517.98         41.1289
   518.12         42.0213
   518.26         42.9279
   518.40         43.8412
   518.54         44.7649
   518.68         45.7116
   518.82         46.6909
   518.96         47.6875
   519.10         48.6493
   519.24         49.4903
   519.38         50.1079
   519.52         50.4171
   519.66         50.3810
   519.80         50.0284
   519.94         49.4513
   520.08         48.7700
   520.22         48.0959
   520.36         47.5227
   520.50         47.1335
   520.64         47.0087
   520.78         47.2247
   520.92         47.8286
   521.06         48.8065
   521.20         50.0751
   521.34         51.4946
   521.48         52.9008
   521.62         54.1509
   521.76         55.1494
   521.90         55.8542
   522.04         56.2768
   522.18         56.4724
   522.32         56.5311
   522.46         56.5643
   522.60         56.6744
   522.74         56.9277
   522.88         57.3473
   523.02         57.9292
   523.16         58.6535
   523.30         59.4754
   523.44         60.3169
   523.58         61.0733
   523.72         61.6373
   523.86         61.9284
   524.00         61.9193
   524.14         61.6396
   524.28         61.1558
   524.42         60.5450
   524.56         59.8855
   524.70         59.2546
   524.84         58.7212
   524.98         58.3321
   525.12         58.0940
   525.26         57.9700
   525.40         57.8968
   525.54         57.8053
   525.68         57.6319
   525.82         57.3187
   525.96         56.8259
   526.10         56.1593
   526.24         55.3775
   526.38         54.5798
   526.52         53.8904
   526.66         53.4388
   526.80         53.3290
   526.94         53.6120
   527.08         54.2831
   527.22         55.2933
   527.36         56.5642
   527.50         57.9992
   527.64         59.4934
   527.78         60.9526
   527.92         62.3079
   528.06         63.5195
   528.20         64.5678
   528.34         65.4374
   528.48         66.1107
   528.62         66.5714
   528.76         66.8122
   528.90         66.8376
   529.04         66.6699
   529.18         66.3582
   529.32         65.9726
   529.46         65.5868
   529.60         65.2727
   529.74         65.1072
   529.88         65.1628
   530.02         65.4819
   530.16         66.0599
   530.30         66.8471
   530.44         67.7655
   530.58         68.7250
   530.72         69.6300
   530.86         70.3868
   531.00         70.9175
   531.14         71.1739
   531.28         71.1472
   531.42         70.8599
   531.56         70.3414
   531.70         69.6121
   531.84         68.6978
   531.98         67.6440
   532.12         66.5159
   532.26         65.3960
   532.40         64.3726
   532.54         63.5227
   532.68         62.9016
   532.82         62.5373
   532.96         62.4329
   533.10         62.5726
   533.24         62.9259
   533.38         63.4456
   533.52         64.0705
   533.66         64.7299
   533.80         65.3543
   533.94         65.8917
   534.08         66.3204
   534.22         66.6579
   534.36         66.9645
   534.50         67.3299
   534.64         67.8382
   534.78         68.5349
   534.92         69.4173
   535.06         70.4387
   535.20         71.5231
   535.34         72.5832
   535.48         73.5355
   535.62         74.3074
   535.76         74.8345
   535.90         75.0600
   536.04         74.9512
   536.18         74.5194
   536.32         73.8270
   536.46         72.9782
   536.60         72.0958
   536.74         71.2999
   536.88         70.6884
   537.02         70.3200
   537.16         70.2087
   537.30         70.3306
   537.44         70.6348
   537.58         71.0549
   537.72         71.5139
   537.86         71.9302
   538.00         72.2287
   538.14         72.3480
   538.28         72.2463
   538.42         71.9058
   538.56         71.3412
   538.70         70.6075
   538.84         69.7854
   538.98         68.9559
   539.12         68.1760
   539.26         67.4711
   539.40         66.8413
   539.54         66.2711
   539.68         65.7446
   539.82         65.2590
   539.96         64.8310
   540.10         64.4964
   540.24         64.3014
   540.38         64.2891
   540.52         64.4968
   540.66         64.9502
   540.80         65.6509
   540.94         66.5718
   541.08         67.6630
   541.22         68.8644
   541.36         70.1138
   541.50         71.3448
   541.64         72.4782
   541.78         73.4227
   541.92         74.0945
   542.06         74.4434
   542.20         74.4615
   542.34         74.1766
   542.48         73.6453
   542.62         72.9488
   542.76         72.1878
   542.90         71.4677
   543.04         70.8824
   543.18         70.5034
   543.32         70.3622
   543.46         70.4393
   543.60         70.6822
   543.74         71.0294
   543.88         71.4238
   544.02         71.8137
   544.16         72.1401
   544.30         72.3338
   544.44         72.3358
   544.58         72.1262
   544.72         71.7346
   544.86         71.2233
   545.00         70.6691
   545.14         70.1512
   545.28         69.7379
   545.42         69.4787
   545.56         69.3957
   545.70         69.4768
   545.84         69.6777
   545.98         69.9332
   546.12         70.1808
   546.26         70.3808
   546.40         70.5093
   546.54         70.5441
   546.68         70.4646
   546.82         70.2609
   546.96         69.9431
   547.10         69.5422
   547.24         69.1091
   547.38         68.7024
   547.52         68.3690
   547.66         68.1392
   547.80         68.0327
   547.94         68.0619
   548.08         68.2307
   548.22         68.5277
   548.36         68.9224
   548.50         69.3720
   548.64         69.8368
   548.78         70.2894
   548.92         70.7127
   549.06         71.0934
   549.20         71.4248
   549.34         71.7065
   549.48         71.9374
   549.62         72.1156
   549.76         72.2462
   549.90         72.3380
   550.04         72.3895
   550.18         72.3838
   550.32         72.2989
   550.46         72.1258
   550.60         71.8793
   550.74         71.5975
   550.88         71.3313
   551.02         71.1338
   551.16         71.0522
   551.30         71.1214
   551.44         71.3564
   551.58         71.7414
   551.72         72.2360
   551.86         72.7960
   552.00         73.3806
   552.14         73.9512
   552.28         74.4697
   552.42         74.8975
   552.56         75.2018
   552.70         75.3706
   552.84         75.4235
   552.98         75.4077
   553.12         75.3816
   553.26         75.3978
   553.40         75.4900
   553.54         75.6687
   553.68         75.9288
   553.82         76.2568
   553.96         76.6346
   554.10         77.0409
   554.24         77.4516
   554.38         77.8472
   554.52         78.2142
   554.66         78.5363
   554.80         78.7961
   554.94         78.9808
   555.08         79.0851
   555.22         79.1112
   555.36         79.0639
   555.50         78.9462
   555.64         78.7570
   555.78         78.4971
   555.92         78.1798
   556.06         77.8305
   556.20         77.4809
   556.34         77.1669
   556.48         76.9203
   556.62         76.7615
   556.76         76.6977
   556.90         76.7250
   557.04         76.8340
   557.18         77.0068
   557.32         77.2150
   557.46         77.4197
   557.60         77.5736
   557.74         77.6286
   557.88         77.5496
   558.02         77.3219
   558.16         76.9527
   558.30         76.4745
   558.44         75.9396
   558.58         75.4037
   558.72         74.9102
   558.86         74.4896
   559.00         74.1601
   559.14         73.9276
   559.28         73.7949
   559.42         73.7688
   559.56         73.8592
   559.70         74.0721
   559.84         74.4028
   559.98         74.8374
   560.12         75.3531
   560.26         75.9145
   560.40         76.4774
   560.54         76.9962
   560.68         77.4309
   560.82         77.7512
   560.96         77.9411
   561.10         77.9924
   561.24         77.8944
   561.38         77.6426
   561.52         77.2568
   561.66         76.7843
   561.80         76.2931
   561.94         75.8599
   562.08         75.5482
   562.22         75.3945
   562.36         75.4033
   562.50         75.5514
   562.64         75.7977
   562.78         76.0922
   562.92         76.3873
   563.06         76.6495
   563.20         76.8594
   563.34         77.0060
   563.48         77.0831
   563.62         77.0918
   563.76         77.0387
   563.90         76.9388
   564.04         76.8277
   564.18         76.7570
   564.32         76.7656
   564.46         76.8660
   564.60         77.0409
   564.74         77.2479
   564.88         77.4399
   565.02         77.5740
   565.16         77.6208
   565.30         77.5745
   565.44         77.4468
   565.58         77.2571
   565.72         77.0259
   565.86         76.7771
   566.00         76.5462
   566.14         76.3828
   566.28         76.3419
   566.42         76.4679
   566.56         76.7810
   566.70         77.2722
   566.84         77.8980
   566.98         78.5867
   567.12         79.2674
   567.26         79.8833
   567.40         80.3936
   567.54         80.7738
   567.68         81.0107
   567.82         81.1100
   567.96         81.0970
   568.10         81.0040
   568.24         80.8665
   568.38         80.7238
   568.52         80.6118
   568.66         80.5513
   568.80         80.5410
   568.94         80.5550
   569.08         80.5502
   569.22         80.4822
   569.36         80.3147
   569.50         80.0182
   569.64         79.5756
   569.78         78.9930
   569.92         78.2987
   570.06         77.5390
   570.20         76.7812
   570.34         76.1082
   570.48         75.6009
   570.62         75.3216
   570.76         75.3090
   570.90         75.5773
   571.04         76.1182
   571.18         76.8999
   571.32         77.8662
   571.46         78.9413
   571.60         80.0426
   571.74         81.0954
   571.88         82.0352
   572.02         82.8072
   572.16         83.3778
   572.30         83.7462
   572.44         83.9384
   572.58         83.9947
   572.72         83.9588
   572.86         83.8711
   573.00         83.7644
   573.14         83.6615
   573.28         83.5819
   573.42         83.5444
   573.56         83.5543
   573.70         83.6013
   573.84         83.6673
   573.98         83.7283
   574.12         83.7603
   574.26         83.7530
   574.40         83.7169
   574.54         83.6753
   574.68         83.6510
   574.82         83.6578
   574.96         83.6895
   575.10         83.7330
   575.24         83.7920
   575.38         83.8863
   575.52         84.0407
   575.66         84.2724
   575.80         84.5819
   575.94         84.9603
   576.08         85.3867
   576.22         85.8265
   576.36         86.2430
   576.50         86.6063
   576.64         86.8877
   576.78         87.0562
   576.92         87.0803
   577.06         86.9291
   577.20         86.5719
   577.34         85.9891
   577.48         85.1902
   577.62         84.2259
   577.76         83.1856
   577.90         82.1684
   578.04         81.2604
   578.18         80.5334
   578.32         80.0396
   578.46         79.8114
   578.60         79.8634
   578.74         80.1929
   578.88         80.7829
   579.02         81.6002
   579.16         82.5876
   579.30         83.6625
   579.44         84.7325
   579.58         85.7223
   579.72         86.5857
   579.86         87.3050
   580.00         87.8806
   580.14         88.3171
   580.28         88.6167
   580.42         88.7791
   580.56         88.8140
   580.70         88.7577
   580.84         88.6613
   580.98         88.5700
   581.12         88.5166
   581.26         88.5264
   581.40         88.6188
   581.54         88.7968
   581.68         89.0442
   581.82         89.3337
   581.96         89.6385
   582.10         89.9365
   582.24         90.2050
   582.38         90.4186
   582.52         90.5592
   582.66         90.6212
   582.80         90.6147
   582.94         90.5696
   583.08         90.5274
   583.22         90.5288
   583.36         90.5995
   583.50         90.7390
   583.64         90.9261
   583.78         91.1313
   583.92         91.3214
   584.06         91.4585
   584.20         91.5053
   584.34         91.4297
   584.48         91.2067
   584.62         90.8258
   584.76         90.3022
   584.90         89.6768
   585.04         89.0043
   585.18         88.3421
   585.32         87.7401
   585.46         87.2368
   585.60         86.8608
   585.74         86.6326
   585.88         86.5637
   586.02         86.6546
   586.16         86.8936
   586.30         87.2518
   586.44         87.6810
   586.58         88.1239
   586.72         88.5253
   586.86         88.8373
   587.00         89.0233
   587.14         89.0664
   587.28         88.9714
   587.42         88.7458
   587.56         88.3663
   587.70         87.7588
   587.84         86.8307
   587.98         85.5312
   588.12         83.8692
   588.26         81.8878
   588.40         79.6438
   588.54         77.2203
   588.68         74.7418
   588.82         72.3626
   588.96         70.2465
   589.10         68.5494
   589.24         67.4060
   589.38         66.9087
   589.52         67.0989
   589.66         67.9669
   589.80         69.4411
   589.94         71.3814
   590.08         73.5909
   590.22         75.8486
   590.36         77.9587
   590.50         79.7964
   590.64         81.3065
   590.78         82.4654
   590.92         83.2679
   591.06         83.7450
   591.20         83.9708
   591.34         84.0369
   591.48         84.0261
   591.62         84.0041
   591.76         84.0174
   591.90         84.0991
   592.04         84.2653
   592.18         84.5090
   592.32         84.8022
   592.46         85.1068
   592.60         85.3859
   592.74         85.6087
   592.88         85.7509
   593.02         85.7986
   593.16         85.7552
   593.30         85.6367
   593.44         85.4672
   593.58         85.2676
   593.72         85.0498
   593.86         84.8232
   594.00         84.5913
   594.14         84.3510
   594.28         84.0975
   594.42         83.8268
   594.56         83.5404
   594.70         83.2490
   594.84         82.9775
   594.98         82.7647
   595.12         82.6499
   595.26         82.6571
   595.40         82.7943
   595.54         83.0650
   595.68         83.4773
   595.82         84.0378
   595.96         84.7326
   596.10         85.5244
   596.24         86.3571
   596.38         87.1634
   596.52         87.8753
   596.66         88.4357
   596.80         88.8128
   596.94         88.9940
   597.08         88.9721
   597.22         88.7537
   597.36         88.3677
   597.50         87.8590
   597.64         87.2786
   597.78         86.6780
   597.92         86.1087
   598.06         85.6261
   598.20         85.2859
   598.34         85.1244
   598.48         85.1391
   598.62         85.2939
   598.76         85.5427
   598.90         85.8381
   599.04         86.1329
   599.18         86.3902
   599.32         86.5892
   599.46         86.7160
   599.60         86.7573
   599.74         86.7135
   599.88         86.6069
   600.02         86.4693
   600.16         86.3262
   600.30         86.1919
   600.44         86.0685
   600.58         85.9518
   600.72         85.8395
   600.86         85.7251
   601.00         85.5969
   601.14         85.4494
   601.28         85.2938
   601.42         85.1543
   601.56         85.0582
   601.70         85.0283
   601.84         85.0783
   601.98         85.2115
   602.12         85.4239
   602.26         85.7129
   602.40         86.0726
   602.54         86.4833
   602.68         86.9151
   602.82         87.3364
   602.96         87.7151
   603.10         88.0281
   603.24         88.2736
   603.38         88.4653
   603.52         88.6197
   603.66         88.7526
   603.80         88.8830
   603.94         89.0288
   604.08         89.1965
   604.22         89.3773
   604.36         89.5478
   604.50         89.6793
   604.64         89.7509
   604.78         89.7563
   604.92         89.6948
   605.06         89.5633
   605.20         89.3578
   605.34         89.0829
   605.48         88.7605
   605.62         88.4313
   605.76         88.1515
   605.90         87.9771
   606.04         87.9477
   606.18         88.0821
   606.32         88.3801
   606.46         88.8210
   606.60         89.3559
   606.74         89.9157
   606.88         90.4290
   607.02         90.8298
   607.16         91.0657
   607.30         91.1072
   607.44         90.9464
   607.58         90.5917
   607.72         90.0678
   607.86         89.4155
   608.00         88.6899
   608.14         87.9524
   608.28         87.2595
   608.42         86.6595
   608.56         86.1905
   608.70         85.8748
   608.84         85.7106
   608.98         85.6730
   609.12         85.7221
   609.26         85.8195
   609.40         85.9378
   609.54         86.0583
   609.68         86.1728
   609.82         86.2834
   609.96         86.3963
   610.10         86.5193
   610.24         86.6594
   610.38         86.8192
   610.52         86.9971
   610.66         87.1894
   610.80         87.3839
   610.94         87.5592
   611.08         87.6941
   611.22         87.7733
   611.36         87.7823
   611.50         87.7032
   611.64         87.5256
   611.78         87.2647
   611.92         86.9653
   612.06         86.6797
   612.20         86.4394
   612.34         86.2426
   612.48         86.0539
   612.62         85.8305
   612.76         85.5546
   612.90         85.2298
   613.04         84.8723
   613.18         84.5137
   613.32         84.1972
   613.46         83.9710
   613.60         83.8812
   613.74         83.9606
   613.88         84.2145
   614.02         84.6218
   614.16         85.1486
   614.30         85.7560
   614.44         86.3981
   614.58         87.0101
   614.72         87.5063
   614.86         87.7906
   615.00         87.7774
   615.14         87.4235
   615.28         86.7534
   615.42         85.8471
   615.56         84.7940
   615.70         83.6671
   615.84         82.5282
   615.98         81.4370
   616.12         80.4491
   616.26         79.6095
   616.40         78.9526
   616.54         78.5059
   616.68         78.2906
   616.82         78.3161
   616.96         78.5719
   617.10         79.0271
   617.24         79.6330
   617.38         80.3213
   617.52         81.0093
   617.66         81.6195
   617.80         82.0971
   617.94         82.4034
   618.08         82.5070
   618.22         82.3898
   618.36         82.0642
   618.50         81.5829
   618.64         81.0174
   618.78         80.4330
   618.92         79.8923
   619.06         79.4649
   619.20         79.2155
   619.34         79.1880
   619.48         79.4011
   619.62         79.8410
   619.76         80.4550
   619.90         81.1587
   620.04         81.8492
   620.18         82.4187
   620.32         82.7695
   620.46         82.8360
   620.60         82.5993
   620.74         82.0827
   620.88         81.3314
   621.02         80.3972
   621.16         79.3349
   621.30         78.2073
   621.44         77.0963
   621.58         76.0945
   621.72         75.2727
   621.86         74.6494
   622.00         74.2086
   622.14         73.9334
   622.28         73.8075
   622.42         73.8099
   622.56         73.9095
   622.70         74.0567
   622.84         74.1953
   622.98         74.2891
   623.12         74.3261
   623.26         74.3051
   623.40         74.2276
   623.54         74.1071
   623.68         73.9767
   623.82         73.8739
   623.96         73.8245
   624.10         73.8383
   624.24         73.9080
   624.38         74.0094
   624.52         74.1049
   624.66         74.1679
   624.80         74.1945
   624.94         74.1905
   625.08         74.1602
   625.22         74.1023
   625.36         74.0161
   625.50         73.9219
   625.64         73.8573
   625.78         73.8588
   625.92         73.9589
   626.06         74.1843
   626.20         74.5444
   626.34         75.0196
   626.48         75.5669
   626.62         76.1325
   626.76         76.6625
   626.90         77.1099
   627.04         77.4403
   627.18         77.6416
   627.32         77.7376
   627.46         77.7829
   627.60         77.8418
   627.74         77.9657
   627.88         78.1765
   628.02         78.4723
   628.16         78.8426
   628.30         79.2677
   628.44         79.7119
   628.58         80.1317
   628.72         80.4905
   628.86         80.7611
   629.00         80.9263
   629.14         80.9833
   629.28         80.9399
   629.42         80.8179
   629.56         80.6642
   629.70         80.5438
   629.84         80.5155
   629.98         80.6162
   630.12         80.8557
   630.26         81.2153
   630.40         81.6475
   630.54         82.0863
   630.68         82.4727
   630.82         82.7706
   630.96         82.9667
   631.10         83.0686
   631.24         83.1079
   631.38         83.1299
   631.52         83.1717
   631.66         83.2575
   631.80         83.4083
   631.94         83.6432
   632.08         83.9750
   632.22         84.4036
   632.36         84.9026
   632.50         85.4222
   632.64         85.9130
   632.78         86.3444
   632.92         86.7027
   633.06         86.9739
   633.20         87.1390
   633.34         87.1927
   633.48         87.1532
   633.62         87.0515
   633.76         86.9214
   633.90         86.7967
   634.04         86.7050
   634.18         86.6600
   634.32         86.6621
   634.46         86.7013
   634.60         86.7496
   634.74         86.7613
   634.88         86.6897
   635.02         86.4991
   635.16         86.1741
   635.30         85.7288
   635.44         85.2028
   635.58         84.6505
   635.72         84.1360
   635.86         83.7344
   636.00         83.5249
   636.14         83.5715
   636.28         83.9044
   636.42         84.5124
   636.56         85.3452
   636.70         86.3211
   636.84         87.3439
   636.98         88.3240
   637.12         89.1874
   637.26         89.8776
   637.40         90.3673
   637.54         90.6645
   637.68         90.8027
   637.82         90.8318
   637.96         90.8052
   638.10         90.7587
   638.24         90.7065
   638.38         90.6560
   638.52         90.6132
   638.66         90.5756
   638.80         90.5281
   638.94         90.4538
   639.08         90.3528
   639.22         90.2436
   639.36         90.1535
   639.50         90.1091
   639.64         90.1294
   639.78         90.2219
   639.92         90.3818
   640.06         90.5907
   640.20         90.8211
   640.34         91.0453
   640.48         91.2375
   640.62         91.3687
   640.76         91.4120
   640.90         91.3568
   641.04         91.2158
   641.18         91.0163
   641.32         90.7939
   641.46         90.5946
   641.60         90.4739
   641.74         90.4680
   641.88         90.5687
   642.02         90.7417
   642.16         90.9534
   642.30         91.1812
   642.44         91.4110
   642.58         91.6281
   642.72         91.8167
   642.86         91.9758
   643.00         92.1231
   643.14         92.2813
   643.28         92.4700
   643.42         92.7057
   643.56         92.9970
   643.70         93.3227
   643.84         93.6296
   643.98         93.8585
   644.12         93.9650
   644.26         93.9240
   644.40         93.7319
   644.54         93.4170
   644.68         93.0422
   644.82         92.6866
   644.96         92.4094
   645.10         92.2334
   645.24         92.1618
   645.38         92.1995
   645.52         92.3548
   645.66         92.6197
   645.80         92.9569
   645.94         93.3081
   646.08         93.6118
   646.22         93.8192
   646.36         93.9052
   646.50         93.8870
   646.64         93.8160
   646.78         93.7411
   646.92         93.6853
   647.06         93.6449
   647.20         93.6065
   647.34         93.5590
   647.48         93.4941
   647.62         93.4058
   647.76         93.2970
   647.90         93.1799
   648.04         93.0563
   648.18         92.8985
   648.32         92.6520
   648.46         92.2630
   648.60         91.7037
   648.74         90.9807
   648.88         90.1350
   649.02         89.2351
   649.16         88.3634
   649.30         87.6025
   649.44         87.0269
   649.58         86.6962
   649.72         86.6544
   649.86         86.9323
   650.00         87.5382
   650.14         88.4442
   650.28         89.5849
   650.42         90.8645
   650.56         92.1758
   650.70         93.4214
   650.84         94.5322
   650.98         95.4793
   651.12         96.2714
   651.26         96.9386
   651.40         97.5136
   651.54         98.0227
   651.68         98.4796
   651.82         98.8839
   651.96         99.2273
   652.10         99.5003
   652.24         99.6961
   652.38         99.8180
   652.52         99.8795
   652.66         99.8975
   652.80         99.8924
   652.94         99.8856
   653.08         99.8916
   653.22         99.9151
   653.36         99.9534
   653.50         100.0018
   653.64         100.0530
   653.78         100.0927
   653.92         100.1014
   654.06         100.0522
   654.20         99.9154
   654.34         99.6665
   654.48         99.2922
   654.62         98.7981
   654.76         98.2061
   654.90         97.5285
   655.04         96.7505
   655.18         95.8448
   655.32         94.8160
   655.46         93.7193
   655.60         92.6316
   655.74         91.6284
   655.88         90.7744
   656.02         90.1183
   656.16         89.6933
   656.30         89.5147
   656.44         89.5814
   656.58         89.8810
   656.72         90.3857
   656.86         91.0570
   657.00         91.8522
   657.14         92.7237
   657.28         93.6167
   657.42         94.4671
   657.56         95.2169
   657.70         95.8478
   657.84         96.3853
   657.98         96.8637
   658.12         97.2824
   658.26         97.6024
   658.40         97.7841
   658.54         97.8057
   658.68         97.6704
   658.82         97.4136
   658.96         97.0946
   659.10         96.7720
   659.24         96.4788
   659.38         96.2197
   659.52         95.9863
   659.66         95.7676
   659.80         95.5570
   659.94         95.3575
   660.08         95.1796
   660.22         95.0375
   660.36         94.9416
   660.50         94.8924
   660.64         94.8881
   660.78         94.9363
   660.92         95.0535
   661.06         95.2484
   661.20         95.5024
   661.34         95.7824
   661.48         96.0595
   661.62         96.3029
   661.76         96.4749
   661.90         96.5416
   662.04         96.4867
   662.18         96.3159
   662.32         96.0570
   662.46         95.7536
   662.60         95.4529
   662.74         95.1937
   662.88         95.0017
   663.02         94.8883
   663.16         94.8510
   663.30         94.8791
   663.44         94.9592
   663.58         95.0783
   663.72         95.2244
   663.86         95.3873
   664.00         95.5623
   664.14         95.7412
   664.28         95.9033
   664.42         96.0218
   664.56         96.0725
   664.70         96.0429
   664.84         95.9354
   664.98         95.7561
   665.12         95.5064
   665.26         95.1840
   665.40         94.7874
   665.54         94.3241
   665.68         93.8175
   665.82         93.3117
   665.96         92.8633
   666.10         92.5221
   666.24         92.3212
   666.38         92.2720
   666.52         92.3587
   666.66         92.5437
   666.80         92.7807
   666.94         93.0310
   667.08         93.2681
   667.22         93.4730
   667.36         93.6332
   667.50         93.7359
   667.64         93.7692
   667.78         93.7362
   667.92         93.6613
   668.06         93.5832
   668.20         93.5406
   668.34         93.5552
   668.48         93.6285
   668.62         93.7455
   668.76         93.8828
   668.90         94.0183
   669.04         94.1328
   669.18         94.2114
   669.32         94.2485
   669.46         94.2545
   669.60         94.2471
   669.74         94.2342
   669.88         94.2083
   670.02         94.1545
   670.16         94.0570
   670.30         93.9030
   670.44         93.6850
   670.58         93.3974
   670.72         93.0421
   670.86         92.6350
   671.00         92.2071
   671.14         91.8025
   671.28         91.4655
   671.42         91.2274
   671.56         91.1014
   671.70         91.0850
   671.84         91.1679
   671.98         91.3355
   672.12         91.5672
   672.26         91.8333
   672.40         92.0954
   672.54         92.3130
   672.68         92.4523
   672.82         92.4905
   672.96         92.4169
   673.10         92.2349
   673.24         91.9640
   673.38         91.6365
   673.52         91.2837
   673.66         90.9264
   673.80         90.5773
   673.94         90.2440
   674.08         89.9306
   674.22         89.6430
   674.36         89.3970
   674.50         89.2177
   674.64         89.1289
   674.78         89.1461
   674.92         89.2800
   675.06         89.5338
   675.20         89.9000
   675.34         90.3605
   675.48         90.8837
   675.62         91.4312
   675.76         91.9664
   675.90         92.4556
   676.04         92.8696
   676.18         93.1859
   676.32         93.3947
   676.46         93.5017
   676.60         93.5254
   676.74         93.4970
   676.88         93.4583
   677.02         93.4444
   677.16         93.4658
   677.30         93.5071
   677.44         93.5470
   677.58         93.5693
   677.72         93.5597
   677.86         93.5081
   678.00         93.4085
   678.14         93.2599
   678.28         93.0751
   678.42         92.8751
   678.56         92.6824
   678.70         92.5212
   678.84         92.4136
   678.98         92.3766
   679.12         92.4164
   679.26         92.5217
   679.40         92.6665
   679.54         92.8191
   679.68         92.9522
   679.82         93.0530
   679.96         93.1247
   680.10         93.1786
   680.24         93.2213
   680.38         93.2503
   680.52         93.2658
   680.66         93.2702
   680.80         93.2675
   680.94         93.2673
   681.08         93.2840
   681.22         93.3319
   681.36         93.4207
   681.50         93.5515
   681.64         93.7154
   681.78         93.8937
   681.92         94.0621
   682.06         94.2016
   682.20         94.3032
   682.34         94.3630
   682.48         94.3770
   682.62         94.3372
   682.76         94.2348
   682.90         94.0618
   683.04         93.8161
   683.18         93.5083
   683.32         93.1595
   683.46         92.7973
   683.60         92.4531
   683.74         92.1544
   683.88         91.9191
   684.02         91.7548
   684.16         91.6602
   684.30         91.6261
   684.44         91.6395
   684.58         91.6901
   684.72         91.7661
   684.86         91.8438
   685.00         91.8911
   685.14         91.8807
   685.28         91.7979
   685.42         91.6335
   685.56         91.3596
   685.70         90.9218
   685.84         90.2586
   685.98         89.3203
   686.12         88.0784
   686.26         86.5346
   686.40         84.7328
   686.54         82.7612
   686.68         80.7430
   686.82         78.8200
   686.96         77.1371
   687.10         75.8288
   687.24         74.9990
   687.38         74.6991
   687.52         74.9249
   687.66         75.6287
   687.80         76.7197
   687.94         78.0666
   688.08         79.5078
   688.22         80.8786
   688.36         82.0571
   688.50         82.9868
   688.64         83.6663
   688.78         84.1271
   688.92         84.4205
   689.06         84.6114
   689.20         84.7631
   689.34         84.9235
   689.48         85.1256
   689.62         85.3898
   689.76         85.7208
   689.90         86.1047
   690.04         86.5148
   690.18         86.9221
   690.32         87.3034
   690.46         87.6450
   690.60         87.9450
   690.74         88.2070
   690.88         88.4409
   691.02         88.6638
   691.16         88.8913
   691.30         89.1327
   691.44         89.3917
   691.58         89.6710
   691.72         89.9710
   691.86         90.2809
   692.00         90.5844
   692.14         90.8686
   692.28         91.1214
   692.42         91.3330
   692.56         91.5023
   692.70         91.6365
   692.84         91.7496
   692.98         91.8618
   693.12         91.9948
   693.26         92.1610
   693.40         92.3602
   693.54         92.5880
   693.68         92.8338
   693.82         93.0797
   693.96         93.3067
   694.10         93.5011
   694.24         93.6529
   694.38         93.7558
   694.52         93.8104
   694.66         93.8281
   694.80         93.8260
   694.94         93.8206
   695.08         93.8292
   695.22         93.8649
   695.36         93.9335
   695.50         94.0401
   695.64         94.1939
   695.78         94.4022
   695.92         94.6654
   696.06         94.9823
   696.20         95.3481
   696.34         95.7443
   696.48         96.1347
   696.62         96.4668
   696.76         96.6885
   696.90         96.7689
   697.04         96.7069
   697.18         96.5253
   697.32         96.2593
   697.46         95.9478
   697.60         95.6266
   697.74         95.3262
   697.88         95.0714
   698.02         94.8821
   698.16         94.7721
   698.30         94.7442
   698.44         94.7883
   698.58         94.8832
   698.72         94.9960
   698.86         95.0843
   699.00         95.1087
   699.14         95.0439
   699.28         94.8853
   699.42         94.6586
   699.56         94.4108
   699.70         94.1858
   699.84         94.0108
   699.98         93.9044
   700.12         93.8783
   700.26         93.9236
   700.40         94.0148
   700.54         94.1305
   700.68         94.2624
   700.82         94.4088
   700.96         94.5676
   701.10         94.7275
   701.24         94.8695
   701.38         94.9799
   701.52         95.0620
   701.66         95.1337
   701.80         95.2155
   701.94         95.3246
   702.08         95.4763
   702.22         95.6819
   702.36         95.9411
   702.50         96.2376
   702.64         96.5429
   702.78         96.8258
   702.92         97.0721
   703.06         97.2989
   703.20         97.5409
   703.34         97.8264
   703.48         98.1675
   703.62         98.5630
   703.76         99.0013
   703.90         99.4625
   704.04         99.9110
   704.18         100.2966
   704.32         100.5733
   704.46         100.7086
   704.60         100.6807
   704.74         100.4798
   704.88         100.1115
   705.02         99.5983
   705.16         98.9713
   705.30         98.2662
   705.44         97.5244
   705.58         96.7857
   705.72         96.0831
   705.86         95.4492
   706.00         94.9201
   706.14         94.5300
   706.28         94.2975
   706.42         94.2261
   706.56         94.3144
   706.70         94.5590
   706.84         94.9565
   706.98         95.4922
   707.12         96.1163
   707.26         96.7453
   707.40         97.2895
   707.54         97.6731
   707.68         97.8400
   707.82         97.7569
   707.96         97.4193
   708.10         96.8563
   708.24         96.1271
   708.38         95.3083
   708.52         94.4729
   708.66         93.6813
   708.80         92.9779
   708.94         92.3861
   709.08         91.9153
   709.22         91.5652
   709.36         91.3199
   709.50         91.1499
   709.64         91.0196
   709.78         90.8951
   709.92         90.7546
   710.06         90.6032
   710.20         90.4675
   710.34         90.3799
   710.48         90.3682
   710.62         90.4466
   710.76         90.6150
   710.90         90.8669
   711.04         91.1921
   711.18         91.5652
   711.32         91.9399
   711.46         92.2575
   711.60         92.4660
   711.74         92.5277
   711.88         92.4181
   712.02         92.1329
   712.16         91.6923
   712.30         91.1382
   712.44         90.5218
   712.58         89.8987
   712.72         89.3276
   712.86         88.8585
   713.00         88.5237
   713.14         88.3380
   713.28         88.2976
   713.42         88.3807
   713.56         88.5532
   713.70         88.7734
   713.84         88.9981
   713.98         89.1956
   714.12         89.3583
   714.26         89.4979
   714.40         89.6322
   714.54         89.7831
   714.68         89.9661
   714.82         90.1743
   714.96         90.3905
   715.10         90.5992
   715.24         90.7868
   715.38         90.9464
   715.52         91.0782
   715.66         91.1871
   715.80         91.2757
   715.94         91.3425
   716.08         91.3860
   716.22         91.4094
   716.36         91.4217
   716.50         91.4311
   716.64         91.4351
   716.78         91.4171
   716.92         91.3509
   717.06         91.2209
   717.20         91.0225
   717.34         90.7390
   717.48         90.3470
   717.62         89.8399
   717.76         89.2310
   717.90         88.5447
   718.04         87.8101
   718.18         87.0660
   718.32         86.3600
   718.46         85.7355
   718.60         85.2282
   718.74         84.8628
   718.88         84.6483
   719.02         84.5842
   719.16         84.6641
   719.30         84.8696
   719.44         85.1667
   719.58         85.5151
   719.72         85.8844
   719.86         86.2557
   720.00         86.6217
   720.14         86.9999
   720.28         87.4259
   720.42         87.9311
   720.56         88.5315
   720.70         89.2327
   720.84         90.0360
   720.98         90.9274
   721.12         91.8664
   721.26         92.7996
   721.40         93.6826
   721.54         94.4807
   721.68         95.1640
   721.82         95.7063
   721.96         96.0901
   722.10         96.3175
   722.24         96.4103
   722.38         96.4039
   722.52         96.3378
   722.66         96.2439
   722.80         96.1365
   722.94         96.0175
   723.08         95.8903
   723.22         95.7588
   723.36         95.6185
   723.50         95.4653
   723.64         95.3076
   723.78         95.1513
   723.92         94.9879
   724.06         94.7953
   724.20         94.5410
   724.34         94.2094
   724.48         93.8219
   724.62         93.4164
   724.76         93.0208
   724.90         92.6460
   725.04         92.3013
   725.18         92.0058
   725.32         91.7760
   725.46         91.6210
   725.60         91.5499
   725.74         91.5726
   725.88         91.6892
   726.02         91.8891
   726.16         92.1560
   726.30         92.4620
   726.44         92.7627
   726.58         93.0175
   726.72         93.2144
   726.86         93.3642
   727.00         93.4824
   727.14         93.5737
   727.28         93.6261
   727.42         93.6248
   727.56         93.5661
   727.70         93.4552
   727.84         93.2975
   727.98         93.0916
   728.12         92.8363
   728.26         92.5391
   728.40         92.2199
   728.54         91.9071
   728.68         91.6304
   728.82         91.4165
   728.96         91.2835
   729.10         91.2371
   729.24         91.2754
   729.38         91.3887
   729.52         91.5557
   729.66         91.7479
   729.80         91.9407
   729.94         92.1151
   730.08         92.2568
   730.22         92.3558
   730.36         92.4047
   730.50         92.4008
   730.64         92.3505
   730.78         92.2719
   730.92         92.1908
   731.06         92.1277
   731.20         92.0872
   731.34         92.0597
   731.48         92.0357
   731.62         92.0120
   731.76         91.9896
   731.90         91.9720
   732.04         91.9613
   732.18         91.9548
   732.32         91.9496
   732.46         91.9512
   732.60         91.9701
   732.74         92.0148
   732.88         92.0860
   733.02         92.1763
   733.16         92.2757
   733.30         92.3736
   733.44         92.4612
   733.58         92.5329
   733.72         92.5767
   733.86         92.5729
   734.00         92.5048
   734.14         92.3642
   734.28         92.1442
   734.42         91.8355
   734.56         91.4337
   734.70         90.9512
   734.84         90.4191
   734.98         89.8756
   735.12         89.3531
   735.26         88.8761
   735.40         88.4649
   735.54         88.1359
   735.68         87.8993
   735.82         87.7604
   735.96         87.7229
   736.10         87.7935
   736.24         87.9755
   736.38         88.2618
   736.52         88.6433
   736.66         89.1081
   736.80         89.6356
   736.94         90.1961
   737.08         90.7520
   737.22         91.2664
   737.36         91.7057
   737.50         92.0340
   737.64         92.2183
   737.78         92.2437
   737.92         92.1228
   738.06         91.8856
   738.20         91.5660
   738.34         91.2017
   738.48         90.8377
   738.62         90.5179
   738.76         90.2792
   738.90         90.1522
   739.04         90.1614
   739.18         90.3220
   739.32         90.6263
   739.46         91.0396
   739.60         91.5079
   739.74         91.9678
   739.88         92.3619
   740.02         92.6441
   740.16         92.7815
   740.30         92.7599
   740.44         92.5835
   740.58         92.2700
   740.72         91.8470
   740.86         91.3506
   741.00         90.8265
   741.14         90.3245
   741.28         89.8879
   741.42         89.5494
   741.56         89.3331
   741.70         89.2485
   741.84         89.2795
   741.98         89.3906
   742.12         89.5461
   742.26         89.7163
   742.40         89.8758
   742.54         90.0051
   742.68         90.0921
   742.82         90.1342
   742.96         90.1342
   743.10         90.0921
   743.24         90.0051
   743.38         89.8758
   743.52         89.7163
   743.66         89.5461
   743.80         89.3906
   743.94         89.2795
   744.08         89.2485
   744.22         89.3331
