# File HD158659
# Wavelength [nm]    Normalized Amplitude
   349.70         56.8187
   349.84         56.9892
   349.98         57.1683
   350.12         57.3416
   350.26         57.4959
   350.40         57.6322
   350.54         57.7565
   350.68         57.8688
   350.82         57.9625
   350.96         58.0243
   351.10         58.0451
   351.24         58.0243
   351.38         57.9625
   351.52         57.8688
   351.66         57.7565
   351.80         57.6322
   351.94         57.4959
   352.08         57.3416
   352.22         57.1683
   352.36         56.9892
   352.50         56.8187
   352.64         56.6567
   352.78         56.4995
   352.92         56.3552
   353.06         56.2364
   353.20         56.1528
   353.34         56.1142
   353.48         56.1312
   353.62         56.2050
   353.76         56.3279
   353.90         56.4838
   354.04         56.6518
   354.18         56.8133
   354.32         56.9428
   354.46         57.0141
   354.60         57.0058
   354.74         56.9025
   354.88         56.7075
   355.02         56.4382
   355.16         56.1153
   355.30         55.7638
   355.44         55.4160
   355.58         55.1066
   355.72         54.8689
   355.86         54.7268
   356.00         54.6788
   356.14         54.6996
   356.28         54.7570
   356.42         54.8327
   356.56         54.9257
   356.70         55.0390
   356.84         55.1662
   356.98         55.2902
   357.12         55.4058
   357.26         55.5244
   357.40         55.6574
   357.54         55.8109
   357.68         55.9846
   357.82         56.1704
   357.96         56.3545
   358.10         56.5217
   358.24         56.6632
   358.38         56.7732
   358.52         56.8447
   358.66         56.8806
   358.80         56.8940
   358.94         56.8991
   359.08         56.9070
   359.22         56.9176
   359.36         56.9095
   359.50         56.8559
   359.64         56.7412
   359.78         56.5642
   359.92         56.3260
   360.06         56.0193
   360.20         55.6437
   360.34         55.2133
   360.48         54.7507
   360.62         54.2900
   360.76         53.8769
   360.90         53.5537
   361.04         53.3474
   361.18         53.2710
   361.32         53.3214
   361.46         53.4746
   361.60         53.6905
   361.74         53.9178
   361.88         54.0989
   362.02         54.1894
   362.16         54.1681
   362.30         54.0274
   362.44         53.7780
   362.58         53.4475
   362.72         53.0692
   362.86         52.6854
   363.00         52.3432
   363.14         52.0862
   363.28         51.9507
   363.42         51.9479
   363.56         52.0614
   363.70         52.2632
   363.84         52.5221
   363.98         52.8059
   364.12         53.0849
   364.26         53.3347
   364.40         53.5367
   364.54         53.6822
   364.68         53.7791
   364.82         53.8418
   364.96         53.8832
   365.10         53.9173
   365.24         53.9525
   365.38         53.9883
   365.52         54.0230
   365.66         54.0509
   365.80         54.0612
   365.94         54.0367
   366.08         53.9593
   366.22         53.8270
   366.36         53.6495
   366.50         53.4391
   366.64         53.2097
   366.78         52.9758
   366.92         52.7537
   367.06         52.5562
   367.20         52.3958
   367.34         52.2887
   367.48         52.2437
   367.62         52.2554
   367.76         52.3110
   367.90         52.3960
   368.04         52.4935
   368.18         52.5930
   368.32         52.6919
   368.46         52.7790
   368.60         52.8252
   368.74         52.8008
   368.88         52.6913
   369.02         52.4993
   369.16         52.2355
   369.30         51.9056
   369.44         51.5146
   369.58         51.0768
   369.72         50.6171
   369.86         50.1643
   370.00         49.7472
   370.14         49.3900
   370.28         49.1053
   370.42         48.8992
   370.56         48.7792
   370.70         48.7442
   370.84         48.7804
   370.98         48.8635
   371.12         48.9586
   371.26         49.0378
   371.40         49.0963
   371.54         49.1423
   371.68         49.1803
   371.82         49.2051
   371.96         49.2141
   372.10         49.2150
   372.24         49.2177
   372.38         49.2263
   372.52         49.2394
   372.66         49.2594
   372.80         49.2897
   372.94         49.3292
   373.08         49.3857
   373.22         49.4747
   373.36         49.5979
   373.50         49.7423
   373.64         49.8876
   373.78         50.0051
   373.92         50.0671
   374.06         50.0570
   374.20         49.9664
   374.34         49.7912
   374.48         49.5346
   374.62         49.2163
   374.76         48.8728
   374.90         48.5513
   375.04         48.2970
   375.18         48.1417
   375.32         48.1026
   375.46         48.1835
   375.60         48.3765
   375.74         48.6542
   375.88         48.9543
   376.02         49.1916
   376.16         49.2964
   376.30         49.2399
   376.44         49.0333
   376.58         48.7173
   376.72         48.3528
   376.86         48.0104
   377.00         47.7632
   377.14         47.6748
   377.28         47.7831
   377.42         48.0966
   377.56         48.5936
   377.70         49.2255
   377.84         49.9335
   377.98         50.6553
   378.12         51.3161
   378.26         51.8333
   378.40         52.1314
   378.54         52.1584
   378.68         51.9023
   378.82         51.3978
   378.96         50.7112
   379.10         49.9206
   379.24         49.1050
   379.38         48.3408
   379.52         47.6932
   379.66         47.2097
   379.80         46.9234
   379.94         46.8588
   380.08         47.0250
   380.22         47.4051
   380.36         47.9632
   380.50         48.6508
   380.64         49.3958
   380.78         50.1052
   380.92         50.6906
   381.06         51.0923
   381.20         51.2952
   381.34         51.3210
   381.48         51.2036
   381.62         50.9783
   381.76         50.6812
   381.90         50.3474
   382.04         50.0003
   382.18         49.6430
   382.32         49.2553
   382.46         48.8025
   382.60         48.2515
   382.74         47.5857
   382.88         46.8193
   383.02         45.9998
   383.16         45.1943
   383.30         44.4749
   383.44         43.9110
   383.58         43.5670
   383.72         43.4952
   383.86         43.7201
   384.00         44.2244
   384.14         44.9567
   384.28         45.8518
   384.42         46.8366
   384.56         47.8295
   384.70         48.7497
   384.84         49.5359
   384.98         50.1583
   385.12         50.6185
   385.26         50.9427
   385.40         51.1645
   385.54         51.3104
   385.68         51.3947
   385.82         51.4199
   385.96         51.3776
   386.10         51.2557
   386.24         51.0552
   386.38         50.7951
   386.52         50.5043
   386.66         50.2103
   386.80         49.9268
   386.94         49.6526
   387.08         49.3783
   387.22         49.0924
   387.36         48.7807
   387.50         48.4170
   387.64         47.9599
   387.78         47.3658
   387.92         46.6152
   388.06         45.7279
   388.20         44.7543
   388.34         43.7616
   388.48         42.8261
   388.62         42.0295
   388.76         41.4531
   388.90         41.1632
   389.04         41.1972
   389.18         41.5570
   389.32         42.2082
   389.46         43.0843
   389.60         44.1057
   389.74         45.1960
   389.88         46.2794
   390.02         47.2825
   390.16         48.1482
   390.30         48.8446
   390.44         49.3703
   390.58         49.7456
   390.72         49.9998
   390.86         50.1574
   391.00         50.2292
   391.14         50.2263
   391.28         50.1683
   391.42         50.0671
   391.56         49.9228
   391.70         49.7371
   391.84         49.5160
   391.98         49.2629
   392.12         48.9781
   392.26         48.6697
   392.40         48.3543
   392.54         48.0464
   392.68         47.7647
   392.82         47.5273
   392.96         47.3402
   393.10         47.2042
   393.24         47.1177
   393.38         47.0777
   393.52         47.0753
   393.66         47.0993
   393.80         47.1472
   393.94         47.2170
   394.08         47.2955
   394.22         47.3668
   394.36         47.4227
   394.50         47.4555
   394.64         47.4549
   394.78         47.4197
   394.92         47.3568
   395.06         47.2640
   395.20         47.1246
   395.34         46.9166
   395.48         46.6090
   395.62         46.1643
   395.76         45.5524
   395.90         44.7601
   396.04         43.7965
   396.18         42.6993
   396.32         41.5336
   396.46         40.3794
   396.60         39.3180
   396.74         38.4264
   396.88         37.7755
   397.02         37.4205
   397.16         37.3836
   397.30         37.6521
   397.44         38.1888
   397.58         38.9360
   397.72         39.8212
   397.86         40.7690
   398.00         41.7101
   398.14         42.5874
   398.28         43.3582
   398.42         44.0000
   398.56         44.5112
   398.70         44.9008
   398.84         45.1820
   398.98         45.3711
   399.12         45.4807
   399.26         45.5191
   399.40         45.4952
   399.54         45.4210
   399.68         45.3040
   399.82         45.1442
   399.96         44.9439
   400.10         44.7147
   400.24         44.4760
   400.38         44.2489
   400.52         44.0532
   400.66         43.9023
   400.80         43.7987
   400.94         43.7357
   401.08         43.7015
   401.22         43.6754
   401.36         43.6254
   401.50         43.5173
   401.64         43.3296
   401.78         43.0593
   401.92         42.7192
   402.06         42.3347
   402.20         41.9402
   402.34         41.5689
   402.48         41.2517
   402.62         41.0212
   402.76         40.9054
   402.90         40.9161
   403.04         41.0437
   403.18         41.2602
   403.32         41.5301
   403.46         41.8203
   403.60         42.0995
   403.74         42.3357
   403.88         42.5034
   404.02         42.5930
   404.16         42.6146
   404.30         42.5941
   404.44         42.5529
   404.58         42.4997
   404.72         42.4370
   404.86         42.3645
   405.00         42.2794
   405.14         42.1795
   405.28         42.0668
   405.42         41.9468
   405.56         41.8197
   405.70         41.6788
   405.84         41.5176
   405.98         41.3362
   406.12         41.1378
   406.26         40.9199
   406.40         40.6791
   406.54         40.4248
   406.68         40.1769
   406.82         39.9561
   406.96         39.7762
   407.10         39.6422
   407.24         39.5583
   407.38         39.5239
   407.52         39.5282
   407.66         39.5538
   407.80         39.5795
   407.94         39.5828
   408.08         39.5393
   408.22         39.4245
   408.36         39.2248
   408.50         38.9404
   408.64         38.5772
   408.78         38.1362
   408.92         37.6104
   409.06         37.0004
   409.20         36.3213
   409.34         35.5947
   409.48         34.8489
   409.62         34.1215
   409.76         33.4612
   409.90         32.9184
   410.04         32.5312
   410.18         32.3291
   410.32         32.3307
   410.46         32.5318
   410.60         32.9061
   410.74         33.4176
   410.88         34.0228
   411.02         34.6701
   411.16         35.3040
   411.30         35.8797
   411.44         36.3711
   411.58         36.7693
   411.72         37.0839
   411.86         37.3360
   412.00         37.5484
   412.14         37.7408
   412.28         37.9252
   412.42         38.1044
   412.56         38.2687
   412.70         38.4021
   412.84         38.4950
   412.98         38.5347
   413.12         38.5035
   413.26         38.3913
   413.40         38.2003
   413.54         37.9426
   413.68         37.6377
   413.82         37.3133
   413.96         37.0018
   414.10         36.7286
   414.24         36.5098
   414.38         36.3546
   414.52         36.2608
   414.66         36.2187
   414.80         36.2171
   414.94         36.2439
   415.08         36.2869
   415.22         36.3357
   415.36         36.3843
   415.50         36.4303
   415.64         36.4695
   415.78         36.4977
   415.92         36.5158
   416.06         36.5314
   416.20         36.5536
   416.34         36.5847
   416.48         36.6210
   416.62         36.6563
   416.76         36.6818
   416.90         36.6887
   417.04         36.6691
   417.18         36.6179
   417.32         36.5408
   417.46         36.4472
   417.60         36.3404
   417.74         36.2198
   417.88         36.0885
   418.02         35.9541
   418.16         35.8247
   418.30         35.7067
   418.44         35.6040
   418.58         35.5199
   418.72         35.4573
   418.86         35.4163
   419.00         35.3923
   419.14         35.3811
   419.28         35.3810
   419.42         35.3897
   419.56         35.4038
   419.70         35.4211
   419.84         35.4404
   419.98         35.4582
   420.12         35.4672
   420.26         35.4629
   420.40         35.4506
   420.54         35.4392
   420.68         35.4316
   420.82         35.4237
   420.96         35.4087
   421.10         35.3797
   421.24         35.3362
   421.38         35.2881
   421.52         35.2477
   421.66         35.2210
   421.80         35.2087
   421.94         35.2044
   422.08         35.1957
   422.22         35.1725
   422.36         35.1296
   422.50         35.0637
   422.64         34.9735
   422.78         34.8636
   422.92         34.7432
   423.06         34.6205
   423.20         34.5020
   423.34         34.3936
   423.48         34.3006
   423.62         34.2275
   423.76         34.1774
   423.90         34.1508
   424.04         34.1438
   424.18         34.1470
   424.32         34.1486
   424.46         34.1401
   424.60         34.1166
   424.74         34.0789
   424.88         34.0328
   425.02         33.9824
   425.16         33.9271
   425.30         33.8665
   425.44         33.8033
   425.58         33.7420
   425.72         33.6873
   425.86         33.6455
   426.00         33.6193
   426.14         33.6045
   426.28         33.5918
   426.42         33.5675
   426.56         33.5199
   426.70         33.4443
   426.84         33.3419
   426.98         33.2188
   427.12         33.0840
   427.26         32.9475
   427.40         32.8196
   427.54         32.7086
   427.68         32.6218
   427.82         32.5667
   427.96         32.5468
   428.10         32.5586
   428.24         32.5949
   428.38         32.6505
   428.52         32.7225
   428.66         32.8039
   428.80         32.8855
   428.94         32.9584
   429.08         33.0154
   429.22         33.0551
   429.36         33.0795
   429.50         33.0895
   429.64         33.0833
   429.78         33.0583
   429.92         33.0160
   430.06         32.9622
   430.20         32.9026
   430.34         32.8411
   430.48         32.7787
   430.62         32.7149
   430.76         32.6508
   430.90         32.5902
   431.04         32.5345
   431.18         32.4796
   431.32         32.4227
   431.46         32.3655
   431.60         32.3057
   431.74         32.2398
   431.88         32.1667
   432.02         32.0839
   432.16         31.9887
   432.30         31.8796
   432.44         31.7525
   432.58         31.5956
   432.72         31.3866
   432.86         31.0981
   433.00         30.7066
   433.14         30.2021
   433.28         29.5967
   433.42         28.9216
   433.56         28.2218
   433.70         27.5484
   433.84         26.9532
   433.98         26.4817
   434.12         26.1607
   434.26         26.0024
   434.40         26.0140
   434.54         26.1926
   434.68         26.5210
   434.82         26.9711
   434.96         27.5054
   435.10         28.0781
   435.24         28.6419
   435.38         29.1591
   435.52         29.6075
   435.66         29.9784
   435.80         30.2750
   435.94         30.5083
   436.08         30.6907
   436.22         30.8303
   436.36         30.9298
   436.50         30.9925
   436.64         31.0245
   436.78         31.0329
   436.92         31.0266
   437.06         31.0116
   437.20         30.9879
   437.34         30.9555
   437.48         30.9127
   437.62         30.8508
   437.76         30.7549
   437.90         30.6142
   438.04         30.4332
   438.18         30.2287
   438.32         30.0222
   438.46         29.8362
   438.60         29.6916
   438.74         29.6052
   438.88         29.5845
   439.02         29.6272
   439.16         29.7266
   439.30         29.8703
   439.44         30.0395
   439.58         30.2116
   439.72         30.3652
   439.86         30.4852
   440.00         30.5602
   440.14         30.5810
   440.28         30.5448
   440.42         30.4574
   440.56         30.3342
   440.70         30.1941
   440.84         30.0517
   440.98         29.9149
   441.12         29.7851
   441.26         29.6630
   441.40         29.5483
   441.54         29.4365
   441.68         29.3233
   441.82         29.2095
   441.96         29.0961
   442.10         28.9819
   442.24         28.8676
   442.38         28.7601
   442.52         28.6669
   442.66         28.5904
   442.80         28.5312
   442.94         28.4916
   443.08         28.4766
   443.22         28.4903
   443.36         28.5317
   443.50         28.5939
   443.64         28.6632
   443.78         28.7275
   443.92         28.7827
   444.06         28.8269
   444.20         28.8582
   444.34         28.8788
   444.48         28.8947
   444.62         28.9087
   444.76         28.9196
   444.90         28.9315
   445.04         28.9512
   445.18         28.9786
   445.32         29.0056
   445.46         29.0201
   445.60         29.0087
   445.74         28.9535
   445.88         28.8304
   446.02         28.6199
   446.16         28.3170
   446.30         27.9355
   446.44         27.5042
   446.58         27.0575
   446.72         26.6295
   446.86         26.2536
   447.00         25.9598
   447.14         25.7700
   447.28         25.6945
   447.42         25.7344
   447.56         25.8820
   447.70         26.1156
   447.84         26.4044
   447.98         26.7156
   448.12         27.0190
   448.26         27.2903
   448.40         27.5117
   448.54         27.6754
   448.68         27.7868
   448.82         27.8588
   448.96         27.9061
   449.10         27.9406
   449.24         27.9651
   449.38         27.9737
   449.52         27.9621
   449.66         27.9337
   449.80         27.8951
   449.94         27.8502
   450.08         27.7979
   450.22         27.7344
   450.36         27.6602
   450.50         27.5795
   450.64         27.4969
   450.78         27.4176
   450.92         27.3469
   451.06         27.2903
   451.20         27.2497
   451.34         27.2214
   451.48         27.1998
   451.62         27.1821
   451.76         27.1662
   451.90         27.1483
   452.04         27.1265
   452.18         27.1012
   452.32         27.0711
   452.46         27.0309
   452.60         26.9766
   452.74         26.9082
   452.88         26.8296
   453.02         26.7494
   453.16         26.6801
   453.30         26.6328
   453.44         26.6134
   453.58         26.6217
   453.72         26.6497
   453.86         26.6829
   454.00         26.7096
   454.14         26.7262
   454.28         26.7350
   454.42         26.7387
   454.56         26.7373
   454.70         26.7309
   454.84         26.7254
   454.98         26.7273
   455.12         26.7377
   455.26         26.7555
   455.40         26.7778
   455.54         26.7965
   455.68         26.8020
   455.82         26.7853
   455.96         26.7356
   456.10         26.6466
   456.24         26.5189
   456.38         26.3588
   456.52         26.1797
   456.66         26.0014
   456.80         25.8424
   456.94         25.7175
   457.08         25.6370
   457.22         25.6053
   457.36         25.6212
   457.50         25.6775
   457.64         25.7593
   457.78         25.8495
   457.92         25.9343
   458.06         26.0017
   458.20         26.0422
   458.34         26.0503
   458.48         26.0257
   458.62         25.9730
   458.76         25.9014
   458.90         25.8202
   459.04         25.7395
   459.18         25.6696
   459.32         25.6163
   459.46         25.5816
   459.60         25.5661
   459.74         25.5665
   459.88         25.5734
   460.02         25.5750
   460.16         25.5638
   460.30         25.5373
   460.44         25.4949
   460.58         25.4359
   460.72         25.3632
   460.86         25.2845
   461.00         25.2102
   461.14         25.1508
   461.28         25.1123
   461.42         25.0969
   461.56         25.1036
   461.70         25.1244
   461.84         25.1446
   461.98         25.1494
   462.12         25.1315
   462.26         25.0906
   462.40         25.0282
   462.54         24.9464
   462.68         24.8483
   462.82         24.7388
   462.96         24.6221
   463.10         24.5001
   463.24         24.3780
   463.38         24.2644
   463.52         24.1637
   463.66         24.0698
   463.80         23.9711
   463.94         23.8608
   464.08         23.7411
   464.22         23.6191
   464.36         23.5062
   464.50         23.4173
   464.64         23.3643
   464.78         23.3538
   464.92         23.3874
   465.06         23.4621
   465.20         23.5692
   465.34         23.6953
   465.48         23.8298
   465.62         23.9684
   465.76         24.1099
   465.90         24.2530
   466.04         24.3955
   466.18         24.5307
   466.32         24.6511
   466.46         24.7533
   466.60         24.8374
   466.74         24.9037
   466.88         24.9498
   467.02         24.9695
   467.16         24.9513
   467.30         24.8833
   467.44         24.7616
   467.58         24.5940
   467.72         24.3945
   467.86         24.1786
   468.00         23.9635
   468.14         23.7684
   468.28         23.6097
   468.42         23.4959
   468.56         23.4295
   468.70         23.4085
   468.84         23.4249
   468.98         23.4706
   469.12         23.5395
   469.26         23.6241
   469.40         23.7143
   469.54         23.7972
   469.68         23.8591
   469.82         23.8908
   469.96         23.8904
   470.10         23.8621
   470.24         23.8126
   470.38         23.7495
   470.52         23.6786
   470.66         23.6016
   470.80         23.5212
   470.94         23.4448
   471.08         23.3796
   471.22         23.3297
   471.36         23.2960
   471.50         23.2755
   471.64         23.2641
   471.78         23.2590
   471.92         23.2570
   472.06         23.2539
   472.20         23.2459
   472.34         23.2310
   472.48         23.2084
   472.62         23.1788
   472.76         23.1439
   472.90         23.1069
   473.04         23.0707
   473.18         23.0343
   473.32         22.9956
   473.46         22.9567
   473.60         22.9194
   473.74         22.8800
   473.88         22.8358
   474.02         22.7868
   474.16         22.7350
   474.30         22.6834
   474.44         22.6347
   474.58         22.5885
   474.72         22.5423
   474.86         22.4948
   475.00         22.4460
   475.14         22.3980
   475.28         22.3537
   475.42         22.3139
   475.56         22.2763
   475.70         22.2383
   475.84         22.2006
   475.98         22.1670
   476.12         22.1411
   476.26         22.1246
   476.40         22.1176
   476.54         22.1208
   476.68         22.1337
   476.82         22.1540
   476.96         22.1797
   477.10         22.2089
   477.24         22.2388
   477.38         22.2677
   477.52         22.2956
   477.66         22.3243
   477.80         22.3565
   477.94         22.3939
   478.08         22.4366
   478.22         22.4863
   478.36         22.5438
   478.50         22.6076
   478.64         22.6741
   478.78         22.7357
   478.92         22.7847
   479.06         22.8169
   479.20         22.8285
   479.34         22.8174
   479.48         22.7844
   479.62         22.7332
   479.76         22.6647
   479.90         22.5786
   480.04         22.4784
   480.18         22.3679
   480.32         22.2472
   480.46         22.1159
   480.60         21.9783
   480.74         21.8407
   480.88         21.7072
   481.02         21.5805
   481.16         21.4671
   481.30         21.3754
   481.44         21.3123
   481.58         21.2817
   481.72         21.2798
   481.86         21.2974
   482.00         21.3286
   482.14         21.3709
   482.28         21.4230
   482.42         21.4820
   482.56         21.5454
   482.70         21.6113
   482.84         21.6740
   482.98         21.7275
   483.12         21.7708
   483.26         21.8035
   483.40         21.8227
   483.54         21.8251
   483.68         21.8114
   483.82         21.7826
   483.96         21.7356
   484.10         21.6635
   484.24         21.5581
   484.38         21.4151
   484.52         21.2358
   484.66         21.0217
   484.80         20.7701
   484.94         20.4760
   485.08         20.1380
   485.22         19.7636
   485.36         19.3710
   485.50         18.9849
   485.64         18.6326
   485.78         18.3410
   485.92         18.1313
   486.06         18.0168
   486.20         18.0018
   486.34         18.0813
   486.48         18.2410
   486.62         18.4590
   486.76         18.7113
   486.90         18.9754
   487.04         19.2316
   487.18         19.4621
   487.32         19.6524
   487.46         19.7964
   487.60         19.8981
   487.74         19.9707
   487.88         20.0296
   488.02         20.0864
   488.16         20.1466
   488.30         20.2116
   488.44         20.2807
   488.58         20.3523
   488.72         20.4239
   488.86         20.4933
   489.00         20.5580
   489.14         20.6151
   489.28         20.6621
   489.42         20.6967
   489.56         20.7154
   489.70         20.7142
   489.84         20.6906
   489.98         20.6446
   490.12         20.5813
   490.26         20.5102
   490.40         20.4402
   490.54         20.3773
   490.68         20.3234
   490.82         20.2752
   490.96         20.2234
   491.10         20.1572
   491.24         20.0689
   491.38         19.9559
   491.52         19.8211
   491.66         19.6713
   491.80         19.5175
   491.94         19.3718
   492.08         19.2467
   492.22         19.1555
   492.36         19.1097
   492.50         19.1150
   492.64         19.1708
   492.78         19.2725
   492.92         19.4112
   493.06         19.5728
   493.20         19.7405
   493.34         19.8969
   493.48         20.0273
   493.62         20.1241
   493.76         20.1909
   493.90         20.2376
   494.04         20.2736
   494.18         20.3055
   494.32         20.3365
   494.46         20.3670
   494.60         20.3958
   494.74         20.4197
   494.88         20.4337
   495.02         20.4327
   495.16         20.4133
   495.30         20.3741
   495.44         20.3173
   495.58         20.2464
   495.72         20.1659
   495.86         20.0808
   496.00         19.9975
   496.14         19.9215
   496.28         19.8567
   496.42         19.8039
   496.56         19.7609
   496.70         19.7252
   496.84         19.6971
   496.98         19.6785
   497.12         19.6696
   497.26         19.6684
   497.40         19.6695
   497.54         19.6673
   497.68         19.6596
   497.82         19.6468
   497.96         19.6321
   498.10         19.6200
   498.24         19.6137
   498.38         19.6135
   498.52         19.6176
   498.66         19.6234
   498.80         19.6286
   498.94         19.6316
   499.08         19.6306
   499.22         19.6238
   499.36         19.6103
   499.50         19.5882
   499.64         19.5550
   499.78         19.5091
   499.92         19.4503
   500.06         19.3804
   500.20         19.3030
   500.34         19.2232
   500.48         19.1454
   500.62         19.0713
   500.76         19.0012
   500.90         18.9362
   501.04         18.8765
   501.18         18.8217
   501.32         18.7730
   501.46         18.7329
   501.60         18.7039
   501.74         18.6871
   501.88         18.6822
   502.02         18.6872
   502.16         18.7000
   502.30         18.7191
   502.44         18.7412
   502.58         18.7629
   502.72         18.7826
   502.86         18.7996
   503.00         18.8132
   503.14         18.8216
   503.28         18.8228
   503.42         18.8158
   503.56         18.7978
   503.70         18.7631
   503.84         18.7092
   503.98         18.6393
   504.12         18.5577
   504.26         18.4673
   504.40         18.3709
   504.54         18.2733
   504.68         18.1818
   504.82         18.1044
   504.96         18.0475
   505.10         18.0148
   505.24         18.0076
   505.38         18.0221
   505.52         18.0508
   505.66         18.0860
   505.80         18.1218
   505.94         18.1552
   506.08         18.1847
   506.22         18.2086
   506.36         18.2268
   506.50         18.2403
   506.64         18.2491
   506.78         18.2524
   506.92         18.2478
   507.06         18.2344
   507.20         18.2129
   507.34         18.1831
   507.48         18.1439
   507.62         18.0948
   507.76         18.0359
   507.90         17.9673
   508.04         17.8917
   508.18         17.8152
   508.32         17.7448
   508.46         17.6844
   508.60         17.6356
   508.74         17.5990
   508.88         17.5746
   509.02         17.5617
   509.16         17.5596
   509.30         17.5679
   509.44         17.5857
   509.58         17.6105
   509.72         17.6394
   509.86         17.6684
   510.00         17.6935
   510.14         17.7123
   510.28         17.7228
   510.42         17.7249
   510.56         17.7210
   510.70         17.7151
   510.84         17.7084
   510.98         17.6994
   511.12         17.6876
   511.26         17.6752
   511.40         17.6641
   511.54         17.6545
   511.68         17.6454
   511.82         17.6348
   511.96         17.6194
   512.10         17.5960
   512.24         17.5622
   512.38         17.5176
   512.52         17.4652
   512.66         17.4100
   512.80         17.3577
   512.94         17.3136
   513.08         17.2822
   513.22         17.2636
   513.36         17.2526
   513.50         17.2434
   513.64         17.2322
   513.78         17.2177
   513.92         17.2004
   514.06         17.1797
   514.20         17.1537
   514.34         17.1214
   514.48         17.0834
   514.62         17.0414
   514.76         16.9962
   514.90         16.9484
   515.04         16.9002
   515.18         16.8540
   515.32         16.8112
   515.46         16.7728
   515.60         16.7390
   515.74         16.7088
   515.88         16.6806
   516.02         16.6558
   516.16         16.6378
   516.30         16.6295
   516.44         16.6320
   516.58         16.6453
   516.72         16.6664
   516.86         16.6918
   517.00         16.7194
   517.14         16.7463
   517.28         16.7687
   517.42         16.7839
   517.56         16.7912
   517.70         16.7907
   517.84         16.7812
   517.98         16.7613
   518.12         16.7311
   518.26         16.6916
   518.40         16.6446
   518.54         16.5927
   518.68         16.5397
   518.82         16.4889
   518.96         16.4430
   519.10         16.4040
   519.24         16.3715
   519.38         16.3424
   519.52         16.3133
   519.66         16.2822
   519.80         16.2474
   519.94         16.2079
   520.08         16.1649
   520.22         16.1213
   520.36         16.0787
   520.50         16.0384
   520.64         16.0029
   520.78         15.9738
   520.92         15.9524
   521.06         15.9397
   521.20         15.9363
   521.34         15.9422
   521.48         15.9552
   521.62         15.9727
   521.76         15.9908
   521.90         16.0055
   522.04         16.0161
   522.18         16.0237
   522.32         16.0281
   522.46         16.0279
   522.60         16.0237
   522.74         16.0167
   522.88         16.0069
   523.02         15.9948
   523.16         15.9826
   523.30         15.9727
   523.44         15.9665
   523.58         15.9648
   523.72         15.9659
   523.86         15.9662
   524.00         15.9611
   524.14         15.9464
   524.28         15.9196
   524.42         15.8799
   524.56         15.8296
   524.70         15.7724
   524.84         15.7122
   524.98         15.6531
   525.12         15.5997
   525.26         15.5564
   525.40         15.5241
   525.54         15.5003
   525.68         15.4819
   525.82         15.4653
   525.96         15.4475
   526.10         15.4264
   526.24         15.4002
   526.38         15.3678
   526.52         15.3291
   526.66         15.2866
   526.80         15.2436
   526.94         15.2033
   527.08         15.1688
   527.22         15.1426
   527.36         15.1259
   527.50         15.1186
   527.64         15.1193
   527.78         15.1252
   527.92         15.1333
   528.06         15.1397
   528.20         15.1432
   528.34         15.1458
   528.48         15.1519
   528.62         15.1661
   528.76         15.1916
   528.90         15.2291
   529.04         15.2773
   529.18         15.3327
   529.32         15.3900
   529.46         15.4432
   529.60         15.4864
   529.74         15.5141
   529.88         15.5224
   530.02         15.5098
   530.16         15.4766
   530.30         15.4241
   530.44         15.3556
   530.58         15.2772
   530.72         15.1958
   530.86         15.1186
   531.00         15.0522
   531.14         15.0019
   531.28         14.9706
   531.42         14.9582
   531.56         14.9624
   531.70         14.9781
   531.84         15.0004
   531.98         15.0266
   532.12         15.0551
   532.26         15.0834
   532.40         15.1083
   532.54         15.1266
   532.68         15.1360
   532.82         15.1345
   532.96         15.1228
   533.10         15.1035
   533.24         15.0796
   533.38         15.0535
   533.52         15.0284
   533.66         15.0074
   533.80         14.9930
   533.94         14.9853
   534.08         14.9826
   534.22         14.9819
   534.36         14.9806
   534.50         14.9777
   534.64         14.9726
   534.78         14.9637
   534.92         14.9509
   535.06         14.9353
   535.20         14.9188
   535.34         14.9029
   535.48         14.8873
   535.62         14.8719
   535.76         14.8555
   535.90         14.8361
   536.04         14.8123
   536.18         14.7830
   536.32         14.7467
   536.46         14.7024
   536.60         14.6495
   536.74         14.5892
   536.88         14.5238
   537.02         14.4562
   537.16         14.3896
   537.30         14.3263
   537.44         14.2690
   537.58         14.2203
   537.72         14.1800
   537.86         14.1465
   538.00         14.1180
   538.14         14.0943
   538.28         14.0762
   538.42         14.0632
   538.56         14.0541
   538.70         14.0488
   538.84         14.0475
   538.98         14.0504
   539.12         14.0569
   539.26         14.0663
   539.40         14.0785
   539.54         14.0931
   539.68         14.1085
   539.82         14.1214
   539.96         14.1281
   540.10         14.1266
   540.24         14.1152
   540.38         14.0919
   540.52         14.0575
   540.66         14.0149
   540.80         13.9687
   540.94         13.9234
   541.08         13.8827
   541.22         13.8503
   541.36         13.8295
   541.50         13.8204
   541.64         13.8203
   541.78         13.8264
   541.92         13.8371
   542.06         13.8498
   542.20         13.8606
   542.34         13.8655
   542.48         13.8615
   542.62         13.8476
   542.76         13.8257
   542.90         13.7982
   543.04         13.7682
   543.18         13.7394
   543.32         13.7139
   543.46         13.6921
   543.60         13.6715
   543.74         13.6492
   543.88         13.6237
   544.02         13.5943
   544.16         13.5601
   544.30         13.5217
   544.44         13.4804
   544.58         13.4374
   544.72         13.3942
   544.86         13.3537
   545.00         13.3196
   545.14         13.2956
   545.28         13.2848
   545.42         13.2875
   545.56         13.3006
   545.70         13.3194
   545.84         13.3394
   545.98         13.3568
   546.12         13.3679
   546.26         13.3713
   546.40         13.3675
   546.54         13.3575
   546.68         13.3417
   546.82         13.3195
   546.96         13.2911
   547.10         13.2581
   547.24         13.2230
   547.38         13.1880
   547.52         13.1534
   547.66         13.1190
   547.80         13.0838
   547.94         13.0460
   548.08         13.0041
   548.22         12.9593
   548.36         12.9151
   548.50         12.8759
   548.64         12.8455
   548.78         12.8268
   548.92         12.8228
   549.06         12.8345
   549.20         12.8611
   549.34         12.9002
   549.48         12.9475
   549.62         12.9984
   549.76         13.0482
   549.90         13.0925
   550.04         13.1274
   550.18         13.1492
   550.32         13.1559
   550.46         13.1464
   550.60         13.1223
   550.74         13.0879
   550.88         13.0493
   551.02         13.0110
   551.16         12.9752
   551.30         12.9421
   551.44         12.9118
   551.58         12.8848
   551.72         12.8613
   551.86         12.8400
   552.00         12.8200
   552.14         12.8012
   552.28         12.7842
   552.42         12.7697
   552.56         12.7577
   552.70         12.7464
   552.84         12.7333
   552.98         12.7169
   553.12         12.6966
   553.26         12.6721
   553.40         12.6433
   553.54         12.6093
   553.68         12.5702
   553.82         12.5275
   553.96         12.4853
   554.10         12.4489
   554.24         12.4223
   554.38         12.4076
   554.52         12.4043
   554.66         12.4107
   554.80         12.4238
   554.94         12.4403
   555.08         12.4574
   555.22         12.4733
   555.36         12.4868
   555.50         12.4975
   555.64         12.5049
   555.78         12.5086
   555.92         12.5092
   556.06         12.5089
   556.20         12.5108
   556.34         12.5175
   556.48         12.5300
   556.62         12.5480
   556.76         12.5705
   556.90         12.5955
   557.04         12.6195
   557.18         12.6388
   557.32         12.6493
   557.46         12.6484
   557.60         12.6350
   557.74         12.6093
   557.88         12.5722
   558.02         12.5253
   558.16         12.4710
   558.30         12.4133
   558.44         12.3578
   558.58         12.3089
   558.72         12.2683
   558.86         12.2350
   559.00         12.2064
   559.14         12.1804
   559.28         12.1560
   559.42         12.1324
   559.56         12.1097
   559.70         12.0887
   559.84         12.0694
   559.98         12.0515
   560.12         12.0358
   560.26         12.0232
   560.40         12.0142
   560.54         12.0084
   560.68         12.0041
   560.82         11.9989
   560.96         11.9908
   561.10         11.9777
   561.24         11.9585
   561.38         11.9333
   561.52         11.9036
   561.66         11.8725
   561.80         11.8426
   561.94         11.8153
   562.08         11.7906
   562.22         11.7678
   562.36         11.7457
   562.50         11.7236
   562.64         11.7034
   562.78         11.6882
   562.92         11.6795
   563.06         11.6772
   563.20         11.6801
   563.34         11.6871
   563.48         11.6975
   563.62         11.7105
   563.76         11.7243
   563.90         11.7364
   564.04         11.7439
   564.18         11.7438
   564.32         11.7350
   564.46         11.7172
   564.60         11.6910
   564.74         11.6582
   564.88         11.6218
   565.02         11.5866
   565.16         11.5576
   565.30         11.5376
   565.44         11.5257
   565.58         11.5194
   565.72         11.5169
   565.86         11.5166
   566.00         11.5167
   566.14         11.5158
   566.28         11.5127
   566.42         11.5067
   566.56         11.4976
   566.70         11.4848
   566.84         11.4687
   566.98         11.4500
   567.12         11.4298
   567.26         11.4099
   567.40         11.3927
   567.54         11.3803
   567.68         11.3736
   567.82         11.3720
   567.96         11.3733
   568.10         11.3754
   568.24         11.3774
   568.38         11.3788
   568.52         11.3781
   568.66         11.3728
   568.80         11.3612
   568.94         11.3419
   569.08         11.3140
   569.22         11.2767
   569.36         11.2309
   569.50         11.1797
   569.64         11.1279
   569.78         11.0806
   569.92         11.0424
   570.06         11.0168
   570.20         11.0051
   570.34         11.0061
   570.48         11.0172
   570.62         11.0346
   570.76         11.0531
   570.90         11.0680
   571.04         11.0749
   571.18         11.0710
   571.32         11.0561
   571.46         11.0334
   571.60         11.0075
   571.74         10.9816
   571.88         10.9577
   572.02         10.9377
   572.16         10.9236
   572.30         10.9160
   572.44         10.9135
   572.58         10.9137
   572.72         10.9139
   572.86         10.9106
   573.00         10.9002
   573.14         10.8820
   573.28         10.8574
   573.42         10.8285
   573.56         10.7981
   573.70         10.7697
   573.84         10.7465
   573.98         10.7310
   574.12         10.7242
   574.26         10.7252
   574.40         10.7318
   574.54         10.7421
   574.68         10.7544
   574.82         10.7670
   574.96         10.7773
   575.10         10.7829
   575.24         10.7826
   575.38         10.7757
   575.52         10.7620
   575.66         10.7426
   575.80         10.7199
   575.94         10.6959
   576.08         10.6717
   576.22         10.6483
   576.36         10.6270
   576.50         10.6089
   576.64         10.5929
   576.78         10.5761
   576.92         10.5544
   577.06         10.5238
   577.20         10.4816
   577.34         10.4279
   577.48         10.3648
   577.62         10.2958
   577.76         10.2261
   577.90         10.1616
   578.04         10.1078
   578.18         10.0694
   578.32         10.0491
   578.46         10.0470
   578.60         10.0607
   578.74         10.0866
   578.88         10.1204
   579.02         10.1564
   579.16         10.1880
   579.30         10.2103
   579.44         10.2205
   579.58         10.2191
   579.72         10.2088
   579.86         10.1930
   580.00         10.1753
   580.14         10.1588
   580.28         10.1466
   580.42         10.1415
   580.56         10.1437
   580.70         10.1516
   580.84         10.1623
   580.98         10.1739
   581.12         10.1859
   581.26         10.1984
   581.40         10.2114
   581.54         10.2242
   581.68         10.2357
   581.82         10.2462
   581.96         10.2571
   582.10         10.2684
   582.24         10.2793
   582.38         10.2882
   582.52         10.2940
   582.66         10.2974
   582.80         10.2998
   582.94         10.3017
   583.08         10.3025
   583.22         10.2998
   583.36         10.2912
   583.50         10.2757
   583.64         10.2532
   583.78         10.2242
   583.92         10.1897
   584.06         10.1514
   584.20         10.1118
   584.34         10.0728
   584.48         10.0366
   584.62         10.0058
   584.76         9.9826
   584.90         9.9688
   585.04         9.9656
   585.18         9.9728
   585.32         9.9893
   585.46         10.0127
   585.60         10.0398
   585.74         10.0669
   585.88         10.0903
   586.02         10.1072
   586.16         10.1149
   586.30         10.1093
   586.44         10.0851
   586.58         10.0391
   586.72         9.9718
   586.86         9.8866
   587.00         9.7888
   587.14         9.6860
   587.28         9.5861
   587.42         9.4949
   587.56         9.4149
   587.70         9.3460
   587.84         9.2875
   587.98         9.2395
   588.12         9.2009
   588.26         9.1691
   588.40         9.1412
   588.54         9.1162
   588.68         9.0942
   588.82         9.0758
   588.96         9.0636
   589.10         9.0618
   589.24         9.0753
   589.38         9.1072
   589.52         9.1580
   589.66         9.2253
   589.80         9.3037
   589.94         9.3862
   590.08         9.4660
   590.22         9.5366
   590.36         9.5944
   590.50         9.6382
   590.64         9.6683
   590.78         9.6852
   590.92         9.6894
   591.06         9.6817
   591.20         9.6628
   591.34         9.6328
   591.48         9.5920
   591.62         9.5417
   591.76         9.4847
   591.90         9.4252
   592.04         9.3677
   592.18         9.3160
   592.32         9.2722
   592.46         9.2377
   592.60         9.2143
   592.74         9.2035
   592.88         9.2053
   593.02         9.2178
   593.16         9.2365
   593.30         9.2562
   593.44         9.2717
   593.58         9.2786
   593.72         9.2748
   593.86         9.2604
   594.00         9.2366
   594.14         9.2057
   594.28         9.1717
   594.42         9.1388
   594.56         9.1103
   594.70         9.0902
   594.84         9.0815
   594.98         9.0858
   595.12         9.1023
   595.26         9.1283
   595.40         9.1593
   595.54         9.1897
   595.68         9.2149
   595.82         9.2318
   595.96         9.2395
   596.10         9.2380
   596.24         9.2283
   596.38         9.2128
   596.52         9.1936
   596.66         9.1719
   596.80         9.1499
   596.94         9.1298
   597.08         9.1142
   597.22         9.1054
   597.36         9.1040
   597.50         9.1086
   597.64         9.1160
   597.78         9.1233
   597.92         9.1291
   598.06         9.1338
   598.20         9.1386
   598.34         9.1444
   598.48         9.1513
   598.62         9.1593
   598.76         9.1674
   598.90         9.1743
   599.04         9.1786
   599.18         9.1783
   599.32         9.1722
   599.46         9.1601
   599.60         9.1421
   599.74         9.1176
   599.88         9.0860
   600.02         9.0477
   600.16         9.0050
   600.30         8.9610
   600.44         8.9197
   600.58         8.8844
   600.72         8.8578
   600.86         8.8409
   601.00         8.8337
   601.14         8.8356
   601.28         8.8454
   601.42         8.8612
   601.56         8.8809
   601.70         8.9023
   601.84         8.9226
   601.98         8.9385
   602.12         8.9469
   602.26         8.9458
   602.40         8.9357
   602.54         8.9184
   602.68         8.8969
   602.82         8.8737
   602.96         8.8504
   603.10         8.8281
   603.24         8.8086
   603.38         8.7935
   603.52         8.7840
   603.66         8.7807
   603.80         8.7836
   603.94         8.7927
   604.08         8.8078
   604.22         8.8274
   604.36         8.8482
   604.50         8.8665
   604.64         8.8798
   604.78         8.8869
   604.92         8.8876
   605.06         8.8820
   605.20         8.8703
   605.34         8.8533
   605.48         8.8314
   605.62         8.8049
   605.76         8.7749
   605.90         8.7432
   606.04         8.7122
   606.18         8.6850
   606.32         8.6636
   606.46         8.6488
   606.60         8.6400
   606.74         8.6353
   606.88         8.6326
   607.02         8.6308
   607.16         8.6301
   607.30         8.6309
   607.44         8.6337
   607.58         8.6378
   607.72         8.6431
   607.86         8.6499
   608.00         8.6588
   608.14         8.6699
   608.28         8.6825
   608.42         8.6956
   608.56         8.7077
   608.70         8.7170
   608.84         8.7209
   608.98         8.7171
   609.12         8.7048
   609.26         8.6839
   609.40         8.6555
   609.54         8.6211
   609.68         8.5820
   609.82         8.5402
   609.96         8.4982
   610.10         8.4584
   610.24         8.4235
   610.38         8.3959
   610.52         8.3767
   610.66         8.3653
   610.80         8.3606
   610.94         8.3611
   611.08         8.3656
   611.22         8.3741
   611.36         8.3864
   611.50         8.4007
   611.64         8.4151
   611.78         8.4274
   611.92         8.4350
   612.06         8.4358
   612.20         8.4292
   612.34         8.4146
   612.48         8.3921
   612.62         8.3630
   612.76         8.3303
   612.90         8.2970
   613.04         8.2661
   613.18         8.2396
   613.32         8.2196
   613.46         8.2068
   613.60         8.2007
   613.74         8.2016
   613.88         8.2086
   614.02         8.2193
   614.16         8.2316
   614.30         8.2452
   614.44         8.2601
   614.58         8.2753
   614.72         8.2894
   614.86         8.3015
   615.00         8.3115
   615.14         8.3206
   615.28         8.3295
   615.42         8.3371
   615.56         8.3415
   615.70         8.3402
   615.84         8.3305
   615.98         8.3106
   616.12         8.2797
   616.26         8.2394
   616.40         8.1924
   616.54         8.1416
   616.68         8.0911
   616.82         8.0450
   616.96         8.0070
   617.10         7.9788
   617.24         7.9613
   617.38         7.9548
   617.52         7.9584
   617.66         7.9701
   617.80         7.9867
   617.94         8.0046
   618.08         8.0201
   618.22         8.0310
   618.36         8.0361
   618.50         8.0363
   618.64         8.0340
   618.78         8.0319
   618.92         8.0315
   619.06         8.0327
   619.20         8.0346
   619.34         8.0358
   619.48         8.0353
   619.62         8.0324
   619.76         8.0268
   619.90         8.0179
   620.04         8.0055
   620.18         7.9898
   620.32         7.9718
   620.46         7.9533
   620.60         7.9356
   620.74         7.9200
   620.88         7.9082
   621.02         7.9014
   621.16         7.8995
   621.30         7.9011
   621.44         7.9039
   621.58         7.9069
   621.72         7.9105
   621.86         7.9154
   622.00         7.9220
   622.14         7.9311
   622.28         7.9427
   622.42         7.9562
   622.56         7.9697
   622.70         7.9812
   622.84         7.9884
   622.98         7.9905
   623.12         7.9873
   623.26         7.9790
   623.40         7.9662
   623.54         7.9499
   623.68         7.9312
   623.82         7.9120
   623.96         7.8944
   624.10         7.8804
   624.24         7.8703
   624.38         7.8641
   624.52         7.8610
   624.66         7.8601
   624.80         7.8593
   624.94         7.8547
   625.08         7.8411
   625.22         7.8139
   625.36         7.7711
   625.50         7.7140
   625.64         7.6465
   625.78         7.5729
   625.92         7.4978
   626.06         7.4260
   626.20         7.3633
   626.34         7.3144
   626.48         7.2821
   626.62         7.2659
   626.76         7.2627
   626.90         7.2677
   627.04         7.2762
   627.18         7.2826
   627.32         7.2811
   627.46         7.2678
   627.60         7.2424
   627.74         7.2082
   627.88         7.1718
   628.02         7.1400
   628.16         7.1188
   628.30         7.1126
   628.44         7.1230
   628.58         7.1487
   628.72         7.1868
   628.86         7.2331
   629.00         7.2821
   629.14         7.3284
   629.28         7.3680
   629.42         7.3982
   629.56         7.4175
   629.70         7.4258
   629.84         7.4237
   629.98         7.4127
   630.12         7.3958
   630.26         7.3765
   630.40         7.3572
   630.54         7.3394
   630.68         7.3239
   630.82         7.3116
   630.96         7.3029
   631.10         7.2969
   631.24         7.2937
   631.38         7.2944
   631.52         7.3009
   631.66         7.3139
   631.80         7.3329
   631.94         7.3550
   632.08         7.3772
   632.22         7.3973
   632.36         7.4143
   632.50         7.4282
   632.64         7.4395
   632.78         7.4488
   632.92         7.4565
   633.06         7.4618
   633.20         7.4637
   633.34         7.4609
   633.48         7.4526
   633.62         7.4390
   633.76         7.4209
   633.90         7.3997
   634.04         7.3772
   634.18         7.3544
   634.32         7.3314
   634.46         7.3079
   634.60         7.2847
   634.74         7.2641
   634.88         7.2485
   635.02         7.2391
   635.16         7.2368
   635.30         7.2413
   635.44         7.2506
   635.58         7.2622
   635.72         7.2731
   635.86         7.2813
   636.00         7.2853
   636.14         7.2852
   636.28         7.2804
   636.42         7.2704
   636.56         7.2549
   636.70         7.2344
   636.84         7.2089
   636.98         7.1792
   637.12         7.1478
   637.26         7.1180
   637.40         7.0922
   637.54         7.0719
   637.68         7.0576
   637.82         7.0492
   637.96         7.0456
   638.10         7.0456
   638.24         7.0486
   638.38         7.0542
   638.52         7.0617
   638.66         7.0710
   638.80         7.0817
   638.94         7.0930
   639.08         7.1042
   639.22         7.1149
   639.36         7.1252
   639.50         7.1357
   639.64         7.1471
   639.78         7.1588
   639.92         7.1681
   640.06         7.1725
   640.20         7.1700
   640.34         7.1599
   640.48         7.1419
   640.62         7.1162
   640.76         7.0844
   640.90         7.0473
   641.04         7.0013
   641.18         6.9401
   641.32         6.8613
   641.46         6.7702
   641.60         6.6747
   641.74         6.5836
   641.88         6.5049
   642.02         6.4453
   642.16         6.4091
   642.30         6.3982
   642.44         6.4126
   642.58         6.4513
   642.72         6.5116
   642.86         6.5894
   643.00         6.6781
   643.14         6.7701
   643.28         6.8574
   643.42         6.9327
   643.56         6.9883
   643.70         7.0189
   643.84         7.0263
   643.98         7.0191
   644.12         7.0046
   644.26         6.9860
   644.40         6.9654
   644.54         6.9447
   644.68         6.9253
   644.82         6.9081
   644.96         6.8936
   645.10         6.8817
   645.24         6.8721
   645.38         6.8650
   645.52         6.8614
   645.66         6.8615
   645.80         6.8651
   645.94         6.8710
   646.08         6.8772
   646.22         6.8814
   646.36         6.8830
   646.50         6.8822
   646.64         6.8793
   646.78         6.8745
   646.92         6.8678
   647.06         6.8589
   647.20         6.8471
   647.34         6.8321
   647.48         6.8141
   647.62         6.7941
   647.76         6.7731
   647.90         6.7525
   648.04         6.7329
   648.18         6.7148
   648.32         6.6977
   648.46         6.6817
   648.60         6.6674
   648.74         6.6561
   648.88         6.6490
   649.02         6.6470
   649.16         6.6499
   649.30         6.6569
   649.44         6.6666
   649.58         6.6774
   649.72         6.6873
   649.86         6.6942
   650.00         6.6964
   650.14         6.6935
   650.28         6.6855
   650.42         6.6731
   650.56         6.6575
   650.70         6.6400
   650.84         6.6226
   650.98         6.6068
   651.12         6.5935
   651.26         6.5822
   651.40         6.5719
   651.54         6.5611
   651.68         6.5484
   651.82         6.5323
   651.96         6.5120
   652.10         6.4881
   652.24         6.4614
   652.38         6.4340
   652.52         6.4083
   652.66         6.3861
   652.80         6.3688
   652.94         6.3573
   653.08         6.3523
   653.22         6.3539
   653.36         6.3620
   653.50         6.3754
   653.64         6.3917
   653.78         6.4077
   653.92         6.4205
   654.06         6.4280
   654.20         6.4291
   654.34         6.4233
   654.48         6.4108
   654.62         6.3932
   654.76         6.3718
   654.90         6.3473
   655.04         6.3191
   655.18         6.2848
   655.32         6.2421
   655.46         6.1900
   655.60         6.1296
   655.74         6.0639
   655.88         5.9964
   656.02         5.9317
   656.16         5.8747
   656.30         5.8304
   656.44         5.8027
   656.58         5.7943
   656.72         5.8063
   656.86         5.8388
   657.00         5.8895
   657.14         5.9545
   657.28         6.0282
   657.42         6.1048
   657.56         6.1789
   657.70         6.2462
   657.84         6.3034
   657.98         6.3490
   658.12         6.3830
   658.26         6.4060
   658.40         6.4187
   658.54         6.4219
   658.68         6.4173
   658.82         6.4065
   658.96         6.3917
   659.10         6.3759
   659.24         6.3628
   659.38         6.3555
   659.52         6.3561
   659.66         6.3654
   659.80         6.3826
   659.94         6.4049
   660.08         6.4285
   660.22         6.4490
   660.36         6.4622
   660.50         6.4652
   660.64         6.4565
   660.78         6.4365
   660.92         6.4070
   661.06         6.3714
   661.20         6.3335
   661.34         6.2969
   661.48         6.2647
   661.62         6.2395
   661.76         6.2236
   661.90         6.2172
   662.04         6.2184
   662.18         6.2242
   662.32         6.2314
   662.46         6.2367
   662.60         6.2374
   662.74         6.2322
   662.88         6.2212
   663.02         6.2052
   663.16         6.1855
   663.30         6.1640
   663.44         6.1425
   663.58         6.1234
   663.72         6.1090
   663.86         6.0998
   664.00         6.0955
   664.14         6.0960
   664.28         6.1012
   664.42         6.1101
   664.56         6.1207
   664.70         6.1321
   664.84         6.1443
   664.98         6.1573
   665.12         6.1708
   665.26         6.1841
   665.40         6.1972
   665.54         6.2108
   665.68         6.2254
   665.82         6.2410
   665.96         6.2567
   666.10         6.2711
   666.24         6.2830
   666.38         6.2903
   666.52         6.2901
   666.66         6.2791
   666.80         6.2543
   666.94         6.2144
   667.08         6.1608
   667.22         6.0975
   667.36         6.0304
   667.50         5.9656
   667.64         5.9087
   667.78         5.8643
   667.92         5.8363
   668.06         5.8263
   668.20         5.8338
   668.34         5.8559
   668.48         5.8892
   668.62         5.9296
   668.76         5.9723
   668.90         6.0124
   669.04         6.0460
   669.18         6.0702
   669.32         6.0839
   669.46         6.0886
   669.60         6.0881
   669.74         6.0855
   669.88         6.0826
   670.02         6.0800
   670.16         6.0771
   670.30         6.0729
   670.44         6.0667
   670.58         6.0583
   670.72         6.0480
   670.86         6.0372
   671.00         6.0279
   671.14         6.0217
   671.28         6.0185
   671.42         6.0178
   671.56         6.0198
   671.70         6.0240
   671.84         6.0292
   671.98         6.0338
   672.12         6.0370
   672.26         6.0378
   672.40         6.0349
   672.54         6.0271
   672.68         6.0149
   672.82         6.0001
   672.96         5.9848
   673.10         5.9714
   673.24         5.9613
   673.38         5.9553
   673.52         5.9534
   673.66         5.9547
   673.80         5.9577
   673.94         5.9616
   674.08         5.9667
   674.22         5.9729
   674.36         5.9791
   674.50         5.9839
   674.64         5.9865
   674.78         5.9863
   674.92         5.9825
   675.06         5.9747
   675.20         5.9632
   675.34         5.9494
   675.48         5.9350
   675.62         5.9212
   675.76         5.9092
   675.90         5.8990
   676.04         5.8901
   676.18         5.8825
   676.32         5.8767
   676.46         5.8731
   676.60         5.8718
   676.74         5.8720
   676.88         5.8721
   677.02         5.8705
   677.16         5.8665
   677.30         5.8602
   677.44         5.8522
   677.58         5.8436
   677.72         5.8359
   677.86         5.8303
   678.00         5.8282
   678.14         5.8306
   678.28         5.8373
   678.42         5.8465
   678.56         5.8558
   678.70         5.8629
   678.84         5.8666
   678.98         5.8667
   679.12         5.8637
   679.26         5.8583
   679.40         5.8512
   679.54         5.8428
   679.68         5.8334
   679.82         5.8236
   679.96         5.8142
   680.10         5.8063
   680.24         5.8002
   680.38         5.7961
   680.52         5.7935
   680.66         5.7918
   680.80         5.7905
   680.94         5.7889
   681.08         5.7870
   681.22         5.7855
   681.36         5.7854
   681.50         5.7876
   681.64         5.7922
   681.78         5.7980
   681.92         5.8030
   682.06         5.8051
   682.20         5.8030
   682.34         5.7959
   682.48         5.7835
   682.62         5.7659
   682.76         5.7436
   682.90         5.7176
   683.04         5.6900
   683.18         5.6640
   683.32         5.6422
   683.46         5.6260
   683.60         5.6159
   683.74         5.6114
   683.88         5.6110
   684.02         5.6128
   684.16         5.6151
   684.30         5.6161
   684.44         5.6149
   684.58         5.6107
   684.72         5.6034
   684.86         5.5935
   685.00         5.5818
   685.14         5.5696
   685.28         5.5585
   685.42         5.5495
   685.56         5.5413
   685.70         5.5293
   685.84         5.5065
   685.98         5.4657
   686.12         5.4025
   686.26         5.3157
   686.40         5.2074
   686.54         5.0824
   686.68         4.9486
   686.82         4.8162
   686.96         4.6958
   687.10         4.5973
   687.24         4.5282
   687.38         4.4933
   687.52         4.4934
   687.66         4.5248
   687.80         4.5805
   687.94         4.6508
   688.08         4.7250
   688.22         4.7927
   688.36         4.8467
   688.50         4.8842
   688.64         4.9068
   688.78         4.9181
   688.92         4.9218
   689.06         4.9217
   689.20         4.9217
   689.34         4.9254
   689.48         4.9349
   689.62         4.9503
   689.76         4.9704
   689.90         4.9933
   690.04         5.0174
   690.18         5.0413
   690.32         5.0637
   690.46         5.0840
   690.60         5.1028
   690.74         5.1205
   690.88         5.1380
   691.02         5.1556
   691.16         5.1734
   691.30         5.1903
   691.44         5.2048
   691.58         5.2170
   691.72         5.2280
   691.86         5.2389
   692.00         5.2503
   692.14         5.2620
   692.28         5.2736
   692.42         5.2846
   692.56         5.2947
   692.70         5.3039
   692.84         5.3120
   692.98         5.3188
   693.12         5.3243
   693.26         5.3284
   693.40         5.3307
   693.54         5.3313
   693.68         5.3301
   693.82         5.3272
   693.96         5.3233
   694.10         5.3194
   694.24         5.3164
   694.38         5.3141
   694.52         5.3122
   694.66         5.3106
   694.80         5.3096
   694.94         5.3094
   695.08         5.3098
   695.22         5.3117
   695.36         5.3159
   695.50         5.3230
   695.64         5.3327
   695.78         5.3443
   695.92         5.3571
   696.06         5.3698
   696.20         5.3808
   696.34         5.3889
   696.48         5.3939
   696.62         5.3965
   696.76         5.3979
   696.90         5.3994
   697.04         5.4017
   697.18         5.4059
   697.32         5.4128
   697.46         5.4221
   697.60         5.4326
   697.74         5.4427
   697.88         5.4506
   698.02         5.4546
   698.16         5.4526
   698.30         5.4437
   698.44         5.4276
   698.58         5.4047
   698.72         5.3767
   698.86         5.3466
   699.00         5.3176
   699.14         5.2928
   699.28         5.2744
   699.42         5.2627
   699.56         5.2574
   699.70         5.2579
   699.84         5.2642
   699.98         5.2755
   700.12         5.2905
   700.26         5.3080
   700.40         5.3269
   700.54         5.3459
   700.68         5.3639
   700.82         5.3797
   700.96         5.3930
   701.10         5.4030
   701.24         5.4092
   701.38         5.4115
   701.52         5.4098
   701.66         5.4041
   701.80         5.3950
   701.94         5.3838
   702.08         5.3719
   702.22         5.3607
   702.36         5.3516
   702.50         5.3451
   702.64         5.3417
   702.78         5.3404
   702.92         5.3387
   703.06         5.3350
   703.20         5.3287
   703.34         5.3207
   703.48         5.3123
   703.62         5.3053
   703.76         5.3001
   703.90         5.2966
   704.04         5.2945
   704.18         5.2935
   704.32         5.2938
   704.46         5.2958
   704.60         5.3001
   704.74         5.3063
   704.88         5.3123
   705.02         5.3163
   705.16         5.3180
   705.30         5.3161
   705.44         5.3079
   705.58         5.2914
   705.72         5.2665
   705.86         5.2347
   706.00         5.1977
   706.14         5.1582
   706.28         5.1196
   706.42         5.0856
   706.56         5.0594
   706.70         5.0437
   706.84         5.0397
   706.98         5.0476
   707.12         5.0662
   707.26         5.0929
   707.40         5.1237
   707.54         5.1544
   707.68         5.1819
   707.82         5.2035
   707.96         5.2164
   708.10         5.2199
   708.24         5.2160
   708.38         5.2082
   708.52         5.1999
   708.66         5.1946
   708.80         5.1948
   708.94         5.2013
   709.08         5.2126
   709.22         5.2265
   709.36         5.2408
   709.50         5.2541
   709.64         5.2661
   709.78         5.2763
   709.92         5.2839
   710.06         5.2885
   710.20         5.2906
   710.34         5.2914
   710.48         5.2919
   710.62         5.2932
   710.76         5.2958
   710.90         5.3001
   711.04         5.3059
   711.18         5.3128
   711.32         5.3201
   711.46         5.3264
   711.60         5.3299
   711.74         5.3298
   711.88         5.3262
   712.02         5.3204
   712.16         5.3133
   712.30         5.3057
   712.44         5.2981
   712.58         5.2907
   712.72         5.2840
   712.86         5.2779
   713.00         5.2707
   713.14         5.2604
   713.28         5.2453
   713.42         5.2251
   713.56         5.2004
   713.70         5.1723
   713.84         5.1420
   713.98         5.1112
   714.12         5.0824
   714.26         5.0586
   714.40         5.0422
   714.54         5.0350
   714.68         5.0366
   714.82         5.0444
   714.96         5.0557
   715.10         5.0682
   715.24         5.0797
   715.38         5.0878
   715.52         5.0905
   715.66         5.0866
   715.80         5.0757
   715.94         5.0579
   716.08         5.0334
   716.22         5.0025
   716.36         4.9658
   716.50         4.9240
   716.64         4.8783
   716.78         4.8300
   716.92         4.7806
   717.06         4.7321
   717.20         4.6864
   717.34         4.6450
   717.48         4.6080
   717.62         4.5762
   717.76         4.5511
   717.90         4.5322
   718.04         4.5180
   718.18         4.5069
   718.32         4.4981
   718.46         4.4912
   718.60         4.4863
   718.74         4.4831
   718.88         4.4819
   719.02         4.4826
   719.16         4.4850
   719.30         4.4886
   719.44         4.4934
   719.58         4.5004
   719.72         4.5102
   719.86         4.5230
   720.00         4.5394
   720.14         4.5603
   720.28         4.5864
   720.42         4.6178
   720.56         4.6536
   720.70         4.6928
   720.84         4.7348
   720.98         4.7786
   721.12         4.8213
   721.26         4.8595
   721.40         4.8906
   721.54         4.9136
   721.68         4.9284
   721.82         4.9354
   721.96         4.9350
   722.10         4.9280
   722.24         4.9153
   722.38         4.8976
   722.52         4.8765
   722.66         4.8539
   722.80         4.8300
   722.94         4.8043
   723.08         4.7775
   723.22         4.7516
   723.36         4.7290
   723.50         4.7114
   723.64         4.6986
   723.78         4.6895
   723.92         4.6830
   724.06         4.6774
   724.20         4.6712
   724.34         4.6633
   724.48         4.6530
   724.62         4.6399
   724.76         4.6241
   724.90         4.6065
   725.04         4.5885
   725.18         4.5710
   725.32         4.5540
   725.46         4.5375
   725.60         4.5240
   725.74         4.5167
   725.88         4.5177
   726.02         4.5263
   726.16         4.5399
   726.30         4.5545
   726.44         4.5660
   726.58         4.5719
   726.72         4.5713
   726.86         4.5652
   727.00         4.5541
   727.14         4.5380
   727.28         4.5179
   727.42         4.4959
   727.56         4.4751
   727.70         4.4575
   727.84         4.4441
   727.98         4.4354
   728.12         4.4324
   728.26         4.4355
   728.40         4.4434
   728.54         4.4535
   728.68         4.4631
   728.82         4.4706
   728.96         4.4746
   729.10         4.4750
   729.24         4.4725
   729.38         4.4681
   729.52         4.4622
   729.66         4.4544
   729.80         4.4454
   729.94         4.4369
   730.08         4.4305
   730.22         4.4265
   730.36         4.4243
   730.50         4.4232
   730.64         4.4229
   730.78         4.4233
   730.92         4.4240
   731.06         4.4251
   731.20         4.4274
   731.34         4.4322
   731.48         4.4411
   731.62         4.4549
   731.76         4.4729
   731.90         4.4944
   732.04         4.5189
   732.18         4.5449
   732.32         4.5703
   732.46         4.5932
   732.60         4.6125
   732.74         4.6268
   732.88         4.6351
   733.02         4.6371
   733.16         4.6334
   733.30         4.6255
   733.44         4.6155
   733.58         4.6057
   733.72         4.5976
   733.86         4.5924
   734.00         4.5906
   734.14         4.5928
   734.28         4.5980
   734.42         4.6046
   734.56         4.6114
   734.70         4.6171
   734.84         4.6205
   734.98         4.6211
   735.12         4.6192
   735.26         4.6156
   735.40         4.6107
   735.54         4.6044
   735.68         4.5965
   735.82         4.5868
   735.96         4.5753
   736.10         4.5625
   736.24         4.5498
   736.38         4.5400
   736.52         4.5364
   736.66         4.5400
   736.80         4.5491
   736.94         4.5613
   737.08         4.5748
   737.22         4.5885
   737.36         4.6012
   737.50         4.6118
   737.64         4.6193
   737.78         4.6230
   737.92         4.6218
   738.06         4.6147
   738.20         4.6013
   738.34         4.5824
   738.48         4.5596
   738.62         4.5350
   738.76         4.5115
   738.90         4.4919
   739.04         4.4775
   739.18         4.4674
   739.32         4.4590
   739.46         4.4506
   739.60         4.4413
   739.74         4.4301
   739.88         4.4159
   740.02         4.3977
   740.16         4.3754
   740.30         4.3502
   740.44         4.3230
   740.58         4.2952
   740.72         4.2683
   740.86         4.2439
   741.00         4.2234
   741.14         4.2080
   741.28         4.1985
   741.42         4.1955
   741.56         4.1991
   741.70         4.2087
   741.84         4.2232
   741.98         4.2414
   742.12         4.2617
   742.26         4.2824
   742.40         4.3015
   742.54         4.3174
   742.68         4.3289
   742.82         4.3350
   742.96         4.3350
   743.10         4.3289
   743.24         4.3174
   743.38         4.3015
   743.52         4.2824
   743.66         4.2617
   743.80         4.2414
   743.94         4.2232
   744.08         4.2087
   744.22         4.1991
