# File HD16429
# Wavelength [nm]    Normalized Amplitude
   349.70         1651.3069
   349.84         1649.2524
   349.98         1647.4033
   350.12         1646.0335
   350.26         1645.4166
   350.40         1645.9605
   350.54         1647.8468
   350.68         1650.6805
   350.82         1653.7437
   350.96         1656.1835
   351.10         1657.1322
   351.24         1656.1835
   351.38         1653.7437
   351.52         1650.6805
   351.66         1647.8468
   351.80         1645.9605
   351.94         1645.4166
   352.08         1646.0335
   352.22         1647.4033
   352.36         1649.2524
   352.50         1651.3069
   352.64         1653.1478
   352.78         1654.1666
   352.92         1653.9064
   353.06         1652.1357
   353.20         1648.4306
   353.34         1642.3684
   353.48         1633.9844
   353.62         1623.8327
   353.76         1612.9656
   353.90         1602.7260
   354.04         1594.1601
   354.18         1587.7051
   354.32         1583.3028
   354.46         1580.6010
   354.60         1579.2108
   354.74         1578.8792
   354.88         1579.5407
   355.02         1581.2236
   355.16         1583.7705
   355.30         1586.6384
   355.44         1589.2162
   355.58         1591.3202
   355.72         1592.7394
   355.86         1593.2003
   356.00         1592.7362
   356.14         1591.3875
   356.28         1589.1273
   356.42         1585.8807
   356.56         1581.4955
   356.70         1575.9313
   356.84         1569.5148
   356.98         1562.7371
   357.12         1556.0023
   357.26         1549.6001
   357.40         1543.7191
   357.54         1538.4040
   357.68         1533.5902
   357.82         1529.3475
   357.96         1526.0056
   358.10         1523.9773
   358.24         1523.3315
   358.38         1523.4558
   358.52         1523.5527
   358.66         1523.0815
   358.80         1521.6798
   358.94         1519.2547
   359.08         1516.0461
   359.22         1512.5466
   359.36         1509.2432
   359.50         1506.4984
   359.64         1504.6568
   359.78         1503.9599
   359.92         1504.5246
   360.06         1506.4183
   360.20         1509.4481
   360.34         1513.1706
   360.48         1517.1456
   360.62         1520.9693
   360.76         1524.1867
   360.90         1526.3237
   361.04         1527.0954
   361.18         1526.6194
   361.32         1525.3364
   361.46         1523.5139
   361.60         1521.1101
   361.74         1518.1057
   361.88         1514.5918
   362.02         1510.6479
   362.16         1506.3592
   362.30         1501.8372
   362.44         1497.1108
   362.58         1492.2928
   362.72         1487.8524
   362.86         1484.5668
   363.00         1483.2569
   363.14         1484.5672
   363.28         1488.6608
   363.42         1494.9998
   363.56         1502.5648
   363.70         1510.2385
   363.84         1517.1009
   363.98         1522.4117
   364.12         1525.6290
   364.26         1526.6337
   364.40         1525.6479
   364.54         1523.0081
   364.68         1519.1415
   364.82         1514.6810
   364.96         1510.3839
   365.10         1506.8764
   365.24         1504.5654
   365.38         1503.5425
   365.52         1503.4577
   365.66         1503.6658
   365.80         1503.3731
   365.94         1501.6930
   366.08         1498.0583
   366.22         1492.5704
   366.36         1485.8568
   366.50         1478.8318
   366.64         1472.3298
   366.78         1466.9139
   366.92         1462.8866
   367.06         1460.2849
   367.20         1459.1211
   367.34         1459.5044
   367.48         1461.3213
   367.62         1463.9412
   367.76         1466.4323
   367.90         1467.8948
   368.04         1467.6106
   368.18         1465.2158
   368.32         1460.7199
   368.46         1454.3744
   368.60         1446.7539
   368.74         1438.7367
   368.88         1431.0829
   369.02         1424.1650
   369.16         1418.0507
   369.30         1412.6019
   369.44         1407.6547
   369.58         1403.1989
   369.72         1399.3280
   369.86         1396.1201
   370.00         1393.5171
   370.14         1391.2770
   370.28         1389.1493
   370.42         1387.1025
   370.56         1385.2487
   370.70         1383.6520
   370.84         1382.2974
   370.98         1381.1241
   371.12         1380.1614
   371.26         1379.5377
   371.40         1379.2505
   371.54         1379.1933
   371.68         1379.4377
   371.82         1380.1948
   371.96         1381.5764
   372.10         1383.5330
   372.24         1385.8975
   372.38         1388.5412
   372.52         1391.5259
   372.66         1395.0367
   372.80         1399.2511
   372.94         1404.2926
   373.08         1410.1961
   373.22         1416.8759
   373.36         1424.0914
   373.50         1431.3666
   373.64         1437.9916
   373.78         1443.1834
   373.92         1446.2062
   374.06         1446.5389
   374.20         1444.0413
   374.34         1438.8405
   374.48         1431.1738
   374.62         1421.4443
   374.76         1410.3009
   374.90         1398.6851
   375.04         1387.7290
   375.18         1378.4464
   375.32         1371.4719
   375.46         1367.0060
   375.60         1364.8105
   375.74         1364.2266
   375.88         1364.3523
   376.02         1364.3505
   376.16         1363.7369
   376.30         1362.5250
   376.44         1361.3253
   376.58         1361.2268
   376.72         1363.3086
   376.86         1368.1744
   377.00         1375.8448
   377.14         1385.9579
   377.28         1398.0329
   377.42         1411.4555
   377.56         1425.4013
   377.70         1438.8942
   377.84         1450.8802
   377.98         1460.2791
   378.12         1466.1291
   378.26         1467.7158
   378.40         1464.5852
   378.54         1456.5960
   378.68         1444.1362
   378.82         1428.2835
   378.96         1410.5407
   379.10         1392.5468
   379.24         1375.8747
   379.38         1361.8431
   379.52         1351.4732
   379.66         1345.4863
   379.80         1344.2410
   379.94         1347.6265
   380.08         1355.0302
   380.22         1365.5438
   380.36         1378.0254
   380.50         1390.9182
   380.64         1402.3555
   380.78         1410.6135
   380.92         1414.5631
   381.06         1413.9033
   381.20         1409.2617
   381.34         1402.0984
   381.48         1394.1962
   381.62         1386.9257
   381.76         1380.9644
   381.90         1376.3868
   382.04         1372.6988
   382.18         1368.9350
   382.32         1364.0544
   382.46         1357.3110
   382.60         1348.3861
   382.74         1337.4364
   382.88         1324.9487
   383.02         1311.5948
   383.16         1298.3442
   383.30         1286.5723
   383.44         1277.8914
   383.58         1273.7827
   383.72         1275.1818
   383.86         1282.2626
   384.00         1294.4152
   384.14         1310.3177
   384.28         1328.0931
   384.42         1345.7860
   384.56         1361.8382
   384.70         1375.1629
   384.84         1385.1582
   384.98         1391.7389
   385.12         1395.1981
   385.26         1395.9827
   385.40         1394.6278
   385.54         1391.8213
   385.68         1388.3913
   385.82         1385.1260
   385.96         1382.6462
   386.10         1381.3389
   386.24         1381.2270
   386.38         1381.9126
   386.52         1382.7438
   386.66         1383.1132
   386.80         1382.6222
   386.94         1381.0279
   387.08         1378.1877
   387.22         1373.9048
   387.36         1367.8326
   387.50         1359.6086
   387.64         1348.9415
   387.78         1335.6493
   387.92         1319.8758
   388.06         1302.3476
   388.20         1284.2446
   388.34         1266.8126
   388.48         1251.1731
   388.62         1238.3285
   388.76         1229.0442
   388.90         1223.7445
   389.04         1222.6520
   389.18         1225.9642
   389.32         1233.7166
   389.46         1245.4441
   389.60         1260.0745
   389.74         1276.1366
   389.88         1292.0653
   390.02         1306.4827
   390.16         1318.4032
   390.30         1327.3231
   390.44         1333.2332
   390.58         1336.5485
   390.72         1337.7765
   390.86         1337.1910
   391.00         1334.9448
   391.14         1331.3164
   391.28         1326.6953
   391.42         1321.4677
   391.56         1316.0329
   391.70         1310.8811
   391.84         1306.4752
   391.98         1302.8866
   392.12         1299.6933
   392.26         1296.3587
   392.40         1292.6244
   392.54         1288.5622
   392.68         1284.4670
   392.82         1280.7128
   392.96         1277.5935
   393.10         1275.2849
   393.24         1273.8833
   393.38         1273.3912
   393.52         1273.7442
   393.66         1274.9151
   393.80         1276.9020
   393.94         1279.6399
   394.08         1282.9783
   394.22         1286.6493
   394.36         1290.2004
   394.50         1292.9561
   394.64         1294.1671
   394.78         1293.3502
   394.92         1290.4311
   395.06         1285.5267
   395.20         1278.6767
   395.34         1269.7831
   395.48         1258.5639
   395.62         1244.5441
   395.76         1227.3995
   395.90         1207.3125
   396.04         1185.0428
   396.18         1161.8919
   396.32         1139.5313
   396.46         1119.7068
   396.60         1103.9502
   396.74         1093.3220
   396.88         1088.2604
   397.02         1088.6907
   397.16         1094.1744
   397.30         1103.9812
   397.44         1117.2004
   397.58         1132.7359
   397.72         1149.3168
   397.86         1165.6626
   398.00         1180.6652
   398.14         1193.4897
   398.28         1203.7031
   398.42         1211.4287
   398.56         1217.1710
   398.70         1221.4845
   398.84         1224.7986
   398.98         1227.3273
   399.12         1229.0629
   399.26         1229.8233
   399.40         1229.3652
   399.54         1227.5938
   399.68         1224.6803
   399.82         1220.9097
   399.96         1216.5680
   400.10         1211.9651
   400.24         1207.3828
   400.38         1203.0860
   400.52         1199.3094
   400.66         1196.1485
   400.80         1193.5067
   400.94         1191.1529
   401.08         1188.8062
   401.22         1186.0893
   401.36         1182.5660
   401.50         1177.9129
   401.64         1172.0399
   401.78         1165.1351
   401.92         1157.6518
   402.06         1150.2443
   402.20         1143.5983
   402.34         1138.2716
   402.48         1134.6679
   402.62         1133.0228
   402.76         1133.3355
   402.90         1135.3505
   403.04         1138.5792
   403.18         1142.3753
   403.32         1146.0710
   403.46         1149.0305
   403.60         1150.7389
   403.74         1150.9263
   403.88         1149.6306
   404.02         1147.2526
   404.16         1144.3752
   404.30         1141.5125
   404.44         1139.0034
   404.58         1136.9613
   404.72         1135.3831
   404.86         1134.2446
   405.00         1133.4957
   405.14         1132.9749
   405.28         1132.3390
   405.42         1131.1707
   405.56         1129.1341
   405.70         1126.0248
   405.84         1121.7261
   405.98         1116.2282
   406.12         1109.6581
   406.26         1102.2920
   406.40         1094.5179
   406.54         1086.7543
   406.68         1079.4430
   406.82         1073.0183
   406.96         1067.8618
   407.10         1064.2044
   407.24         1062.0539
   407.38         1061.2270
   407.52         1061.2931
   407.66         1061.5875
   407.80         1061.4206
   407.94         1060.3340
   408.08         1058.1722
   408.22         1054.9388
   408.36         1050.6158
   408.50         1045.0772
   408.64         1038.1613
   408.78         1029.6853
   408.92         1019.4681
   409.06         1007.5387
   409.20         994.2851
   409.34         980.4204
   409.48         966.8168
   409.62         954.3730
   409.76         943.9644
   409.90         936.3555
   410.04         932.0903
   410.18         931.4173
   410.32         934.2543
   410.46         940.2225
   410.60         948.6964
   410.74         958.8147
   410.88         969.5428
   411.02         979.8453
   411.16         988.9211
   411.30         996.3475
   411.44         1002.0747
   411.58         1006.3896
   411.72         1009.8708
   411.86         1013.1632
   412.00         1016.6879
   412.14         1020.5614
   412.28         1024.6401
   412.42         1028.5931
   412.56         1032.0406
   412.70         1034.6966
   412.84         1036.3428
   412.98         1036.7551
   413.12         1035.8141
   413.26         1033.6200
   413.40         1030.4289
   413.54         1026.5385
   413.68         1022.2636
   413.82         1017.9442
   413.96         1013.9225
   414.10         1010.5261
   414.24         1008.0311
   414.38         1006.5667
   414.52         1006.0294
   414.66         1006.1111
   414.80         1006.4204
   414.94         1006.5954
   415.08         1006.3994
   415.22         1005.7360
   415.36         1004.5625
   415.50         1002.8665
   415.64         1000.7970
   415.78         998.7028
   415.92         996.9090
   416.06         995.5075
   416.20         994.3738
   416.34         993.3216
   416.48         992.2420
   416.62         991.1145
   416.76         989.8862
   416.90         988.3752
   417.04         986.3270
   417.18         983.5733
   417.32         980.1037
   417.46         976.0438
   417.60         971.6345
   417.74         967.1854
   417.88         962.9793
   418.02         959.1973
   418.16         955.9329
   418.30         953.1993
   418.44         950.8445
   418.58         948.5836
   418.72         946.2001
   418.86         943.6559
   419.00         941.0335
   419.14         938.4470
   419.28         935.9724
   419.42         933.6236
   419.56         931.3982
   419.70         929.3688
   419.84         927.7184
   419.98         926.6329
   420.12         926.2012
   420.26         926.4569
   420.40         927.4239
   420.54         929.0582
   420.68         931.1863
   420.82         933.5502
   420.96         935.8758
   421.10         937.8823
   421.24         939.3129
   421.38         940.0026
   421.52         939.8905
   421.66         939.0205
   421.80         937.5731
   421.94         935.8134
   422.08         934.0118
   422.22         932.4234
   422.36         931.2696
   422.50         930.6622
   422.64         930.5482
   422.78         930.7733
   422.92         931.1724
   423.06         931.6079
   423.20         931.9660
   423.34         932.1395
   423.48         932.0241
   423.62         931.5365
   423.76         930.6235
   423.90         929.2699
   424.04         927.5333
   424.18         925.5443
   424.32         923.4428
   424.46         921.3188
   424.60         919.2103
   424.74         917.0991
   424.88         914.8894
   425.02         912.4377
   425.16         909.6260
   425.30         906.4295
   425.44         902.9186
   425.58         899.2424
   425.72         895.6301
   425.86         892.2762
   426.00         889.2807
   426.14         886.7063
   426.28         884.6317
   426.42         883.1680
   426.56         882.3885
   426.70         882.3044
   426.84         882.8835
   426.98         884.0159
   427.12         885.5402
   427.26         887.2719
   427.40         888.9712
   427.54         890.4064
   427.68         891.4104
   427.82         891.9100
   427.96         891.9420
   428.10         891.5969
   428.24         890.9937
   428.38         890.2610
   428.52         889.5073
   428.66         888.8425
   428.80         888.3176
   428.94         887.8926
   429.08         887.5161
   429.22         887.1565
   429.36         886.8406
   429.50         886.6510
   429.64         886.6350
   429.78         886.7878
   429.92         887.0826
   430.06         887.4573
   430.20         887.8103
   430.34         888.0179
   430.48         887.9732
   430.62         887.5792
   430.76         886.7350
   430.90         885.3977
   431.04         883.6230
   431.18         881.5287
   431.32         879.2040
   431.46         876.6832
   431.60         874.0215
   431.74         871.3328
   431.88         868.7138
   432.02         866.1578
   432.16         863.5397
   432.30         860.6408
   432.44         857.1641
   432.58         852.7162
   432.72         846.8290
   432.86         839.1164
   433.00         829.5006
   433.14         818.2743
   433.28         806.0115
   433.42         793.4876
   433.56         781.5936
   433.70         771.2288
   433.84         763.1855
   433.98         758.0753
   434.12         756.3336
   434.26         758.1745
   434.40         763.5239
   434.54         772.0061
   434.68         782.9419
   434.82         795.3970
   434.96         808.2851
   435.10         820.5185
   435.24         831.2016
   435.38         839.7410
   435.52         845.8650
   435.66         849.6218
   435.80         851.2579
   435.94         851.1142
   436.08         849.6271
   436.22         847.2989
   436.36         844.6157
   436.50         841.9557
   436.64         839.5842
   436.78         837.6799
   436.92         836.3023
   437.06         835.3974
   437.20         834.7863
   437.34         834.1517
   437.48         833.1450
   437.62         831.5016
   437.76         829.1031
   437.90         825.9833
   438.04         822.2937
   438.18         818.3160
   438.32         814.4473
   438.46         811.0970
   438.60         808.6326
   438.74         807.3467
   438.88         807.3592
   439.02         808.5595
   439.16         810.6777
   439.30         813.3630
   439.44         816.1961
   439.58         818.7433
   439.72         820.6211
   439.86         821.5167
   440.00         821.2417
   440.14         819.7606
   440.28         817.1693
   440.42         813.6763
   440.56         809.5622
   440.70         805.1375
   440.84         800.7196
   440.98         796.5725
   441.12         792.8161
   441.26         789.4099
   441.40         786.2016
   441.54         782.9699
   441.68         779.5038
   441.82         775.6725
   441.96         771.4134
   442.10         766.7381
   442.24         761.7530
   442.38         756.6223
   442.52         751.5520
   442.66         746.8175
   442.80         742.7423
   442.94         739.6251
   443.08         737.6682
   443.22         736.9478
   443.36         737.3931
   443.50         738.8129
   443.64         740.9628
   443.78         743.5834
   443.92         746.4632
   444.06         749.4355
   444.20         752.3277
   444.34         755.0123
   444.48         757.4565
   444.62         759.7039
   444.76         761.8446
   444.90         763.9711
   445.04         766.1297
   445.18         768.2608
   445.32         770.1845
   445.46         771.6022
   445.60         772.1000
   445.74         771.2423
   445.88         768.7093
   446.02         764.3692
   446.16         758.3469
   446.30         751.0614
   446.44         743.1320
   446.58         735.2525
   446.72         728.1197
   446.86         722.4207
   447.00         718.7457
   447.14         717.4537
   447.28         718.6341
   447.42         722.1182
   447.56         727.5064
   447.70         734.2139
   447.84         741.5317
   447.98         748.7563
   448.12         755.2921
   448.26         760.7154
   448.40         764.8574
   448.54         767.7687
   448.68         769.6240
   448.82         770.6492
   448.96         771.0226
   449.10         770.8307
   449.24         770.1180
   449.38         768.9630
   449.52         767.4727
   449.66         765.7222
   449.80         763.7677
   449.94         761.6874
   450.08         759.6009
   450.22         757.6683
   450.36         756.0535
   450.50         754.8598
   450.64         754.1117
   450.78         753.7677
   450.92         753.7644
   451.06         754.0895
   451.20         754.7203
   451.34         755.5584
   451.48         756.4507
   451.62         757.2426
   451.76         757.8377
   451.90         758.1372
   452.04         758.0359
   452.18         757.4881
   452.32         756.4998
   452.46         755.1290
   452.60         753.4896
   452.74         751.6702
   452.88         749.6412
   453.02         747.2864
   453.16         744.5113
   453.30         741.3371
   453.44         737.9227
   453.58         734.5051
   453.72         731.2816
   453.86         728.3238
   454.00         725.6509
   454.14         723.3507
   454.28         721.5728
   454.42         720.4438
   454.56         720.0180
   454.70         720.3304
   454.84         721.3523
   454.98         722.8893
   455.12         724.6319
   455.26         726.2608
   455.40         727.5089
   455.54         728.2375
   455.68         728.4980
   455.82         728.4630
   455.96         728.3044
   456.10         728.1060
   456.24         727.8943
   456.38         727.7279
   456.52         727.7201
   456.66         727.9807
   456.80         728.5407
   456.94         729.3161
   457.08         730.1261
   457.22         730.7495
   457.36         730.9956
   457.50         730.7157
   457.64         729.8032
   457.78         728.2470
   457.92         726.1635
   458.06         723.7383
   458.20         721.1522
   458.34         718.5338
   458.48         715.9542
   458.62         713.4719
   458.76         711.1587
   458.90         709.1265
   459.04         707.5044
   459.18         706.3781
   459.32         705.7574
   459.46         705.5715
   459.60         705.7073
   459.74         706.0758
   459.88         706.6390
   460.02         707.3661
   460.16         708.1797
   460.30         708.9279
   460.44         709.4496
   460.58         709.6790
   460.72         709.6688
   460.86         709.5267
   461.00         709.3290
   461.14         709.1183
   461.28         708.9558
   461.42         708.8999
   461.56         708.9628
   461.70         709.1357
   461.84         709.3951
   461.98         709.6617
   462.12         709.8255
   462.26         709.8215
   462.40         709.6677
   462.54         709.3987
   462.68         708.9996
   462.82         708.4758
   462.96         707.9134
   463.10         707.4327
   463.24         707.0991
   463.38         706.8352
   463.52         706.3781
   463.66         705.3225
   463.80         703.2798
   463.94         700.0548
   464.08         695.6785
   464.22         690.3969
   464.36         684.6601
   464.50         679.0024
   464.64         673.9540
   464.78         670.0192
   464.92         667.6017
   465.06         666.9258
   465.20         668.0202
   465.34         670.7518
   465.48         674.8723
   465.62         680.0068
   465.76         685.6270
   465.90         691.1261
   466.04         695.9454
   466.18         699.6631
   466.32         702.0315
   466.46         703.0289
   466.60         702.8902
   466.74         702.0087
   466.88         700.7552
   467.02         699.3660
   467.16         697.9428
   467.30         696.5121
   467.44         695.0497
   467.58         693.4812
   467.72         691.7747
   467.86         689.9755
   468.00         688.0943
   468.14         686.0876
   468.28         683.9583
   468.42         681.7469
   468.56         679.4708
   468.70         677.1510
   468.84         674.8556
   468.98         672.6930
   469.12         670.7832
   469.26         669.2447
   469.40         668.1346
   469.54         667.3815
   469.68         666.8527
   469.82         666.4206
   469.96         665.9876
   470.10         665.5084
   470.24         664.9755
   470.38         664.4191
   470.52         663.8644
   470.66         663.2802
   470.80         662.6295
   470.94         661.9053
   471.08         661.0652
   471.22         660.0571
   471.36         658.9054
   471.50         657.6896
   471.64         656.5095
   471.78         655.4835
   471.92         654.7345
   472.06         654.3540
   472.20         654.3663
   472.34         654.7526
   472.48         655.4412
   472.62         656.2848
   472.76         657.0978
   472.90         657.7429
   473.04         658.1915
   473.18         658.4637
   473.32         658.5587
   473.46         658.4536
   473.60         658.1310
   473.74         657.6021
   473.88         656.8850
   474.02         655.9827
   474.16         654.9154
   474.30         653.7387
   474.44         652.5034
   474.58         651.2195
   474.72         649.8434
   474.86         648.2725
   475.00         646.3959
   475.14         644.1685
   475.28         641.6711
   475.42         639.1180
   475.56         636.7933
   475.70         634.9106
   475.84         633.4968
   475.98         632.4503
   476.12         631.6608
   476.26         631.0719
   476.40         630.6861
   476.54         630.5136
   476.68         630.5425
   476.82         630.7683
   476.96         631.1756
   477.10         631.6915
   477.24         632.1931
   477.38         632.5356
   477.52         632.6430
   477.66         632.5578
   477.80         632.3860
   477.94         632.1960
   478.08         631.9713
   478.22         631.6660
   478.36         631.2231
   478.50         630.5819
   478.64         629.7491
   478.78         628.7990
   478.92         627.8066
   479.06         626.8249
   479.20         625.8994
   479.34         625.0915
   479.48         624.4760
   479.62         624.0618
   479.76         623.7852
   479.90         623.6052
   480.04         623.5148
   480.18         623.5079
   480.32         623.5492
   480.46         623.5662
   480.60         623.4843
   480.74         623.2694
   480.88         622.9201
   481.02         622.4338
   481.16         621.8219
   481.30         621.1179
   481.44         620.3506
   481.58         619.5519
   481.72         618.7441
   481.86         617.9429
   482.00         617.2027
   482.14         616.5688
   482.28         616.0505
   482.42         615.6895
   482.56         615.5544
   482.70         615.6956
   482.84         616.1366
   482.98         616.8716
   483.12         617.8499
   483.26         618.9763
   483.40         620.1346
   483.54         621.1990
   483.68         622.0398
   483.82         622.5177
   483.96         622.4606
   484.10         621.6789
   484.24         619.9801
   484.38         617.1492
   484.52         612.9832
   484.66         607.3231
   484.80         600.0706
   484.94         591.3074
   485.08         581.3872
   485.22         570.8944
   485.36         560.5580
   485.50         551.1412
   485.64         543.3494
   485.78         537.7683
   485.92         534.7820
   486.06         534.4953
   486.20         536.7225
   486.34         541.0245
   486.48         546.7553
   486.62         553.1584
   486.76         559.4883
   486.90         565.0900
   487.04         569.4789
   487.18         572.4023
   487.32         573.8819
   487.46         574.2077
   487.60         573.8125
   487.74         573.1479
   487.88         572.6020
   488.02         572.4359
   488.16         572.7726
   488.30         573.6266
   488.44         574.9330
   488.58         576.5721
   488.72         578.4029
   488.86         580.3232
   489.00         582.2784
   489.14         584.2233
   489.28         586.1243
   489.42         587.9502
   489.56         589.6505
   489.70         591.1656
   489.84         592.4474
   489.98         593.4979
   490.12         594.3505
   490.26         595.0213
   490.40         595.5130
   490.54         595.7755
   490.68         595.6653
   490.82         595.0020
   490.96         593.6670
   491.10         591.6634
   491.24         589.1249
   491.38         586.2809
   491.52         583.4204
   491.66         580.8238
   491.80         578.7154
   491.94         577.2768
   492.08         576.6280
   492.22         576.7933
   492.36         577.7142
   492.50         579.3015
   492.64         581.4171
   492.78         583.8055
   492.92         586.1491
   493.06         588.1559
   493.20         589.5989
   493.34         590.3649
   493.48         590.5251
   493.62         590.3142
   493.76         589.9954
   493.90         589.7665
   494.04         589.7239
   494.18         589.8519
   494.32         590.0444
   494.46         590.1794
   494.60         590.1539
   494.74         589.8648
   494.88         589.2350
   495.02         588.2443
   495.16         586.9029
   495.30         585.2153
   495.44         583.2085
   495.58         580.9708
   495.72         578.6217
   495.86         576.3025
   496.00         574.1735
   496.14         572.3829
   496.28         571.0016
   496.42         569.9847
   496.56         569.2428
   496.70         568.7068
   496.84         568.3285
   496.98         568.0740
   497.12         567.9321
   497.26         567.8991
   497.40         567.9605
   497.54         568.0947
   497.68         568.2630
   497.82         568.4080
   497.96         568.4836
   498.10         568.4508
   498.24         568.2630
   498.38         567.8984
   498.52         567.3666
   498.66         566.6685
   498.80         565.7305
   498.94         564.3536
   499.08         562.3617
   499.22         559.7592
   499.36         556.6907
   499.50         553.3549
   499.64         549.9591
   499.78         546.7056
   499.92         543.7674
   500.06         541.2644
   500.20         539.2516
   500.34         537.7010
   500.48         536.5219
   500.62         535.6192
   500.76         534.9202
   500.90         534.3939
   501.04         534.0386
   501.18         533.8397
   501.32         533.7630
   501.46         533.7558
   501.60         533.8011
   501.74         533.9904
   501.88         534.4193
   502.02         535.0976
   502.16         535.9826
   502.30         536.9891
   502.44         537.9971
   502.58         538.8771
   502.72         539.5370
   502.86         539.9260
   503.00         540.0100
   503.14         539.7846
   503.28         539.2816
   503.42         538.5420
   503.56         537.5895
   503.70         536.4088
   503.84         534.9666
   503.98         533.2609
   504.12         531.3508
   504.26         529.3596
   504.40         527.4502
   504.54         525.8011
   504.68         524.5587
   504.82         523.7848
   504.96         523.4599
   505.10         523.5105
   505.24         523.8466
   505.38         524.3905
   505.52         525.0426
   505.66         525.6665
   505.80         526.1576
   505.94         526.4821
   506.08         526.6397
   506.22         526.6400
   506.36         526.5032
   506.50         526.2604
   506.64         525.9454
   506.78         525.5846
   506.92         525.1834
   507.06         524.7281
   507.20         524.1995
   507.34         523.5636
   507.48         522.7998
   507.62         521.9403
   507.76         521.0480
   507.90         520.1929
   508.04         519.4572
   508.18         518.9148
   508.32         518.6157
   508.46         518.5793
   508.60         518.7613
   508.74         519.0594
   508.88         519.3720
   509.02         519.6159
   509.16         519.7197
   509.30         519.6266
   509.44         519.2944
   509.58         518.6985
   509.72         517.8333
   509.86         516.7145
   510.00         515.3902
   510.14         513.9587
   510.28         512.5572
   510.42         511.3152
   510.56         510.3155
   510.70         509.5884
   510.84         509.1171
   510.98         508.8520
   511.12         508.7307
   511.26         508.6980
   511.40         508.7184
   511.54         508.7671
   511.68         508.8040
   511.82         508.7711
   511.96         508.6193
   512.10         508.3407
   512.24         507.9870
   512.38         507.6337
   512.52         507.3351
   512.66         507.1125
   512.80         506.9497
   512.94         506.8013
   513.08         506.6147
   513.22         506.3341
   513.36         505.9089
   513.50         505.3253
   513.64         504.6137
   513.78         503.8371
   513.92         503.0679
   514.06         502.3551
   514.20         501.7136
   514.34         501.1417
   514.48         500.6384
   514.62         500.2082
   514.76         499.8452
   514.90         499.5113
   515.04         499.1250
   515.18         498.6008
   515.32         497.9148
   515.46         497.1241
   515.60         496.3273
   515.74         495.6182
   515.88         495.0625
   516.02         494.6969
   516.16         494.5437
   516.30         494.6112
   516.44         494.8763
   516.58         495.2668
   516.72         495.6770
   516.86         496.0228
   517.00         496.2656
   517.14         496.3897
   517.28         496.3945
   517.42         496.2894
   517.56         496.0949
   517.70         495.8550
   517.84         495.6282
   517.98         495.4604
   518.12         495.3566
   518.26         495.2745
   518.40         495.1567
   518.54         494.9621
   518.68         494.6677
   518.82         494.2661
   518.96         493.7651
   519.10         493.1759
   519.24         492.5103
   519.38         491.7972
   519.52         491.0738
   519.66         490.3567
   519.80         489.6485
   519.94         488.9482
   520.08         488.2403
   520.22         487.5069
   520.36         486.7329
   520.50         485.8953
   520.64         484.9776
   520.78         483.9917
   520.92         482.9566
   521.06         481.8856
   521.20         480.8026
   521.34         479.7428
   521.48         478.7371
   521.62         477.8017
   521.76         476.9429
   521.90         476.1592
   522.04         475.4355
   522.18         474.7434
   522.32         474.0522
   522.46         473.3362
   522.60         472.5859
   522.74         471.8235
   522.88         471.1056
   523.02         470.4908
   523.16         470.0162
   523.30         469.7074
   523.44         469.5658
   523.58         469.5493
   523.72         469.5995
   523.86         469.6554
   524.00         469.6454
   524.14         469.4998
   524.28         469.1716
   524.42         468.6505
   524.56         467.9538
   524.70         467.1158
   524.84         466.1799
   524.98         465.1830
   525.12         464.1479
   525.26         463.0993
   525.40         462.0581
   525.54         461.0132
   525.68         459.9283
   525.82         458.7714
   525.96         457.5294
   526.10         456.2075
   526.24         454.8320
   526.38         453.4475
   526.52         452.1024
   526.66         450.8493
   526.80         449.7494
   526.94         448.8706
   527.08         448.2593
   527.22         447.9123
   527.36         447.7963
   527.50         447.8669
   527.64         448.0702
   527.78         448.3445
   527.92         448.6320
   528.06         448.8851
   528.20         449.0645
   528.34         449.1487
   528.48         449.1242
   528.62         448.9684
   528.76         448.6622
   528.90         448.1996
   529.04         447.5803
   529.18         446.8150
   529.32         445.9365
   529.46         445.0005
   529.60         444.0812
   529.74         443.2583
   529.88         442.6187
   530.02         442.2465
   530.16         442.1895
   530.30         442.4361
   530.44         442.9133
   530.58         443.5145
   530.72         444.1265
   530.86         444.6307
   531.00         444.9004
   531.14         444.8152
   531.28         444.2927
   531.42         443.3108
   531.56         441.9072
   531.70         440.1679
   531.84         438.2144
   531.98         436.1910
   532.12         434.2487
   532.26         432.5315
   532.40         431.1596
   532.54         430.2060
   532.68         429.6801
   532.82         429.5369
   532.96         429.6943
   533.10         430.0458
   533.24         430.4760
   533.38         430.8650
   533.52         431.1006
   533.66         431.1039
   533.80         430.8425
   533.94         430.3227
   534.08         429.5740
   534.22         428.6486
   534.36         427.6107
   534.50         426.5191
   534.64         425.4279
   534.78         424.3853
   534.92         423.4362
   535.06         422.6132
   535.20         421.9175
   535.34         421.3237
   535.48         420.7999
   535.62         420.3181
   535.76         419.8549
   535.90         419.3873
   536.04         418.9062
   536.18         418.4248
   536.32         417.9613
   536.46         417.5275
   536.60         417.1252
   536.74         416.7453
   536.88         416.3706
   537.02         415.9783
   537.16         415.5610
   537.30         415.1384
   537.44         414.7411
   537.58         414.3986
   537.72         414.1231
   537.86         413.9103
   538.00         413.7521
   538.14         413.6368
   538.28         413.5529
   538.42         413.4956
   538.56         413.4619
   538.70         413.4455
   538.84         413.4283
   538.98         413.3718
   539.12         413.2237
   539.26         412.9271
   539.40         412.4236
   539.54         411.6532
   539.68         410.5616
   539.82         409.1192
   539.96         407.3226
   540.10         405.2019
   540.24         402.8451
   540.38         400.3946
   540.52         398.0242
   540.66         395.9020
   540.80         394.1594
   540.94         392.8881
   541.08         392.1405
   541.22         391.9146
   541.36         392.1554
   541.50         392.7806
   541.64         393.7002
   541.78         394.8206
   541.92         396.0340
   542.06         397.2135
   542.20         398.2475
   542.34         399.0742
   542.48         399.6820
   542.62         400.0825
   542.76         400.2880
   542.90         400.3100
   543.04         400.1572
   543.18         399.8329
   543.32         399.3357
   543.46         398.6736
   543.60         397.8822
   543.74         397.0095
   543.88         396.1021
   544.02         395.2004
   544.16         394.3254
   544.30         393.4816
   544.44         392.6648
   544.58         391.8693
   544.72         391.1082
   544.86         390.4265
   545.00         389.8734
   545.14         389.4644
   545.28         389.1721
   545.42         388.9469
   545.56         388.7517
   545.70         388.5741
   545.84         388.4123
   545.98         388.2632
   546.12         388.1278
   546.26         388.0136
   546.40         387.9272
   546.54         387.8729
   546.68         387.8462
   546.82         387.8370
   546.96         387.8433
   547.10         387.8639
   547.24         387.8849
   547.38         387.8756
   547.52         387.7920
   547.66         387.5798
   547.80         387.1894
   547.94         386.6087
   548.08         385.8835
   548.22         385.0960
   548.36         384.3193
   548.50         383.5898
   548.64         382.9271
   548.78         382.3465
   548.92         381.8487
   549.06         381.4239
   549.20         381.0523
   549.34         380.7070
   549.48         380.3524
   549.62         379.9432
   549.76         379.4395
   549.90         378.8221
   550.04         378.0995
   550.18         377.3022
   550.32         376.4686
   550.46         375.6409
   550.60         374.8636
   550.74         374.1603
   550.88         373.5162
   551.02         372.8999
   551.16         372.2954
   551.30         371.7101
   551.44         371.1527
   551.58         370.6215
   551.72         370.1195
   551.86         369.6555
   552.00         369.2333
   552.14         368.8509
   552.28         368.5088
   552.42         368.2040
   552.56         367.9218
   552.70         367.6431
   552.84         367.3575
   552.98         367.0668
   553.12         366.7810
   553.26         366.5135
   553.40         366.2755
   553.54         366.0776
   553.68         365.9323
   553.82         365.8450
   553.96         365.8015
   554.10         365.7657
   554.24         365.6880
   554.38         365.5211
   554.52         365.2279
   554.66         364.7854
   554.80         364.1977
   554.94         363.4940
   555.08         362.7201
   555.22         361.9455
   555.36         361.2561
   555.50         360.7243
   555.64         360.3838
   555.78         360.2230
   555.92         360.1952
   556.06         360.2306
   556.20         360.2579
   556.34         360.2322
   556.48         360.1393
   556.62         359.9826
   556.76         359.7750
   556.90         359.5282
   557.04         359.2437
   557.18         358.9142
   557.32         358.5337
   557.46         358.1061
   557.60         357.6390
   557.74         357.1260
   557.88         356.5409
   558.02         355.8388
   558.16         354.9750
   558.30         353.9382
   558.44         352.7599
   558.58         351.5070
   558.72         350.2693
   558.86         349.1427
   559.00         348.2090
   559.14         347.5150
   559.28         347.0732
   559.42         346.8769
   559.56         346.9035
   559.70         347.1180
   559.84         347.4788
   559.98         347.9366
   560.12         348.4251
   560.26         348.8558
   560.40         349.1369
   560.54         349.2023
   560.68         349.0259
   560.82         348.6289
   560.96         348.0695
   561.10         347.4150
   561.24         346.7203
   561.38         346.0335
   561.52         345.4063
   561.66         344.8922
   561.80         344.5365
   561.94         344.3610
   562.08         344.3575
   562.22         344.4973
   562.36         344.7515
   562.50         345.0792
   562.64         345.4152
   562.78         345.6896
   562.92         345.8446
   563.06         345.8447
   563.20         345.6775
   563.34         345.3485
   563.48         344.8824
   563.62         344.3228
   563.76         343.7152
   563.90         343.0885
   564.04         342.4624
   564.18         341.8518
   564.32         341.2645
   564.46         340.6997
   564.60         340.1453
   564.74         339.5910
   564.88         339.0387
   565.02         338.4877
   565.16         337.9202
   565.30         337.3285
   565.44         336.7304
   565.58         336.1418
   565.72         335.5664
   565.86         335.0012
   566.00         334.4383
   566.14         333.8675
   566.28         333.2776
   566.42         332.6608
   566.56         332.0297
   566.70         331.4214
   566.84         330.8737
   566.98         330.4154
   567.12         330.0711
   567.26         329.8568
   567.40         329.7717
   567.54         329.7967
   567.68         329.9060
   567.82         330.0722
   567.96         330.2656
   568.10         330.4511
   568.24         330.5927
   568.38         330.6748
   568.52         330.7036
   568.66         330.6836
   568.80         330.6052
   568.94         330.4519
   569.08         330.2141
   569.22         329.8867
   569.36         329.4534
   569.50         328.8929
   569.64         328.2130
   569.78         327.4595
   569.92         326.6845
   570.06         325.9257
   570.20         325.2160
   570.34         324.5882
   570.48         324.0575
   570.62         323.6122
   570.76         323.2285
   570.90         322.8847
   571.04         322.5571
   571.18         322.2123
   571.32         321.8111
   571.46         321.3228
   571.60         320.7445
   571.74         320.1038
   571.88         319.4393
   572.02         318.7800
   572.16         318.1483
   572.30         317.5689
   572.44         317.0510
   572.58         316.5681
   572.72         316.0709
   572.86         315.5261
   573.00         314.9303
   573.14         314.2988
   573.28         313.6585
   573.42         313.0464
   573.56         312.4972
   573.70         312.0383
   573.84         311.7020
   573.98         311.5282
   574.12         311.5543
   574.26         311.7943
   574.40         312.2253
   574.54         312.7970
   574.68         313.4492
   574.82         314.1272
   574.96         314.7683
   575.10         315.2852
   575.24         315.5860
   575.38         315.6044
   575.52         315.3156
   575.66         314.7234
   575.80         313.8437
   575.94         312.7102
   576.08         311.3831
   576.22         309.9402
   576.36         308.4559
   576.50         306.9830
   576.64         305.5343
   576.78         304.0641
   576.92         302.4839
   577.06         300.7337
   577.20         298.8339
   577.34         296.8640
   577.48         294.9176
   577.62         293.0789
   577.76         291.4322
   577.90         290.0713
   578.04         289.0860
   578.18         288.5342
   578.32         288.4058
   578.46         288.6234
   578.60         289.0714
   578.74         289.6138
   578.88         290.1124
   579.02         290.4603
   579.16         290.5975
   579.30         290.5074
   579.44         290.2205
   579.58         289.8246
   579.72         289.4462
   579.86         289.1900
   580.00         289.1014
   580.14         289.1877
   580.28         289.4533
   580.42         289.9085
   580.56         290.5501
   580.70         291.3446
   580.84         292.2317
   580.98         293.1457
   581.12         294.0487
   581.26         294.9256
   581.40         295.7599
   581.54         296.5386
   581.68         297.2560
   581.82         297.9046
   581.96         298.4710
   582.10         298.9406
   582.24         299.3038
   582.38         299.5537
   582.52         299.6953
   582.66         299.7611
   582.80         299.8030
   582.94         299.8605
   583.08         299.9351
   583.22         299.9843
   583.36         299.9456
   583.50         299.7704
   583.64         299.4292
   583.78         298.9133
   583.92         298.2354
   584.06         297.4260
   584.20         296.5353
   584.34         295.6279
   584.48         294.7682
   584.62         294.0092
   584.76         293.3979
   584.90         292.9691
   585.04         292.7411
   585.18         292.7290
   585.32         292.9383
   585.46         293.3435
   585.60         293.8707
   585.74         294.3847
   585.88         294.6985
   586.02         294.6071
   586.16         293.9129
   586.30         292.4680
   586.44         290.2393
   586.58         287.3267
   586.72         283.9396
   586.86         280.3600
   587.00         276.9056
   587.14         273.8861
   587.28         271.5458
   587.42         270.0030
   587.56         269.2021
   587.70         268.9290
   587.84         268.9385
   587.98         269.0412
   588.12         269.0556
   588.26         268.7604
   588.40         267.9654
   588.54         266.6381
   588.68         264.9266
   588.82         263.1043
   588.96         261.5165
   589.10         260.5113
   589.24         260.3494
   589.38         261.1447
   589.52         262.8565
   589.66         265.3287
   589.80         268.3272
   589.94         271.5639
   590.08         274.7336
   590.22         277.5735
   590.36         279.9308
   590.50         281.7858
   590.64         283.1565
   590.78         284.0312
   590.92         284.4257
   591.06         284.4261
   591.20         284.1523
   591.34         283.7001
   591.48         283.1410
   591.62         282.5370
   591.76         281.9431
   591.90         281.3954
   592.04         280.9134
   592.18         280.5207
   592.32         280.2422
   592.46         280.0861
   592.60         280.0285
   592.74         280.0063
   592.88         279.9336
   593.02         279.7396
   593.16         279.3897
   593.30         278.8637
   593.44         278.1364
   593.58         277.1888
   593.72         276.0366
   593.86         274.7629
   594.00         273.5098
   594.14         272.4211
   594.28         271.5944
   594.42         271.0793
   594.56         270.8831
   594.70         270.9817
   594.84         271.3222
   594.98         271.8155
   595.12         272.3458
   595.26         272.7844
   595.40         273.0108
   595.54         272.9501
   595.68         272.5947
   595.82         271.9839
   595.96         271.1662
   596.10         270.2037
   596.24         269.1848
   596.38         268.1985
   596.52         267.3097
   596.66         266.5541
   596.80         265.9329
   596.94         265.4218
   597.08         264.9925
   597.22         264.6202
   597.36         264.2783
   597.50         263.9350
   597.64         263.5690
   597.78         263.1718
   597.92         262.7408
   598.06         262.2929
   598.20         261.8645
   598.34         261.4886
   598.48         261.1761
   598.62         260.9189
   598.76         260.7024
   598.90         260.5177
   599.04         260.3567
   599.18         260.2037
   599.32         260.0405
   599.46         259.8493
   599.60         259.6061
   599.74         259.2810
   599.88         258.8526
   600.02         258.3194
   600.16         257.7129
   600.30         257.0902
   600.44         256.4966
   600.58         255.9586
   600.72         255.5066
   600.86         255.1713
   601.00         254.9711
   601.14         254.9113
   601.28         254.9774
   601.42         255.1193
   601.56         255.2653
   601.70         255.3481
   601.84         255.3119
   601.98         255.1306
   602.12         254.8108
   602.26         254.3673
   602.40         253.8166
   602.54         253.1858
   602.68         252.5140
   602.82         251.8426
   602.96         251.2005
   603.10         250.6063
   603.24         250.0862
   603.38         249.6760
   603.52         249.3987
   603.66         249.2529
   603.80         249.2154
   603.94         249.2457
   604.08         249.3029
   604.22         249.3698
   604.36         249.4455
   604.50         249.5183
   604.64         249.5711
   604.78         249.5928
   604.92         249.5780
   605.06         249.5318
   605.20         249.4668
   605.34         249.3897
   605.48         249.2896
   605.62         249.1481
   605.76         248.9604
   605.90         248.7381
   606.04         248.4996
   606.18         248.2570
   606.32         248.0164
   606.46         247.7889
   606.60         247.5908
   606.74         247.4358
   606.88         247.3234
   607.02         247.2338
   607.16         247.1396
   607.30         247.0278
   607.44         246.8960
   607.58         246.7383
   607.72         246.5461
   607.86         246.3126
   608.00         246.0407
   608.14         245.7516
   608.28         245.4825
   608.42         245.2705
   608.56         245.1379
   608.70         245.0786
   608.84         245.0637
   608.98         245.0651
   609.12         245.0653
   609.26         245.0454
   609.40         244.9821
   609.54         244.8474
   609.68         244.6227
   609.82         244.3133
   609.96         243.9360
   610.10         243.5102
   610.24         243.0620
   610.38         242.6203
   610.52         242.2016
   610.66         241.8138
   610.80         241.4691
   610.94         241.1811
   611.08         240.9566
   611.22         240.7905
   611.36         240.6595
   611.50         240.5332
   611.64         240.3866
   611.78         240.1928
   611.92         239.9255
   612.06         239.5748
   612.20         239.1514
   612.34         238.6826
   612.48         238.1947
   612.62         237.7085
   612.76         237.2511
   612.90         236.8494
   613.04         236.5163
   613.18         236.2504
   613.32         236.0434
   613.46         235.8854
   613.60         235.7635
   613.74         235.6607
   613.88         235.5628
   614.02         235.4671
   614.16         235.3819
   614.30         235.3220
   614.44         235.3037
   614.58         235.3357
   614.72         235.4149
   614.86         235.5235
   615.00         235.6337
   615.14         235.7195
   615.28         235.7589
   615.42         235.7260
   615.56         235.5845
   615.70         235.2919
   615.84         234.8148
   615.98         234.1427
   616.12         233.2926
   616.26         232.2980
   616.40         231.1963
   616.54         230.0360
   616.68         228.8820
   616.82         227.8002
   616.96         226.8452
   617.10         226.0558
   617.24         225.4514
   617.38         225.0362
   617.52         224.8005
   617.66         224.7182
   617.80         224.7514
   617.94         224.8637
   618.08         225.0229
   618.22         225.1962
   618.36         225.3567
   618.50         225.4925
   618.64         225.6081
   618.78         225.7096
   618.92         225.7904
   619.06         225.8346
   619.20         225.8298
   619.34         225.7642
   619.48         225.6246
   619.62         225.4072
   619.76         225.1377
   619.90         224.8621
   620.04         224.6205
   620.18         224.4427
   620.32         224.3501
   620.46         224.3544
   620.60         224.4569
   620.74         224.6419
   620.88         224.8825
   621.02         225.1562
   621.16         225.4466
   621.30         225.7325
   621.44         225.9804
   621.58         226.1573
   621.72         226.2464
   621.86         226.2495
   622.00         226.1760
   622.14         226.0371
   622.28         225.8378
   622.42         225.5748
   622.56         225.2389
   622.70         224.8224
   622.84         224.3339
   622.98         223.7988
   623.12         223.2501
   623.26         222.7264
   623.40         222.2703
   623.54         221.9216
   623.68         221.7086
   623.82         221.6425
   623.96         221.7157
   624.10         221.9017
   624.24         222.1652
   624.38         222.4731
   624.52         222.7948
   624.66         223.0995
   624.80         223.3577
   624.94         223.5436
   625.08         223.6172
   625.22         223.5106
   625.36         223.1569
   625.50         222.5279
   625.64         221.6399
   625.78         220.5452
   625.92         219.3212
   626.06         218.0543
   626.20         216.8247
   626.34         215.6932
   626.48         214.6904
   626.62         213.7993
   626.76         212.9730
   626.90         212.1615
   627.04         211.2983
   627.18         210.2920
   627.32         209.0580
   627.46         207.5665
   627.60         205.8607
   627.74         204.0361
   627.88         202.2408
   628.02         200.6765
   628.16         199.5473
   628.30         199.0011
   628.44         199.1123
   628.58         199.8848
   628.72         201.2551
   628.86         203.1012
   629.00         205.2582
   629.14         207.5443
   629.28         209.7840
   629.42         211.8326
   629.56         213.5727
   629.70         214.9114
   629.84         215.8092
   629.98         216.2921
   630.12         216.4305
   630.26         216.2974
   630.40         215.9524
   630.54         215.4510
   630.68         214.8455
   630.82         214.1830
   630.96         213.5096
   631.10         212.8713
   631.24         212.3070
   631.38         211.8470
   631.52         211.5180
   631.66         211.3426
   631.80         211.3297
   631.94         211.4692
   632.08         211.7376
   632.22         212.1046
   632.36         212.5409
   632.50         213.0172
   632.64         213.5036
   632.78         213.9698
   632.92         214.3854
   633.06         214.7265
   633.20         214.9711
   633.34         215.0971
   633.48         215.0967
   633.62         214.9771
   633.76         214.7511
   633.90         214.4377
   634.04         214.0599
   634.18         213.6334
   634.32         213.1652
   634.46         212.6620
   634.60         212.1355
   634.74         211.6074
   634.88         211.1096
   635.02         210.6739
   635.16         210.3185
   635.30         210.0473
   635.44         209.8550
   635.58         209.7302
   635.72         209.6592
   635.86         209.6204
   636.00         209.5886
   636.14         209.5440
   636.28         209.4682
   636.42         209.3418
   636.56         209.1510
   636.70         208.8901
   636.84         208.5635
   636.98         208.1872
   637.12         207.7853
   637.26         207.3881
   637.40         207.0248
   637.54         206.7120
   637.68         206.4549
   637.82         206.2521
   637.96         206.1049
   638.10         206.0175
   638.24         205.9936
   638.38         206.0316
   638.52         206.1186
   638.66         206.2399
   638.80         206.3804
   638.94         206.5219
   639.08         206.6506
   639.22         206.7575
   639.36         206.8248
   639.50         206.8304
   639.64         206.7643
   639.78         206.6290
   639.92         206.4351
   640.06         206.1936
   640.20         205.9137
   640.34         205.6055
   640.48         205.2847
   640.62         204.9718
   640.76         204.6874
   640.90         204.4492
   641.04         204.2652
   641.18         204.1304
   641.32         204.0354
   641.46         203.9675
   641.60         203.9143
   641.74         203.8666
   641.88         203.8118
   642.02         203.7378
   642.16         203.6471
   642.30         203.5545
   642.44         203.4730
   642.58         203.4053
   642.72         203.3418
   642.86         203.2678
   643.00         203.1735
   643.14         203.0509
   643.28         202.8899
   643.42         202.6821
   643.56         202.4192
   643.70         202.0919
   643.84         201.6988
   643.98         201.2541
   644.12         200.7836
   644.26         200.3182
   644.40         199.8835
   644.54         199.4969
   644.68         199.1698
   644.82         198.9081
   644.96         198.7122
   645.10         198.5696
   645.24         198.4538
   645.38         198.3403
   645.52         198.2179
   645.66         198.0845
   645.80         197.9440
   645.94         197.7993
   646.08         197.6411
   646.22         197.4513
   646.36         197.2128
   646.50         196.9233
   646.64         196.5979
   646.78         196.2580
   646.92         195.9200
   647.06         195.5958
   647.20         195.3008
   647.34         195.0518
   647.48         194.8586
   647.62         194.7218
   647.76         194.6339
   647.90         194.5800
   648.04         194.5394
   648.18         194.4949
   648.32         194.4413
   648.46         194.3830
   648.60         194.3254
   648.74         194.2780
   648.88         194.2597
   649.02         194.2969
   649.16         194.4233
   649.30         194.6661
   649.44         195.0280
   649.58         195.4899
   649.72         196.0226
   649.86         196.5875
   650.00         197.1356
   650.14         197.6123
   650.28         197.9685
   650.42         198.1677
   650.56         198.1953
   650.70         198.0687
   650.84         197.8336
   650.98         197.5392
   651.12         197.2177
   651.26         196.8881
   651.40         196.5677
   651.54         196.2737
   651.68         196.0183
   651.82         195.8030
   651.96         195.6135
   652.10         195.4271
   652.24         195.2293
   652.38         195.0180
   652.52         194.7952
   652.66         194.5666
   652.80         194.3475
   652.94         194.1605
   653.08         194.0288
   653.22         193.9762
   653.36         194.0182
   653.50         194.1434
   653.64         194.3144
   653.78         194.4902
   653.92         194.6437
   654.06         194.7567
   654.20         194.8088
   654.34         194.7725
   654.48         194.6055
   654.62         194.2473
   654.76         193.6314
   654.90         192.7044
   655.04         191.4422
   655.18         189.8704
   655.32         188.0859
   655.46         186.2473
   655.60         184.5359
   655.74         183.1238
   655.88         182.1530
   656.02         181.7153
   656.16         181.8417
   656.30         182.5157
   656.44         183.6848
   656.58         185.2556
   656.72         187.0869
   656.86         189.0018
   657.00         190.8127
   657.14         192.3566
   657.28         193.5264
   657.42         194.2862
   657.56         194.6665
   657.70         194.7465
   657.84         194.6268
   657.98         194.3996
   658.12         194.1232
   658.26         193.8178
   658.40         193.4855
   658.54         193.1324
   658.68         192.7751
   658.82         192.4410
   658.96         192.1610
   659.10         191.9535
   659.24         191.8176
   659.38         191.7385
   659.52         191.7019
   659.66         191.6986
   659.80         191.7094
   659.94         191.6894
   660.08         191.5719
   660.22         191.2982
   660.36         190.8501
   660.50         190.2465
   660.64         189.5299
   660.78         188.7579
   660.92         187.9931
   661.06         187.3017
   661.20         186.7432
   661.34         186.3553
   661.48         186.1511
   661.62         186.1193
   661.76         186.2310
   661.90         186.4537
   662.04         186.7516
   662.18         187.0795
   662.32         187.3808
   662.46         187.5986
   662.60         187.7014
   662.74         187.6911
   662.88         187.5957
   663.02         187.4521
   663.16         187.2759
   663.30         187.0637
   663.44         186.8100
   663.58         186.5145
   663.72         186.1833
   663.86         185.8241
   664.00         185.4464
   664.14         185.0663
   664.28         184.7016
   664.42         184.3641
   664.56         184.0560
   664.70         183.7667
   664.84         183.4785
   664.98         183.1777
   665.12         182.8589
   665.26         182.5232
   665.40         182.1688
   665.54         181.7959
   665.68         181.4149
   665.82         181.0385
   665.96         180.6718
   666.10         180.3003
   666.24         179.8842
   666.38         179.3674
   666.52         178.6917
   666.66         177.8182
   666.80         176.7456
   666.94         175.5127
   667.08         174.1914
   667.22         172.8781
   667.36         171.6802
   667.50         170.7047
   667.64         170.0443
   667.78         169.7632
   667.92         169.8916
   668.06         170.4221
   668.20         171.3046
   668.34         172.4486
   668.48         173.7298
   668.62         175.0090
   668.76         176.1564
   668.90         177.0725
   669.04         177.7036
   669.18         178.0469
   669.32         178.1421
   669.46         178.0511
   669.60         177.8340
   669.74         177.5389
   669.88         177.2001
   670.02         176.8419
   670.16         176.4873
   670.30         176.1564
   670.44         175.8628
   670.58         175.6176
   670.72         175.4295
   670.86         175.2994
   671.00         175.2290
   671.14         175.2261
   671.28         175.2969
   671.42         175.4364
   671.56         175.6295
   671.70         175.8550
   671.84         176.0783
   671.98         176.2557
   672.12         176.3482
   672.26         176.3314
   672.40         176.1980
   672.54         175.9523
   672.68         175.6077
   672.82         175.1909
   672.96         174.7405
   673.10         174.2983
   673.24         173.9043
   673.38         173.5847
   673.52         173.3448
   673.66         173.1782
   673.80         173.0706
   673.94         172.9986
   674.08         172.9360
   674.22         172.8612
   674.36         172.7593
   674.50         172.6259
   674.64         172.4716
   674.78         172.3118
   674.92         172.1557
   675.06         172.0029
   675.20         171.8487
   675.34         171.6973
   675.48         171.5655
   675.62         171.4706
   675.76         171.4177
   675.90         171.3998
   676.04         171.4027
   676.18         171.4120
   676.32         171.4174
   676.46         171.4120
   676.60         171.3893
   676.74         171.3408
   676.88         171.2618
   677.02         171.1562
   677.16         171.0314
   677.30         170.8930
   677.44         170.7446
   677.58         170.5971
   677.72         170.4693
   677.86         170.3760
   678.00         170.3198
   678.14         170.2833
   678.28         170.2354
   678.42         170.1466
   678.56         169.9972
   678.70         169.7839
   678.84         169.5228
   678.98         169.2416
   679.12         168.9725
   679.26         168.7420
   679.40         168.5679
   679.54         168.4677
   679.68         168.4552
   679.82         168.5309
   679.96         168.6811
   680.10         168.8877
   680.24         169.1320
   680.38         169.3896
   680.52         169.6310
   680.66         169.8288
   680.80         169.9609
   680.94         170.0126
   681.08         169.9770
   681.22         169.8533
   681.36         169.6487
   681.50         169.3768
   681.64         169.0525
   681.78         168.6908
   681.92         168.3039
   682.06         167.9094
   682.20         167.5366
   682.34         167.2108
   682.48         166.9449
   682.62         166.7431
   682.76         166.6051
   682.90         166.5259
   683.04         166.4955
   683.18         166.4944
   683.32         166.4910
   683.46         166.4510
   683.60         166.3516
   683.74         166.1873
   683.88         165.9662
   684.02         165.7102
   684.16         165.4484
   684.30         165.2053
   684.44         164.9979
   684.58         164.8367
   684.72         164.7262
   684.86         164.6624
   685.00         164.6304
   685.14         164.6082
   685.28         164.5658
   685.42         164.4438
   685.56         164.1227
   685.70         163.4318
   685.84         162.2000
   685.98         160.3110
   686.12         157.7363
   686.26         154.5411
   686.40         150.8742
   686.54         146.9512
   686.68         143.0371
   686.82         139.4211
   686.96         136.3825
   687.10         134.1545
   687.24         132.8865
   687.38         132.6129
   687.52         133.2550
   687.66         134.6366
   687.80         136.4983
   687.94         138.5340
   688.08         140.4395
   688.22         141.9713
   688.36         143.0052
   688.50         143.5379
   688.64         143.6517
   688.78         143.4769
   688.92         143.1618
   689.06         142.8519
   689.20         142.6686
   689.34         142.6980
   689.48         142.9873
   689.62         143.5316
   689.76         144.2738
   689.90         145.1278
   690.04         146.0100
   690.18         146.8607
   690.32         147.6466
   690.46         148.3512
   690.60         148.9702
   690.74         149.5111
   690.88         149.9896
   691.02         150.4171
   691.16         150.7926
   691.30         151.1147
   691.44         151.3901
   691.58         151.6254
   691.72         151.8188
   691.86         151.9604
   692.00         152.0440
   692.14         152.0691
   692.28         152.0367
   692.42         151.9485
   692.56         151.8071
   692.70         151.6077
   692.84         151.3357
   692.98         150.9806
   693.12         150.5457
   693.26         150.0520
   693.40         149.5409
   693.54         149.0599
   693.68         148.6469
   693.82         148.3380
   693.96         148.1741
   694.10         148.1853
   694.24         148.3695
   694.38         148.6923
   694.52         149.1053
   694.66         149.5573
   694.80         149.9933
   694.94         150.3632
   695.08         150.6315
   695.22         150.7836
   695.36         150.8326
   695.50         150.8236
   695.64         150.8238
   695.78         150.8987
   695.92         151.0956
   696.06         151.4361
   696.20         151.9192
   696.34         152.5289
   696.48         153.2346
   696.62         153.9846
   696.76         154.7105
   696.90         155.3433
   697.04         155.8297
   697.18         156.1431
   697.32         156.2802
   697.46         156.2475
   697.60         156.0565
   697.74         155.7217
   697.88         155.2555
   698.02         154.6672
   698.16         153.9678
   698.30         153.1785
   698.44         152.3337
   698.58         151.4737
   698.72         150.6384
   698.86         149.8742
   699.00         149.2302
   699.14         148.7387
   699.28         148.4083
   699.42         148.2337
   699.56         148.2032
   699.70         148.2952
   699.84         148.4786
   699.98         148.7166
   700.12         148.9727
   700.26         149.2166
   700.40         149.4239
   700.54         149.5789
   700.68         149.6816
   700.82         149.7446
   700.96         149.7826
   701.10         149.8027
   701.24         149.8021
   701.38         149.7755
   701.52         149.7178
   701.66         149.6165
   701.80         149.4534
   701.94         149.2219
   702.08         148.9406
   702.22         148.6421
   702.36         148.3529
   702.50         148.0933
   702.64         147.8794
   702.78         147.7186
   702.92         147.6089
   703.06         147.5455
   703.20         147.5242
   703.34         147.5358
   703.48         147.5600
   703.62         147.5710
   703.76         147.5481
   703.90         147.4728
   704.04         147.3272
   704.18         147.1092
   704.32         146.8358
   704.46         146.5275
   704.60         146.2050
   704.74         145.8872
   704.88         145.5687
   705.02         145.2119
   705.16         144.7636
   705.30         144.1713
   705.44         143.4093
   705.58         142.4954
   705.72         141.4863
   705.86         140.4621
   706.00         139.5091
   706.14         138.7083
   706.28         138.1293
   706.42         137.8244
   706.56         137.8185
   706.70         138.1085
   706.84         138.6674
   706.98         139.4404
   707.12         140.3524
   707.26         141.3229
   707.40         142.2674
   707.54         143.0998
   707.68         143.7600
   707.82         144.2325
   707.96         144.5422
   708.10         144.7463
   708.24         144.9057
   708.38         145.0599
   708.52         145.2256
   708.66         145.4069
   708.80         145.6020
   708.94         145.8020
   709.08         145.9960
   709.22         146.1764
   709.36         146.3373
   709.50         146.4672
   709.64         146.5481
   709.78         146.5667
   709.92         146.5204
   710.06         146.4200
   710.20         146.2876
   710.34         146.1487
   710.48         146.0250
   710.62         145.9321
   710.76         145.8867
   710.90         145.9018
   711.04         145.9777
   711.18         146.1096
   711.32         146.2880
   711.46         146.4835
   711.60         146.6584
   711.74         146.7975
   711.88         146.9027
   712.02         146.9769
   712.16         147.0233
   712.30         147.0504
   712.44         147.0734
   712.58         147.1117
   712.72         147.1704
   712.86         147.2305
   713.00         147.2691
   713.14         147.2649
   713.28         147.2054
   713.42         147.0905
   713.56         146.9218
   713.70         146.6993
   713.84         146.4245
   713.98         146.1064
   714.12         145.7679
   714.26         145.4472
   714.40         145.1880
   714.54         145.0139
   714.68         144.9267
   714.82         144.9219
   714.96         144.9854
   715.10         145.0904
   715.24         145.2040
   715.38         145.2719
   715.52         145.2320
   715.66         145.0352
   715.80         144.6324
   715.94         143.9819
   716.08         143.0523
   716.22         141.8251
   716.36         140.3054
   716.50         138.5232
   716.64         136.5517
   716.78         134.4988
   716.92         132.4734
   717.06         130.5693
   717.20         128.8474
   717.34         127.3258
   717.48         125.9932
   717.62         124.8330
   717.76         123.8396
   717.90         122.9997
   718.04         122.2766
   718.18         121.6377
   718.32         121.0767
   718.46         120.6097
   718.60         120.2660
   718.74         120.0674
   718.88         120.0208
   719.02         120.1248
   719.16         120.3735
   719.30         120.7588
   719.44         121.2591
   719.58         121.8466
   719.72         122.5112
   719.86         123.2658
   720.00         124.1568
   720.14         125.2584
   720.28         126.6257
   720.42         128.2567
   720.56         130.1023
   720.70         132.1125
   720.84         134.2538
   720.98         136.4689
   721.12         138.6369
   721.26         140.5969
   721.40         142.2105
   721.54         143.3940
   721.68         144.1173
   721.82         144.3951
   721.96         144.2631
   722.10         143.7557
   722.24         142.9088
   722.38         141.7723
   722.52         140.4204
   722.66         138.9476
   722.80         137.4318
   722.94         135.9189
   723.08         134.4436
   723.22         133.0465
   723.36         131.7792
   723.50         130.6869
   723.64         129.7856
   723.78         129.0773
   723.92         128.5675
   724.06         128.2304
   724.20         128.0118
   724.34         127.8733
   724.48         127.7890
   724.62         127.7280
   724.76         127.6734
   724.90         127.6453
   725.04         127.6816
   725.18         127.7968
   725.32         127.9619
   725.46         128.1196
   725.60         128.2378
   725.74         128.3248
   725.88         128.4048
   726.02         128.4991
   726.16         128.5928
   726.30         128.6323
   726.44         128.5382
   726.58         128.2295
   726.72         127.6788
   726.86         126.9458
   727.00         126.1221
   727.14         125.2711
   727.28         124.4502
   727.42         123.7254
   727.56         123.1482
   727.70         122.7314
   727.84         122.4572
   727.98         122.3028
   728.12         122.2466
   728.26         122.2612
   728.40         122.3085
   728.54         122.3557
   728.68         122.3940
   728.82         122.4265
   728.96         122.4496
   729.10         122.4492
   729.24         122.4293
   729.38         122.4227
   729.52         122.4602
   729.66         122.5458
   729.80         122.6595
   729.94         122.7683
   730.08         122.8296
   730.22         122.8002
   730.36         122.6557
   730.50         122.4005
   730.64         122.0633
   730.78         121.6842
   730.92         121.3156
   731.06         121.0286
   731.20         120.8870
   731.34         120.9192
   731.48         121.1127
   731.62         121.4311
   731.76         121.8428
   731.90         122.3355
   732.04         122.8949
   732.18         123.4862
   732.32         124.0588
   732.46         124.5615
   732.60         124.9602
   732.74         125.2410
   732.88         125.4038
   733.02         125.4585
   733.16         125.4203
   733.30         125.3075
   733.44         125.1428
   733.58         124.9571
   733.72         124.7821
   733.86         124.6324
   734.00         124.5035
   734.14         124.3923
   734.28         124.3074
   734.42         124.2592
   734.56         124.2524
   734.70         124.2796
   734.84         124.3282
   734.98         124.3885
   735.12         124.4511
   735.26         124.5055
   735.40         124.5344
   735.54         124.5152
   735.68         124.4250
   735.82         124.2430
   735.96         123.9614
   736.10         123.6003
   736.24         123.2025
   736.38         122.8145
   736.52         122.4765
   736.66         122.2134
   736.80         122.0416
   736.94         121.9665
   737.08         121.9747
   737.22         122.0446
   737.36         122.1493
   737.50         122.2614
   737.64         122.3626
   737.78         122.4422
   737.92         122.4891
   738.06         122.4857
   738.20         122.4149
   738.34         122.2761
   738.48         122.0841
   738.62         121.8593
   738.76         121.6202
   738.90         121.3760
   739.04         121.1363
   739.18         120.9141
   739.32         120.7186
   739.46         120.5605
   739.60         120.4442
   739.74         120.3649
   739.88         120.3133
   740.02         120.2697
   740.16         120.2116
   740.30         120.1199
   740.44         119.9751
   740.58         119.7596
   740.72         119.4626
   740.86         119.0895
   741.00         118.6621
   741.14         118.2049
   741.28         117.7448
   741.42         117.3165
   741.56         116.9607
   741.70         116.7133
   741.84         116.5892
   741.98         116.5799
   742.12         116.6609
   742.26         116.8025
   742.40         116.9737
   742.54         117.1402
   742.68         117.2699
   742.82         117.3404
   742.96         117.3404
   743.10         117.2699
   743.24         117.1402
   743.38         116.9737
   743.52         116.8025
   743.66         116.6609
   743.80         116.5799
   743.94         116.5892
   744.08         116.7133
   744.22         116.9607
