# File HD167451
# Wavelength [nm]    Normalized Amplitude
   349.70         1162.2623
   349.84         1163.4189
   349.98         1165.8754
   350.12         1169.3671
   350.26         1173.3465
   350.40         1177.2994
   350.54         1180.8852
   350.68         1183.8240
   350.82         1185.9382
   350.96         1187.1750
   351.10         1187.5700
   351.24         1187.1750
   351.38         1185.9382
   351.52         1183.8240
   351.66         1180.8852
   351.80         1177.2994
   351.94         1173.3465
   352.08         1169.3671
   352.22         1165.8754
   352.36         1163.4189
   352.50         1162.2623
   352.64         1162.3698
   352.78         1163.5570
   352.92         1165.6098
   353.06         1168.3297
   353.20         1171.4554
   353.34         1174.6368
   353.48         1177.5553
   353.62         1179.7855
   353.76         1180.9111
   353.90         1180.8438
   354.04         1179.7566
   354.18         1177.9909
   354.32         1175.9129
   354.46         1173.8385
   354.60         1171.9488
   354.74         1170.4091
   354.88         1169.4583
   355.02         1169.0891
   355.16         1169.0440
   355.30         1169.0876
   355.44         1168.9587
   355.58         1168.3174
   355.72         1167.0896
   355.86         1165.5202
   356.00         1163.6992
   356.14         1161.4842
   356.28         1158.8010
   356.42         1156.0565
   356.56         1154.0700
   356.70         1153.4837
   356.84         1154.4628
   356.98         1156.6691
   357.12         1159.6053
   357.26         1162.8982
   357.40         1166.2207
   357.54         1169.1275
   357.68         1171.0626
   357.82         1171.5894
   357.96         1170.5142
   358.10         1167.9767
   358.24         1164.4945
   358.38         1160.6946
   358.52         1156.9222
   358.66         1153.2431
   358.80         1149.9415
   358.94         1147.5657
   359.08         1146.4341
   359.22         1146.4223
   359.36         1147.0031
   359.50         1147.4122
   359.64         1147.0444
   359.78         1145.7570
   359.92         1143.6931
   360.06         1141.0744
   360.20         1138.2992
   360.34         1135.8887
   360.48         1134.3602
   360.62         1134.1694
   360.76         1135.5306
   360.90         1138.2030
   361.04         1141.5994
   361.18         1145.1207
   361.32         1148.2704
   361.46         1150.6718
   361.60         1152.0579
   361.74         1152.2343
   361.88         1151.0418
   362.02         1148.3745
   362.16         1144.4298
   362.30         1139.7579
   362.44         1135.0533
   362.58         1130.9480
   362.72         1127.8903
   362.86         1126.1745
   363.00         1125.7974
   363.14         1126.4827
   363.28         1127.8083
   363.42         1129.2800
   363.56         1130.5652
   363.70         1131.5381
   363.84         1132.1573
   363.98         1132.4626
   364.12         1132.6492
   364.26         1132.9827
   364.40         1133.6017
   364.54         1134.5388
   364.68         1135.9174
   364.82         1137.9036
   364.96         1140.3374
   365.10         1142.7576
   365.24         1144.6486
   365.38         1145.5290
   365.52         1145.1242
   365.66         1143.3638
   365.80         1140.3418
   365.94         1136.3416
   366.08         1131.8162
   366.22         1127.2402
   366.36         1122.9197
   366.50         1119.0035
   366.64         1115.5274
   366.78         1112.4451
   366.92         1109.7083
   367.06         1107.3599
   367.20         1105.5243
   367.34         1104.2468
   367.48         1103.5177
   367.62         1103.3669
   367.76         1103.8091
   367.90         1104.7448
   368.04         1106.0113
   368.18         1107.6169
   368.32         1109.6295
   368.46         1111.6490
   368.60         1112.6848
   368.74         1111.6866
   368.88         1108.1358
   369.02         1102.2503
   369.16         1094.6405
   369.30         1085.8996
   369.44         1076.6874
   369.58         1067.8494
   369.72         1060.1283
   369.86         1053.8566
   370.00         1049.0682
   370.14         1045.8330
   370.28         1044.1568
   370.42         1043.7731
   370.56         1044.4207
   370.70         1045.9410
   370.84         1048.0945
   370.98         1050.4624
   371.12         1052.4899
   371.26         1053.9296
   371.40         1055.1349
   371.54         1056.7264
   371.68         1059.0397
   371.82         1061.9804
   371.96         1065.2975
   372.10         1068.6295
   372.24         1071.4283
   372.38         1073.1246
   372.52         1073.3101
   372.66         1071.9518
   372.80         1069.4569
   372.94         1066.3706
   373.08         1063.3009
   373.22         1061.0817
   373.36         1060.4197
   373.50         1061.4972
   373.64         1063.9853
   373.78         1067.1525
   373.92         1070.0925
   374.06         1072.0589
   374.20         1072.6461
   374.34         1071.6890
   374.48         1069.2618
   374.62         1065.7366
   374.76         1061.8035
   374.90         1058.5279
   375.04         1056.9981
   375.18         1057.8696
   375.32         1061.4243
   375.46         1067.5245
   375.60         1075.4118
   375.74         1083.7787
   375.88         1090.9100
   376.02         1094.9610
   376.16         1094.5277
   376.30         1089.2859
   376.44         1080.1582
   376.58         1068.9371
   376.72         1057.8041
   376.86         1048.8463
   377.00         1043.7382
   377.14         1043.5966
   377.28         1048.8147
   377.42         1059.0627
   377.56         1073.3521
   377.70         1090.1400
   377.84         1107.6825
   377.98         1124.2920
   378.12         1138.3302
   378.26         1148.3473
   378.40         1153.2394
   378.54         1152.3468
   378.68         1145.6833
   378.82         1134.0263
   378.96         1118.6788
   379.10         1101.1059
   379.24         1082.7220
   379.38         1064.9203
   379.52         1049.1155
   379.66         1036.6295
   379.80         1028.6135
   379.94         1025.9795
   380.08         1029.1297
   380.22         1037.7215
   380.36         1050.7792
   380.50         1066.8803
   380.64         1084.1746
   380.78         1100.5630
   380.92         1114.1158
   381.06         1123.4844
   381.20         1128.2516
   381.34         1128.9264
   381.48         1126.4837
   381.62         1121.9711
   381.76         1116.3820
   381.90         1110.5035
   382.04         1104.7199
   382.18         1098.9353
   382.32         1092.6226
   382.46         1085.0720
   382.60         1075.7471
   382.74         1064.4931
   382.88         1051.6751
   383.02         1038.1684
   383.16         1025.1141
   383.30         1013.8268
   383.44         1005.7661
   383.58         1002.2742
   383.72         1004.2386
   383.86         1011.8169
   384.00         1024.2576
   384.14         1040.0737
   384.28         1057.4747
   384.42         1074.5811
   384.56         1089.5446
   384.70         1100.8638
   384.84         1107.7394
   384.98         1110.2433
   385.12         1109.2093
   385.26         1105.9046
   385.40         1101.6153
   385.54         1097.3415
   385.68         1093.7514
   385.82         1091.2329
   385.96         1089.9251
   386.10         1089.7723
   386.24         1090.6060
   386.38         1092.1561
   386.52         1094.0605
   386.66         1095.9100
   386.80         1097.2495
   386.94         1097.6053
   387.08         1096.5657
   387.22         1093.8348
   387.36         1089.1912
   387.50         1082.3925
   387.64         1073.1395
   387.78         1061.1749
   387.92         1046.5560
   388.06         1029.8754
   388.20         1012.1825
   388.34         994.7958
   388.48         979.0819
   388.62         966.3514
   388.76         957.8431
   388.90         954.4535
   389.04         956.5487
   389.18         964.0214
   389.32         976.2356
   389.46         991.9933
   389.60         1009.8743
   389.74         1028.5247
   389.88         1046.4763
   390.02         1062.2862
   390.16         1075.0400
   390.30         1084.5067
   390.44         1090.9667
   390.58         1094.9115
   390.72         1096.8755
   390.86         1097.3067
   391.00         1096.3938
   391.14         1094.1698
   391.28         1090.7026
   391.42         1086.0454
   391.56         1080.2458
   391.70         1073.5265
   391.84         1066.2295
   391.98         1058.5532
   392.12         1050.5916
   392.26         1042.6615
   392.40         1035.2629
   392.54         1028.8213
   392.68         1023.8670
   392.82         1020.9240
   392.96         1020.1093
   393.10         1021.1427
   393.24         1023.5609
   393.38         1026.8801
   393.52         1030.5722
   393.66         1034.1217
   393.80         1037.2056
   393.94         1039.6345
   394.08         1041.2374
   394.22         1041.9355
   394.36         1041.7996
   394.50         1040.8503
   394.64         1039.0263
   394.78         1036.4984
   394.92         1033.6099
   395.06         1030.4777
   395.20         1026.8747
   395.34         1022.3794
   395.48         1016.3663
   395.62         1008.0125
   395.76         996.5983
   395.90         981.8507
   396.04         964.1052
   396.18         944.3509
   396.32         924.0977
   396.46         904.9793
   396.60         888.4432
   396.74         875.7351
   396.88         867.8947
   397.02         865.5196
   397.16         868.5012
   397.30         876.1768
   397.44         887.5678
   397.58         901.4213
   397.72         916.4281
   397.86         931.4096
   398.00         945.2897
   398.14         957.1489
   398.28         966.4216
   398.42         973.0458
   398.56         977.3690
   398.70         979.8396
   398.84         980.7957
   398.98         980.4381
   399.12         978.9055
   399.26         976.3515
   399.40         973.0004
   399.54         969.1330
   399.68         964.9550
   399.82         960.5888
   399.96         956.2188
   400.10         952.1025
   400.24         948.4680
   400.38         945.4511
   400.52         943.0495
   400.66         941.1583
   400.80         939.6602
   400.94         938.4575
   401.08         937.3848
   401.22         936.1145
   401.36         934.1961
   401.50         931.2331
   401.64         927.1526
   401.78         922.2717
   401.92         917.0698
   402.06         912.0240
   402.20         907.5574
   402.34         903.9550
   402.48         901.4530
   402.62         900.3457
   402.76         900.8445
   402.90         902.8728
   403.04         906.0716
   403.18         909.9574
   403.32         913.9934
   403.46         917.6349
   403.60         920.3915
   403.74         921.8834
   403.88         922.0230
   404.02         921.1125
   404.16         919.7487
   404.30         918.6349
   404.44         918.2184
   404.58         918.5488
   404.72         919.4604
   404.86         920.7211
   405.00         922.0747
   405.14         923.2504
   405.28         924.0074
   405.42         924.1570
   405.56         923.4433
   405.70         921.5423
   405.84         918.2167
   405.98         913.3937
   406.12         907.1659
   406.26         899.6530
   406.40         891.0137
   406.54         881.5943
   406.68         871.8580
   406.82         862.2987
   406.96         853.4024
   407.10         845.5890
   407.24         839.2423
   407.38         834.6213
   407.52         831.7329
   407.66         830.4027
   407.80         830.3639
   407.94         831.2681
   408.08         832.6360
   408.22         833.8665
   408.36         834.4454
   408.50         834.0232
   408.64         832.2725
   408.78         828.7567
   408.92         822.9822
   409.06         814.7589
   409.20         804.3880
   409.34         792.5317
   409.48         780.1529
   409.62         768.3884
   409.76         758.3620
   409.90         751.0084
   410.04         746.9017
   410.18         746.3427
   410.32         749.3828
   410.46         755.6374
   410.60         764.2942
   410.74         774.3207
   410.88         784.6304
   411.02         794.1686
   411.16         802.0275
   411.30         807.6876
   411.44         811.0989
   411.58         812.6038
   411.72         812.9100
   411.86         812.8708
   412.00         813.2165
   412.14         814.4122
   412.28         816.5778
   412.42         819.5565
   412.56         822.9591
   412.70         826.3041
   412.84         829.2344
   412.98         831.3574
   413.12         832.1940
   413.26         831.4544
   413.40         829.1854
   413.54         825.7341
   413.68         821.6073
   413.82         817.3610
   413.96         813.5253
   414.10         810.4479
   414.24         808.3626
   414.38         807.4404
   414.52         807.6311
   414.66         808.7128
   414.80         810.4028
   414.94         812.3475
   415.08         814.1588
   415.22         815.4948
   415.36         816.1421
   415.50         816.0226
   415.64         815.0945
   415.78         813.3836
   415.92         811.0742
   416.06         808.4510
   416.20         805.7643
   416.34         803.1554
   416.48         800.7073
   416.62         798.4646
   416.76         796.4132
   416.90         794.5473
   417.04         792.8023
   417.18         791.0468
   417.32         789.2801
   417.46         787.5934
   417.60         785.9382
   417.74         784.2085
   417.88         782.4225
   418.02         780.6467
   418.16         778.9280
   418.30         777.2998
   418.44         775.8234
   418.58         774.6099
   418.72         773.7902
   418.86         773.4817
   419.00         773.7325
   419.14         774.5255
   419.28         775.7940
   419.42         777.4218
   419.56         779.3062
   419.70         781.3845
   419.84         783.6040
   419.98         785.8574
   420.12         787.9021
   420.26         789.4635
   420.40         790.4766
   420.54         790.9973
   420.68         790.9930
   420.82         790.4385
   420.96         789.3808
   421.10         787.8556
   421.24         785.9232
   421.38         783.7750
   421.52         781.6122
   421.66         779.5500
   421.80         777.6797
   421.94         776.0193
   422.08         774.5057
   422.22         773.0763
   422.36         771.6571
   422.50         770.1372
   422.64         768.4479
   422.78         766.6550
   422.92         764.9437
   423.06         763.4858
   423.20         762.3738
   423.34         761.6630
   423.48         761.3697
   423.62         761.4427
   423.76         761.7886
   423.90         762.3140
   424.04         762.8674
   424.18         763.1521
   424.32         762.8520
   424.46         761.7715
   424.60         759.8529
   424.74         757.2027
   424.88         754.0563
   425.02         750.6463
   425.16         747.1390
   425.30         743.6724
   425.44         740.3859
   425.58         737.4087
   425.72         734.8209
   425.86         732.6511
   426.00         730.8763
   426.14         729.4345
   426.28         728.1985
   426.42         726.9209
   426.56         725.3463
   426.70         723.3607
   426.84         721.0060
   426.98         718.4358
   427.12         715.8272
   427.26         713.3333
   427.40         711.1054
   427.54         709.2817
   427.68         707.9850
   427.82         707.3498
   427.96         707.4766
   428.10         708.3645
   428.24         709.9118
   428.38         711.9819
   428.52         714.4348
   428.66         717.0741
   428.80         719.6514
   428.94         721.9100
   429.08         723.6749
   429.22         724.9502
   429.36         725.8248
   429.50         726.3473
   429.64         726.5251
   429.78         726.3563
   429.92         725.9037
   430.06         725.3081
   430.20         724.6689
   430.34         723.9870
   430.48         723.1796
   430.62         722.1211
   430.76         720.7390
   430.90         719.0360
   431.04         717.0519
   431.18         714.8408
   431.32         712.5419
   431.46         710.4062
   431.60         708.6550
   431.74         707.4563
   431.88         706.9103
   432.02         706.9390
   432.16         707.3151
   432.30         707.7386
   432.44         707.8082
   432.58         707.0004
   432.72         704.7169
   432.86         700.3504
   433.00         693.4301
   433.14         683.8398
   433.28         671.9382
   433.42         658.4550
   433.56         644.2931
   433.70         630.4163
   433.84         617.7756
   433.98         607.2013
   434.12         599.2899
   434.26         594.4852
   434.40         593.1547
   434.54         595.3721
   434.68         600.8316
   434.82         608.9956
   434.96         619.1542
   435.10         630.4457
   435.24         641.9647
   435.38         652.9255
   435.52         662.7740
   435.66         671.1979
   435.80         678.0888
   435.94         683.4313
   436.08         687.2114
   436.22         689.4371
   436.36         690.1731
   436.50         689.6256
   436.64         688.1622
   436.78         686.2472
   436.92         684.3786
   437.06         682.8480
   437.20         681.6581
   437.34         680.7394
   437.48         679.9941
   437.62         679.2051
   437.76         678.1008
   437.90         676.5245
   438.04         674.5292
   438.18         672.2880
   438.32         669.9551
   438.46         667.6505
   438.60         665.5140
   438.74         663.7603
   438.88         662.6377
   439.02         662.3264
   439.16         662.9492
   439.30         664.5299
   439.44         666.8916
   439.58         669.6554
   439.72         672.3700
   439.86         674.6810
   440.00         676.2986
   440.14         676.9569
   440.28         676.4729
   440.42         674.7686
   440.56         671.8654
   440.70         667.8311
   440.84         662.7811
   440.98         656.9329
   441.12         650.6161
   441.26         644.2333
   441.40         638.1327
   441.54         632.4688
   441.68         627.2460
   441.82         622.4724
   441.96         618.1628
   442.10         614.2585
   442.24         610.7147
   442.38         607.6210
   442.52         605.0987
   442.66         603.2044
   442.80         602.0034
   442.94         601.6073
   443.08         602.1751
   443.22         603.8416
   443.36         606.6340
   443.50         610.4464
   443.64         615.0068
   443.78         619.9782
   443.92         625.0525
   444.06         629.9034
   444.20         634.2373
   444.34         637.9355
   444.48         641.0556
   444.62         643.6576
   444.76         645.7535
   444.90         647.4595
   445.04         648.9724
   445.18         650.4156
   445.32         651.7773
   445.46         652.9028
   445.60         653.5342
   445.74         653.2734
   445.88         651.6059
   446.02         648.1967
   446.16         643.0802
   446.30         636.5785
   446.44         629.1965
   446.58         621.5265
   446.72         614.1920
   446.86         607.8152
   447.00         602.9504
   447.14         599.9984
   447.28         599.1593
   447.42         600.4779
   447.56         603.8168
   447.70         608.8047
   447.84         614.9235
   447.98         621.5652
   448.12         628.0849
   448.26         633.9207
   448.40         638.6809
   448.54         642.2473
   448.68         644.7729
   448.82         646.4855
   448.96         647.5532
   449.10         648.1168
   449.24         648.2769
   449.38         648.0574
   449.52         647.5094
   449.66         646.7766
   449.80         645.9984
   449.94         645.2067
   450.08         644.3286
   450.22         643.3000
   450.36         642.2096
   450.50         641.2082
   450.64         640.3364
   450.78         639.5730
   450.92         638.9524
   451.06         638.5666
   451.20         638.5020
   451.34         638.7766
   451.48         639.3414
   451.62         640.1543
   451.76         641.1641
   451.90         642.2481
   452.04         643.2364
   452.18         643.9502
   452.32         644.2193
   452.46         643.9321
   452.60         643.1258
   452.74         641.9915
   452.88         640.7376
   453.02         639.5016
   453.16         638.3546
   453.30         637.3328
   453.44         636.4916
   453.58         635.8840
   453.72         635.4311
   453.86         634.9060
   454.00         634.0403
   454.14         632.6453
   454.28         630.7307
   454.42         628.4592
   454.56         625.9928
   454.70         623.4946
   454.84         621.2648
   454.98         619.6581
   455.12         618.8616
   455.26         618.8603
   455.40         619.4203
   455.54         620.0949
   455.68         620.4650
   455.82         620.3114
   455.96         619.5229
   456.10         617.9887
   456.24         615.6003
   456.38         612.3652
   456.52         608.5033
   456.66         604.4152
   456.80         600.5922
   456.94         597.5273
   457.08         595.5639
   457.22         594.7711
   457.36         595.0566
   457.50         596.2360
   457.64         597.9064
   457.78         599.5473
   457.92         600.7627
   458.06         601.3315
   458.20         601.1701
   458.34         600.3228
   458.48         598.8909
   458.62         596.9545
   458.76         594.6190
   458.90         592.1167
   459.04         589.8071
   459.18         587.9720
   459.32         586.7087
   459.46         585.9870
   459.60         585.7020
   459.74         585.7123
   459.88         585.8302
   460.02         585.8728
   460.16         585.7559
   460.30         585.5513
   460.44         585.4440
   460.58         585.5712
   460.72         585.9403
   460.86         586.4892
   461.00         587.2238
   461.14         588.2256
   461.28         589.5113
   461.42         591.0523
   461.56         592.7449
   461.70         594.3295
   461.84         595.4977
   461.98         596.0300
   462.12         595.8872
   462.26         595.1850
   462.40         594.0374
   462.54         592.4337
   462.68         590.3130
   462.82         587.6960
   462.96         584.6528
   463.10         581.2224
   463.24         577.4507
   463.38         573.4440
   463.52         569.3258
   463.66         565.1416
   463.80         560.8448
   463.94         556.4516
   464.08         552.1485
   464.22         548.1678
   464.36         544.8036
   464.50         542.4443
   464.64         541.3512
   464.78         541.5768
   464.92         543.0555
   465.06         545.6712
   465.20         549.2430
   465.34         553.5056
   465.48         558.2265
   465.62         563.2682
   465.76         568.4595
   465.90         573.4988
   466.04         578.0410
   466.18         581.7938
   466.32         584.5897
   466.46         586.4325
   466.60         587.4439
   466.74         587.7384
   466.88         587.3954
   467.02         586.5797
   467.16         585.4886
   467.30         584.2637
   467.44         583.0959
   467.58         582.2636
   467.72         582.0119
   467.86         582.4205
   468.00         583.4599
   468.14         585.0852
   468.28         587.1216
   468.42         589.1884
   468.56         590.8935
   468.70         591.9734
   468.84         592.2095
   468.98         591.4511
   469.12         589.6985
   469.26         587.0771
   469.40         583.7979
   469.54         580.1580
   469.68         576.5068
   469.82         573.0896
   469.96         570.0065
   470.10         567.3287
   470.24         565.1167
   470.38         563.3649
   470.52         561.9778
   470.66         560.7790
   470.80         559.6129
   470.94         558.4352
   471.08         557.2593
   471.22         556.0807
   471.36         554.8073
   471.50         553.3176
   471.64         551.6253
   471.78         549.8792
   471.92         548.2520
   472.06         546.9031
   472.20         545.9817
   472.34         545.5662
   472.48         545.6273
   472.62         546.1042
   472.76         546.9675
   472.90         548.1476
   473.04         549.4950
   473.18         550.8402
   473.32         552.0187
   473.46         552.9204
   473.60         553.4635
   473.74         553.5442
   473.88         553.1297
   474.02         552.2879
   474.16         551.1344
   474.30         549.7883
   474.44         548.3415
   474.58         546.8702
   474.72         545.4298
   474.86         543.9903
   475.00         542.4418
   475.14         540.7243
   475.28         538.8847
   475.42         536.9906
   475.56         535.0605
   475.70         533.1237
   475.84         531.2856
   475.98         529.6874
   476.12         528.4437
   476.26         527.6262
   476.40         527.2562
   476.54         527.3001
   476.68         527.6715
   476.82         528.2536
   476.96         528.9639
   477.10         529.7516
   477.24         530.5548
   477.38         531.2976
   477.52         531.8997
   477.66         532.3469
   477.80         532.7342
   477.94         533.1822
   478.08         533.7336
   478.22         534.3563
   478.36         535.0070
   478.50         535.6696
   478.64         536.3108
   478.78         536.8003
   478.92         536.9709
   479.06         536.7055
   479.20         535.9524
   479.34         534.7495
   479.48         533.2265
   479.62         531.5600
   479.76         529.8928
   479.90         528.3031
   480.04         526.8345
   480.18         525.4968
   480.32         524.2552
   480.46         523.0630
   480.60         521.8653
   480.74         520.5631
   480.88         519.0663
   481.02         517.3749
   481.16         515.5911
   481.30         513.8379
   481.44         512.2253
   481.58         510.8900
   481.72         509.9327
   481.86         509.4023
   482.00         509.3581
   482.14         509.8301
   482.28         510.7694
   482.42         512.0535
   482.56         513.5326
   482.70         515.0782
   482.84         516.5787
   482.98         517.9252
   483.12         519.0154
   483.26         519.7640
   483.40         520.0954
   483.54         519.9591
   483.68         519.3737
   483.82         518.4254
   483.96         517.2003
   484.10         515.7153
   484.24         513.9065
   484.38         511.6816
   484.52         508.9389
   484.66         505.5187
   484.80         501.1914
   484.94         495.7469
   485.08         489.1117
   485.22         481.4594
   485.36         473.2273
   485.50         464.9974
   485.64         457.3795
   485.78         450.9451
   485.92         446.1680
   486.06         443.3718
   486.20         442.7323
   486.34         444.2469
   486.48         447.6441
   486.62         452.4016
   486.76         457.8862
   486.90         463.4972
   487.04         468.7358
   487.18         473.2191
   487.32         476.7263
   487.46         479.2374
   487.60         480.9108
   487.74         482.0066
   487.88         482.7903
   488.02         483.4738
   488.16         484.1790
   488.30         484.9332
   488.44         485.6969
   488.58         486.4161
   488.72         487.0831
   488.86         487.7106
   489.00         488.2825
   489.14         488.7920
   489.28         489.2886
   489.42         489.8228
   489.56         490.3777
   489.70         490.8927
   489.84         491.2991
   489.98         491.5318
   490.12         491.5590
   490.26         491.4017
   490.40         491.1166
   490.54         490.7530
   490.68         490.3137
   490.82         489.6837
   490.96         488.6366
   491.10         486.9836
   491.24         484.6952
   491.38         481.9108
   491.52         478.8578
   491.66         475.7804
   491.80         472.9079
   491.94         470.4405
   492.08         468.5706
   492.22         467.4888
   492.36         467.3469
   492.50         468.1962
   492.64         469.9757
   492.78         472.5574
   492.92         475.7049
   493.06         479.0626
   493.20         482.2426
   493.34         484.8945
   493.48         486.7531
   493.62         487.7074
   493.76         487.8656
   493.90         487.4822
   494.04         486.8199
   494.18         486.0798
   494.32         485.3940
   494.46         484.8549
   494.60         484.5304
   494.74         484.4455
   494.88         484.5499
   495.02         484.7285
   495.16         484.8460
   495.30         484.7704
   495.44         484.3881
   495.58         483.6211
   495.72         482.4721
   495.86         481.0318
   496.00         479.4180
   496.14         477.7494
   496.28         476.1474
   496.42         474.7458
   496.56         473.6446
   496.70         472.8776
   496.84         472.4384
   496.98         472.2845
   497.12         472.3438
   497.26         472.5327
   497.40         472.7697
   497.54         473.0002
   497.68         473.2050
   497.82         473.3767
   497.96         473.4925
   498.10         473.5478
   498.24         473.5750
   498.38         473.5955
   498.52         473.6008
   498.66         473.5530
   498.80         473.3996
   498.94         473.1134
   499.08         472.6790
   499.22         472.0409
   499.36         471.1321
   499.50         469.9227
   499.64         468.4388
   499.78         466.7734
   499.92         465.0252
   500.06         463.2400
   500.20         461.4270
   500.34         459.5660
   500.48         457.6271
   500.62         455.6241
   500.76         453.6577
   500.90         451.8851
   501.04         450.4078
   501.18         449.2565
   501.32         448.4422
   501.46         447.9664
   501.60         447.8243
   501.74         447.9767
   501.88         448.3540
   502.02         448.9005
   502.16         449.5637
   502.30         450.2689
   502.44         450.8985
   502.58         451.3331
   502.72         451.5350
   502.86         451.5386
   503.00         451.3969
   503.14         451.1693
   503.28         450.9069
   503.42         450.6029
   503.56         450.1620
   503.70         449.4535
   503.84         448.4380
   503.98         447.1885
   504.12         445.8061
   504.26         444.3770
   504.40         442.9658
   504.54         441.6314
   504.68         440.4513
   504.82         439.5224
   504.96         438.9209
   505.10         438.6646
   505.24         438.7270
   505.38         439.0229
   505.52         439.4110
   505.66         439.7760
   505.80         440.0609
   505.94         440.2468
   506.08         440.3558
   506.22         440.4504
   506.36         440.6140
   506.50         440.8945
   506.64         441.2567
   506.78         441.6163
   506.92         441.8977
   507.06         442.0734
   507.20         442.1394
   507.34         442.0693
   507.48         441.8178
   507.62         441.3486
   507.76         440.6724
   507.90         439.8436
   508.04         438.9431
   508.18         438.0667
   508.32         437.2939
   508.46         436.6409
   508.60         436.0833
   508.74         435.6058
   508.88         435.1977
   509.02         434.8699
   509.16         434.6758
   509.30         434.6851
   509.44         434.9411
   509.58         435.4182
   509.72         436.0203
   509.86         436.6114
   510.00         437.0694
   510.14         437.3227
   510.28         437.3300
   510.42         437.0713
   510.56         436.5516
   510.70         435.7985
   510.84         434.8351
   510.98         433.6889
   511.12         432.4361
   511.26         431.1960
   511.40         430.0646
   511.54         429.0752
   511.68         428.2172
   511.82         427.4507
   511.96         426.7202
   512.10         425.9754
   512.24         425.1861
   512.38         424.3550
   512.52         423.5264
   512.66         422.7439
   512.80         422.0132
   512.94         421.3291
   513.08         420.7048
   513.22         420.1320
   513.36         419.5787
   513.50         419.0322
   513.64         418.5090
   513.78         418.0380
   513.92         417.6440
   514.06         417.3301
   514.20         417.0554
   514.34         416.7609
   514.48         416.3935
   514.62         415.9054
   514.76         415.2394
   514.90         414.3458
   515.04         413.2251
   515.18         411.9330
   515.32         410.5430
   515.46         409.1576
   515.60         407.9239
   515.74         406.9637
   515.88         406.3259
   516.02         406.0316
   516.16         406.0959
   516.30         406.4953
   516.44         407.1583
   516.58         407.9739
   516.72         408.7997
   516.86         409.5077
   517.00         410.0386
   517.14         410.3873
   517.28         410.5782
   517.42         410.6608
   517.56         410.7045
   517.70         410.7629
   517.84         410.8518
   517.98         410.9638
   518.12         411.0874
   518.26         411.1939
   518.40         411.2445
   518.54         411.2241
   518.68         411.1422
   518.82         411.0106
   518.96         410.8146
   519.10         410.5234
   519.24         410.1069
   519.38         409.5382
   519.52         408.8121
   519.66         407.9612
   519.80         407.0399
   519.94         406.1069
   520.08         405.2149
   520.22         404.3759
   520.36         403.5477
   520.50         402.7125
   520.64         401.8862
   520.78         401.0546
   520.92         400.2067
   521.06         399.3527
   521.20         398.5102
   521.34         397.6973
   521.48         396.9311
   521.62         396.2314
   521.76         395.5945
   521.90         394.9958
   522.04         394.4425
   522.18         393.9636
   522.32         393.5573
   522.46         393.1995
   522.60         392.8818
   522.74         392.5897
   522.88         392.2959
   523.02         391.9929
   523.16         391.7115
   523.30         391.4651
   523.44         391.2383
   523.58         391.0398
   523.72         390.8766
   523.86         390.7284
   524.00         390.5488
   524.14         390.2865
   524.28         389.8977
   524.42         389.3375
   524.56         388.6030
   524.70         387.7469
   524.84         386.8326
   524.98         385.9107
   525.12         385.0255
   525.26         384.2116
   525.40         383.4649
   525.54         382.7657
   525.68         382.1085
   525.82         381.4793
   525.96         380.8456
   526.10         380.1758
   526.24         379.4543
   526.38         378.6659
   526.52         377.7890
   526.66         376.8363
   526.80         375.8605
   526.94         374.9175
   527.08         374.0662
   527.22         373.3805
   527.36         372.9196
   527.50         372.6912
   527.64         372.6612
   527.78         372.7943
   527.92         373.0602
   528.06         373.4050
   528.20         373.7775
   528.34         374.1412
   528.48         374.4538
   528.62         374.6956
   528.76         374.8845
   528.90         375.0453
   529.04         375.1897
   529.18         375.3253
   529.32         375.4699
   529.46         375.6339
   529.60         375.7952
   529.74         375.8961
   529.88         375.8592
   530.02         375.6165
   530.16         375.1255
   530.30         374.3936
   530.44         373.4919
   530.58         372.5045
   530.72         371.4910
   530.86         370.5053
   531.00         369.6167
   531.14         368.8975
   531.28         368.3981
   531.42         368.1373
   531.56         368.0984
   531.70         368.2302
   531.84         368.4773
   531.98         368.7988
   532.12         369.1468
   532.26         369.4656
   532.40         369.7067
   532.54         369.8515
   532.68         369.9102
   532.82         369.8955
   532.96         369.8262
   533.10         369.7288
   533.24         369.6162
   533.38         369.4944
   533.52         369.3790
   533.66         369.2848
   533.80         369.1974
   533.94         369.0648
   534.08         368.8282
   534.22         368.4527
   534.36         367.9361
   534.50         367.3099
   534.64         366.5974
   534.78         365.8007
   534.92         364.9442
   535.06         364.0683
   535.20         363.2208
   535.34         362.4409
   535.48         361.7384
   535.62         361.1132
   535.76         360.5625
   535.90         360.0679
   536.04         359.5776
   536.18         359.0154
   536.32         358.3218
   536.46         357.4708
   536.60         356.4686
   536.74         355.3725
   536.88         354.2771
   537.02         353.2736
   537.16         352.4211
   537.30         351.7289
   537.44         351.1980
   537.58         350.8362
   537.72         350.6194
   537.86         350.4939
   538.00         350.3923
   538.14         350.2640
   538.28         350.0930
   538.42         349.8646
   538.56         349.5568
   538.70         349.1656
   538.84         348.7190
   538.98         348.2618
   539.12         347.8364
   539.26         347.4900
   539.40         347.2766
   539.54         347.2249
   539.68         347.3110
   539.82         347.4620
   539.96         347.5872
   540.10         347.6416
   540.24         347.6025
   540.38         347.4290
   540.52         347.0926
   540.66         346.5890
   540.80         345.9512
   540.94         345.2257
   541.08         344.4414
   541.22         343.6415
   541.36         342.8818
   541.50         342.1986
   541.64         341.6166
   541.78         341.1705
   541.92         340.8880
   542.06         340.7494
   542.20         340.6870
   542.34         340.6292
   542.48         340.5182
   542.62         340.2997
   542.76         339.9400
   542.90         339.4217
   543.04         338.7511
   543.18         337.9638
   543.32         337.0942
   543.46         336.1640
   543.60         335.1620
   543.74         334.0672
   543.88         332.9066
   544.02         331.7244
   544.16         330.5424
   544.30         329.3720
   544.44         328.2287
   544.58         327.1373
   544.72         326.1239
   544.86         325.2217
   545.00         324.4841
   545.14         323.9685
   545.28         323.7225
   545.42         323.7743
   545.56         324.0770
   545.70         324.5141
   545.84         324.9557
   545.98         325.2783
   546.12         325.3914
   546.26         325.2534
   546.40         324.8761
   546.54         324.3173
   546.68         323.6467
   546.82         322.9218
   546.96         322.2027
   547.10         321.5616
   547.24         321.0652
   547.38         320.7381
   547.52         320.5566
   547.66         320.4755
   547.80         320.4242
   547.94         320.3050
   548.08         320.0218
   548.22         319.5140
   548.36         318.7995
   548.50         317.9654
   548.64         317.1120
   548.78         316.3300
   548.92         315.7057
   549.06         315.3196
   549.20         315.2236
   549.34         315.4049
   549.48         315.7826
   549.62         316.2542
   549.76         316.7354
   549.90         317.1620
   550.04         317.4634
   550.18         317.5806
   550.32         317.5030
   550.46         317.2465
   550.60         316.8479
   550.74         316.3765
   550.88         315.9178
   551.02         315.5400
   551.16         315.2652
   551.30         315.0585
   551.44         314.8643
   551.58         314.6517
   551.72         314.3965
   551.86         314.0634
   552.00         313.6211
   552.14         313.0521
   552.28         312.3600
   552.42         311.5855
   552.56         310.7939
   552.70         310.0282
   552.84         309.3002
   552.98         308.6103
   553.12         307.9586
   553.26         307.3518
   553.40         306.7967
   553.54         306.2897
   553.68         305.8301
   553.82         305.4374
   553.96         305.1569
   554.10         305.0459
   554.24         305.1380
   554.38         305.4184
   554.52         305.8293
   554.66         306.2867
   554.80         306.7051
   554.94         307.0274
   555.08         307.2244
   555.22         307.2749
   555.36         307.1570
   555.50         306.8652
   555.64         306.4258
   555.78         305.8887
   555.92         305.3120
   556.06         304.7518
   556.20         304.2511
   556.34         303.8431
   556.48         303.5549
   556.62         303.4023
   556.76         303.3848
   556.90         303.4809
   557.04         303.6554
   557.18         303.8654
   557.32         304.0678
   557.46         304.2302
   557.60         304.3177
   557.74         304.3054
   557.88         304.1910
   558.02         303.9739
   558.16         303.6454
   558.30         303.2057
   558.44         302.6818
   558.58         302.1178
   558.72         301.5496
   558.86         300.9981
   559.00         300.4832
   559.14         300.0207
   559.28         299.6146
   559.42         299.2577
   559.56         298.9375
   559.70         298.6460
   559.84         298.3732
   559.98         298.1194
   560.12         297.8992
   560.26         297.7172
   560.40         297.5696
   560.54         297.4381
   560.68         297.2902
   560.82         297.1033
   560.96         296.8753
   561.10         296.6083
   561.24         296.3016
   561.38         295.9566
   561.52         295.5832
   561.66         295.2027
   561.80         294.8339
   561.94         294.4944
   562.08         294.2029
   562.22         293.9720
   562.36         293.8033
   562.50         293.7007
   562.64         293.6929
   562.78         293.7976
   562.92         293.9961
   563.06         294.2679
   563.20         294.5883
   563.34         294.9136
   563.48         295.1890
   563.62         295.3496
   563.76         295.3337
   563.90         295.1046
   564.04         294.6585
   564.18         294.0231
   564.32         293.2418
   564.46         292.3788
   564.60         291.5154
   564.74         290.7081
   564.88         289.9704
   565.02         289.3005
   565.16         288.7001
   565.30         288.1527
   565.44         287.5975
   565.58         286.9762
   565.72         286.2748
   565.86         285.4902
   566.00         284.6299
   566.14         283.7274
   566.28         282.8272
   566.42         281.9751
   566.56         281.2038
   566.70         280.5304
   566.84         279.9578
   566.98         279.4753
   567.12         279.0761
   567.26         278.7437
   567.40         278.4486
   567.54         278.1776
   567.68         277.9416
   567.82         277.7669
   567.96         277.6751
   568.10         277.6791
   568.24         277.7874
   568.38         277.9662
   568.52         278.1306
   568.66         278.1979
   568.80         278.1083
   568.94         277.8272
   569.08         277.3503
   569.22         276.6997
   569.36         275.9251
   569.50         275.0946
   569.64         274.2772
   569.78         273.5336
   569.92         272.9146
   570.06         272.4784
   570.20         272.2824
   570.34         272.3443
   570.48         272.6337
   570.62         273.0791
   570.76         273.5764
   570.90         273.9990
   571.04         274.2337
   571.18         274.2371
   571.32         274.0310
   571.46         273.6706
   571.60         273.2228
   571.74         272.7400
   571.88         272.2675
   572.02         271.8652
   572.16         271.5990
   572.30         271.5166
   572.44         271.6266
   572.58         271.8900
   572.72         272.2130
   572.86         272.4484
   573.00         272.4539
   573.14         272.1554
   573.28         271.5389
   573.42         270.6149
   573.56         269.4266
   573.70         268.0793
   573.84         266.7136
   573.98         265.4524
   574.12         264.3917
   574.26         263.6002
   574.40         263.1222
   574.54         262.9778
   574.68         263.1429
   574.82         263.5429
   574.96         264.0623
   575.10         264.5754
   575.24         264.9861
   575.38         265.2339
   575.52         265.2910
   575.66         265.1630
   575.80         264.8688
   575.94         264.4181
   576.08         263.8009
   576.22         263.0199
   576.36         262.1080
   576.50         261.0861
   576.64         259.9367
   576.78         258.5977
   576.92         257.0041
   577.06         255.1412
   577.20         253.0448
   577.34         250.8083
   577.48         248.5828
   577.62         246.5347
   577.76         244.8131
   577.90         243.5380
   578.04         242.7890
   578.18         242.5876
   578.32         242.8821
   578.46         243.5605
   578.60         244.4788
   578.74         245.4961
   578.88         246.4977
   579.02         247.3869
   579.16         248.0890
   579.30         248.5714
   579.44         248.8527
   579.58         249.0239
   579.72         249.2073
   579.86         249.4846
   580.00         249.8965
   580.14         250.4426
   580.28         251.0849
   580.42         251.7747
   580.56         252.4653
   580.70         253.1029
   580.84         253.6319
   580.98         254.0315
   581.12         254.3328
   581.26         254.5841
   581.40         254.8164
   581.54         255.0305
   581.68         255.2155
   581.82         255.3710
   581.96         255.4887
   582.10         255.5449
   582.24         255.5262
   582.38         255.4433
   582.52         255.3226
   582.66         255.1919
   582.80         255.0703
   582.94         254.9699
   583.08         254.8897
   583.22         254.7994
   583.36         254.6544
   583.50         254.4130
   583.64         254.0311
   583.78         253.4719
   583.92         252.7302
   584.06         251.8556
   584.20         250.9347
   584.34         250.0533
   584.48         249.2907
   584.62         248.7140
   584.76         248.3615
   584.90         248.2493
   585.04         248.3727
   585.18         248.6900
   585.32         249.1323
   585.46         249.6250
   585.60         250.0926
   585.74         250.4622
   585.88         250.6647
   586.02         250.6138
   586.16         250.1851
   586.30         249.2562
   586.44         247.7753
   586.58         245.7903
   586.72         243.4379
   586.86         240.8866
   587.00         238.2998
   587.14         235.8516
   587.28         233.7018
   587.42         231.9404
   587.56         230.5475
   587.70         229.4030
   587.84         228.3813
   587.98         227.3987
   588.12         226.3608
   588.26         225.1560
   588.40         223.7257
   588.54         222.1064
   588.68         220.4028
   588.82         218.7973
   588.96         217.5579
   589.10         216.9670
   589.24         217.2324
   589.38         218.4304
   589.52         220.4961
   589.66         223.2502
   589.80         226.4325
   589.94         229.7391
   590.08         232.8644
   590.22         235.5547
   590.36         237.6741
   590.50         239.2124
   590.64         240.1913
   590.78         240.6280
   590.92         240.5957
   591.06         240.2385
   591.20         239.7037
   591.34         239.0851
   591.48         238.4310
   591.62         237.7667
   591.76         237.1085
   591.90         236.4665
   592.04         235.8459
   592.18         235.2568
   592.32         234.7243
   592.46         234.2912
   592.60         234.0034
   592.74         233.8735
   592.88         233.8816
   593.02         233.9857
   593.16         234.1282
   593.30         234.2566
   593.44         234.3301
   593.58         234.3235
   593.72         234.2312
   593.86         234.0524
   594.00         233.7823
   594.14         233.4295
   594.28         233.0337
   594.42         232.6510
   594.56         232.3328
   594.70         232.1284
   594.84         232.0805
   594.98         232.2053
   595.12         232.4752
   595.26         232.8229
   595.40         233.1696
   595.54         233.4461
   595.68         233.5926
   595.82         233.5789
   595.96         233.4179
   596.10         233.1307
   596.24         232.7319
   596.38         232.2441
   596.52         231.6974
   596.66         231.1228
   596.80         230.5582
   596.94         230.0506
   597.08         229.6522
   597.22         229.3876
   597.36         229.2391
   597.50         229.1728
   597.64         229.1441
   597.78         229.1010
   597.92         228.9979
   598.06         228.8137
   598.20         228.5504
   598.34         228.2283
   598.48         227.8890
   598.62         227.5731
   598.76         227.3041
   598.90         227.1022
   599.04         226.9931
   599.18         226.9908
   599.32         227.0882
   599.46         227.2595
   599.60         227.4584
   599.74         227.6197
   599.88         227.6719
   600.02         227.5788
   600.16         227.3510
   600.30         227.0083
   600.44         226.5767
   600.58         226.1038
   600.72         225.6484
   600.86         225.2549
   601.00         224.9465
   601.14         224.7314
   601.28         224.6009
   601.42         224.5283
   601.56         224.4779
   601.70         224.4113
   601.84         224.2880
   601.98         224.0678
   602.12         223.7083
   602.26         223.1938
   602.40         222.5561
   602.54         221.8471
   602.68         221.1261
   602.82         220.4562
   602.96         219.8931
   603.10         219.4833
   603.24         219.2590
   603.38         219.2232
   603.52         219.3513
   603.66         219.5955
   603.80         219.9001
   603.94         220.2160
   604.08         220.4953
   604.22         220.6948
   604.36         220.7758
   604.50         220.7146
   604.64         220.5233
   604.78         220.2482
   604.92         219.9625
   605.06         219.7389
   605.20         219.6224
   605.34         219.6342
   605.48         219.7627
   605.62         219.9590
   605.76         220.1633
   605.90         220.3273
   606.04         220.4170
   606.18         220.4002
   606.32         220.2366
   606.46         219.9033
   606.60         219.3986
   606.74         218.7278
   606.88         217.9176
   607.02         217.0241
   607.16         216.1255
   607.30         215.2982
   607.44         214.5953
   607.58         214.0463
   607.72         213.6661
   607.86         213.4602
   608.00         213.4300
   608.14         213.5672
   608.28         213.8407
   608.42         214.2048
   608.56         214.6119
   608.70         215.0124
   608.84         215.3584
   608.98         215.6223
   609.12         215.8040
   609.26         215.9107
   609.40         215.9559
   609.54         215.9645
   609.68         215.9566
   609.82         215.9392
   609.96         215.9106
   610.10         215.8675
   610.24         215.8097
   610.38         215.7370
   610.52         215.6448
   610.66         215.5277
   610.80         215.3848
   610.94         215.2256
   611.08         215.0771
   611.22         214.9765
   611.36         214.9458
   611.50         214.9736
   611.64         215.0225
   611.78         215.0381
   611.92         214.9675
   612.06         214.7883
   612.20         214.5016
   612.34         214.1048
   612.48         213.5901
   612.62         212.9596
   612.76         212.2362
   612.90         211.4596
   613.04         210.6693
   613.18         209.8979
   613.32         209.1766
   613.46         208.5389
   613.60         208.0117
   613.74         207.6091
   613.88         207.3372
   614.02         207.1927
   614.16         207.1614
   614.30         207.2321
   614.44         207.3950
   614.58         207.6363
   614.72         207.9381
   614.86         208.2687
   615.00         208.5765
   615.14         208.8065
   615.28         208.9175
   615.42         208.8833
   615.56         208.6869
   615.70         208.3101
   615.84         207.7422
   615.98         206.9903
   616.12         206.0724
   616.26         205.0168
   616.40         203.8705
   616.54         202.6969
   616.68         201.5614
   616.82         200.5165
   616.96         199.6011
   617.10         198.8430
   617.24         198.2620
   617.38         197.8730
   617.52         197.6730
   617.66         197.6311
   617.80         197.7085
   617.94         197.8842
   618.08         198.1476
   618.22         198.4726
   618.36         198.8157
   618.50         199.1487
   618.64         199.4807
   618.78         199.8387
   618.92         200.2402
   619.06         200.6747
   619.20         201.1048
   619.34         201.4860
   619.48         201.7886
   619.62         202.0063
   619.76         202.1449
   619.90         202.2104
   620.04         202.2097
   620.18         202.1525
   620.32         202.0559
   620.46         201.9504
   620.60         201.8616
   620.74         201.7887
   620.88         201.7167
   621.02         201.6357
   621.16         201.5509
   621.30         201.4695
   621.44         201.3769
   621.58         201.2484
   621.72         201.0740
   621.86         200.8606
   622.00         200.6246
   622.14         200.3876
   622.28         200.1681
   622.42         199.9758
   622.56         199.8170
   622.70         199.6955
   622.84         199.6087
   622.98         199.5418
   623.12         199.4688
   623.26         199.3620
   623.40         199.2068
   623.54         199.0178
   623.68         198.8235
   623.82         198.6447
   623.96         198.4914
   624.10         198.3656
   624.24         198.2725
   624.38         198.2162
   624.52         198.1933
   624.66         198.2001
   624.80         198.2312
   624.94         198.2609
   625.08         198.2262
   625.22         198.0469
   625.36         197.6720
   625.50         197.0950
   625.64         196.3359
   625.78         195.4189
   625.92         194.3703
   626.06         193.2282
   626.20         192.0447
   626.34         190.8754
   626.48         189.7638
   626.62         188.7287
   626.76         187.7537
   626.90         186.7842
   627.04         185.7308
   627.18         184.4845
   627.32         182.9556
   627.46         181.1225
   627.60         179.0517
   627.74         176.8937
   627.88         174.8701
   628.02         173.2138
   628.16         172.0998
   628.30         171.6361
   628.44         171.8782
   628.58         172.8298
   628.72         174.4317
   628.86         176.5495
   629.00         178.9907
   629.14         181.5338
   629.28         183.9610
   629.42         186.0906
   629.56         187.7977
   629.70         189.0249
   629.84         189.7830
   629.98         190.1508
   630.12         190.2526
   630.26         190.2025
   630.40         190.0665
   630.54         189.8682
   630.68         189.6074
   630.82         189.2865
   630.96         188.9196
   631.10         188.5199
   631.24         188.0966
   631.38         187.6645
   631.52         187.2560
   631.66         186.9202
   631.80         186.6993
   631.94         186.6113
   632.08         186.6595
   632.22         186.8364
   632.36         187.1248
   632.50         187.4957
   632.64         187.9130
   632.78         188.3423
   632.92         188.7503
   633.06         189.1098
   633.20         189.4045
   633.34         189.6270
   633.48         189.7786
   633.62         189.8626
   633.76         189.8741
   633.90         189.8123
   634.04         189.6928
   634.18         189.5345
   634.32         189.3458
   634.46         189.1268
   634.60         188.8854
   634.74         188.6349
   634.88         188.3891
   635.02         188.1673
   635.16         187.9820
   635.30         187.8301
   635.44         187.6994
   635.58         187.5739
   635.72         187.4378
   635.86         187.2764
   636.00         187.0775
   636.14         186.8305
   636.28         186.5241
   636.42         186.1522
   636.56         185.7230
   636.70         185.2419
   636.84         184.6956
   636.98         184.0725
   637.12         183.3881
   637.26         182.6779
   637.40         181.9874
   637.54         181.3673
   637.68         180.8553
   637.82         180.4725
   637.96         180.2387
   638.10         180.1761
   638.24         180.2947
   638.38         180.5823
   638.52         181.0029
   638.66         181.5011
   638.80         182.0142
   638.94         182.4830
   639.08         182.8553
   639.22         183.0940
   639.36         183.1872
   639.50         183.1539
   639.64         183.0377
   639.78         182.8844
   639.92         182.7240
   640.06         182.5776
   640.20         182.4501
   640.34         182.3257
   640.48         182.1913
   640.62         182.0361
   640.76         181.8437
   640.90         181.6034
   641.04         181.3214
   641.18         181.0129
   641.32         180.6953
   641.46         180.3960
   641.60         180.1548
   641.74         180.0164
   641.88         180.0167
   642.02         180.1680
   642.16         180.4558
   642.30         180.8412
   642.44         181.2713
   642.58         181.6988
   642.72         182.0877
   642.86         182.4042
   643.00         182.6248
   643.14         182.7429
   643.28         182.7562
   643.42         182.6635
   643.56         182.4652
   643.70         182.1650
   643.84         181.7832
   643.98         181.3574
   644.12         180.9280
   644.26         180.5267
   644.40         180.1695
   644.54         179.8537
   644.68         179.5635
   644.82         179.2810
   644.96         178.9926
   645.10         178.6868
   645.24         178.3553
   645.38         177.9967
   645.52         177.6139
   645.66         177.2116
   645.80         176.8018
   645.94         176.4125
   646.08         176.0791
   646.22         175.8320
   646.36         175.6943
   646.50         175.6791
   646.64         175.7755
   646.78         175.9548
   646.92         176.1912
   647.06         176.4576
   647.20         176.7163
   647.34         176.9297
   647.48         177.0711
   647.62         177.1178
   647.76         177.0454
   647.90         176.8416
   648.04         176.5131
   648.18         176.0828
   648.32         175.5851
   648.46         175.0675
   648.60         174.5823
   648.74         174.1634
   648.88         173.8269
   649.02         173.5925
   649.16         173.4890
   649.30         173.5364
   649.44         173.7300
   649.58         174.0459
   649.72         174.4484
   649.86         174.8972
   650.00         175.3557
   650.14         175.7810
   650.28         176.1179
   650.42         176.3158
   650.56         176.3521
   650.70         176.2367
   650.84         175.9997
   650.98         175.6759
   651.12         175.2992
   651.26         174.8988
   651.40         174.4968
   651.54         174.1186
   651.68         173.7909
   651.82         173.5215
   651.96         173.2905
   652.10         173.0661
   652.24         172.8235
   652.38         172.5431
   652.52         172.2090
   652.66         171.8193
   652.80         171.3863
   652.94         170.9417
   653.08         170.5348
   653.22         170.2119
   653.36         169.9948
   653.50         169.8780
   653.64         169.8402
   653.78         169.8526
   653.92         169.8809
   654.06         169.8846
   654.20         169.8227
   654.34         169.6591
   654.48         169.3614
   654.62         168.9035
   654.76         168.2691
   654.90         167.4498
   655.04         166.4450
   655.18         165.2784
   655.32         164.0085
   655.46         162.7194
   655.60         161.5055
   655.74         160.4489
   655.88         159.6136
   656.02         159.0611
   656.16         158.8530
   656.30         159.0294
   656.44         159.5819
   656.58         160.4500
   656.72         161.5400
   656.86         162.7489
   657.00         163.9702
   657.14         165.0987
   657.28         166.0509
   657.42         166.7818
   657.56         167.2849
   657.70         167.5859
   657.84         167.7356
   657.98         167.7932
   658.12         167.8025
   658.26         167.7824
   658.40         167.7370
   658.54         167.6727
   658.68         167.6113
   658.82         167.5780
   658.96         167.5864
   659.10         167.6444
   659.24         167.7637
   659.38         167.9613
   659.52         168.2460
   659.66         168.6030
   659.80         169.0018
   659.94         169.4026
   660.08         169.7496
   660.22         169.9789
   660.36         170.0478
   660.50         169.9473
   660.64         169.6941
   660.78         169.3255
   660.92         168.8981
   661.06         168.4776
   661.20         168.1260
   661.34         167.8927
   661.48         167.8004
   661.62         167.8442
   661.76         167.9971
   661.90         168.2120
   662.04         168.4316
   662.18         168.5979
   662.32         168.6641
   662.46         168.6125
   662.60         168.4536
   662.74         168.2154
   662.88         167.9352
   663.02         167.6478
   663.16         167.3761
   663.30         167.1330
   663.44         166.9237
   663.58         166.7511
   663.72         166.6152
   663.86         166.5096
   664.00         166.4233
   664.14         166.3439
   664.28         166.2611
   664.42         166.1657
   664.56         166.0492
   664.70         165.9101
   664.84         165.7513
   664.98         165.5768
   665.12         165.3964
   665.26         165.2240
   665.40         165.0639
   665.54         164.9116
   665.68         164.7678
   665.82         164.6459
   665.96         164.5583
   666.10         164.5059
   666.24         164.4666
   666.38         164.3800
   666.52         164.1551
   666.66         163.6991
   666.80         162.9545
   666.94         161.9280
   667.08         160.6825
   667.22         159.3194
   667.36         157.9716
   667.50         156.7806
   667.64         155.8733
   667.78         155.3506
   667.92         155.2716
   668.06         155.6393
   668.20         156.4039
   668.34         157.4778
   668.48         158.7471
   668.62         160.0752
   668.76         161.3138
   668.90         162.3346
   669.04         163.0599
   669.18         163.4714
   669.32         163.6144
   669.46         163.5846
   669.60         163.4796
   669.74         163.3537
   669.88         163.2265
   670.02         163.1048
   670.16         162.9821
   670.30         162.8409
   670.44         162.6643
   670.58         162.4421
   670.72         162.1673
   670.86         161.8357
   671.00         161.4541
   671.14         161.0452
   671.28         160.6427
   671.42         160.2922
   671.56         160.0407
   671.70         159.9065
   671.84         159.8735
   671.98         159.9127
   672.12         159.9872
   672.26         160.0533
   672.40         160.0803
   672.54         160.0618
   672.68         160.0074
   672.82         159.9298
   672.96         159.8333
   673.10         159.7152
   673.24         159.5705
   673.38         159.3975
   673.52         159.2121
   673.66         159.0413
   673.80         158.9026
   673.94         158.7975
   674.08         158.7202
   674.22         158.6570
   674.36         158.5906
   674.50         158.5162
   674.64         158.4445
   674.78         158.3876
   674.92         158.3525
   675.06         158.3467
   675.20         158.3745
   675.34         158.4337
   675.48         158.5175
   675.62         158.6158
   675.76         158.7200
   675.90         158.8270
   676.04         158.9382
   676.18         159.0520
   676.32         159.1487
   676.46         159.2020
   676.60         159.2022
   676.74         159.1543
   676.88         159.0626
   677.02         158.9232
   677.16         158.7289
   677.30         158.4831
   677.44         158.2056
   677.58         157.9274
   677.72         157.6798
   677.86         157.4830
   678.00         157.3445
   678.14         157.2638
   678.28         157.2348
   678.42         157.2482
   678.56         157.2977
   678.70         157.3768
   678.84         157.4695
   678.98         157.5592
   679.12         157.6437
   679.26         157.7344
   679.40         157.8476
   679.54         157.9954
   679.68         158.1825
   679.82         158.4117
   679.96         158.6853
   680.10         158.9970
   680.24         159.3252
   680.38         159.6352
   680.52         159.8897
   680.66         160.0583
   680.80         160.1186
   680.94         160.0592
   681.08         159.8873
   681.22         159.6224
   681.36         159.2807
   681.50         158.8723
   681.64         158.4102
   681.78         157.9113
   681.92         157.3951
   682.06         156.8767
   682.20         156.3560
   682.34         155.8227
   682.48         155.2759
   682.62         154.7302
   682.76         154.2014
   682.90         153.6970
   683.04         153.2209
   683.18         152.7784
   683.32         152.3726
   683.46         152.0051
   683.60         151.6823
   683.74         151.4114
   683.88         151.1866
   684.02         150.9987
   684.16         150.8500
   684.30         150.7534
   684.44         150.7201
   684.58         150.7473
   684.72         150.8131
   684.86         150.8843
   685.00         150.9299
   685.14         150.9292
   685.28         150.8608
   685.42         150.6814
   685.56         150.3086
   685.70         149.6051
   685.84         148.4079
   685.98         146.5965
   686.12         144.1363
   686.26         141.0864
   686.40         137.5787
   686.54         133.7987
   686.68         129.9792
   686.82         126.3809
   686.96         123.2677
   687.10         120.8828
   687.24         119.4098
   687.38         118.9343
   687.52         119.4266
   687.66         120.7474
   687.80         122.6699
   687.94         124.9146
   688.08         127.1853
   688.22         129.2116
   688.36         130.8083
   688.50         131.9218
   688.64         132.6124
   688.78         132.9886
   688.92         133.1572
   689.06         133.2137
   689.20         133.2454
   689.34         133.3243
   689.48         133.5011
   689.62         133.7936
   689.76         134.1716
   689.90         134.5698
   690.04         134.9279
   690.18         135.2127
   690.32         135.4205
   690.46         135.5797
   690.60         135.7388
   690.74         135.9378
   690.88         136.1978
   691.02         136.5306
   691.16         136.9407
   691.30         137.4169
   691.44         137.9383
   691.58         138.4898
   691.72         139.0623
   691.86         139.6383
   692.00         140.1956
   692.14         140.7250
   692.28         141.2245
   692.42         141.6951
   692.56         142.1433
   692.70         142.5718
   692.84         142.9710
   692.98         143.3263
   693.12         143.6227
   693.26         143.8442
   693.40         143.9868
   693.54         144.0636
   693.68         144.0936
   693.82         144.0945
   693.96         144.0877
   694.10         144.0973
   694.24         144.1429
   694.38         144.2324
   694.52         144.3629
   694.66         144.5278
   694.80         144.7191
   694.94         144.9203
   695.08         145.1092
   695.22         145.2745
   695.36         145.4237
   695.50         145.5725
   695.64         145.7335
   695.78         145.9182
   695.92         146.1425
   696.06         146.4215
   696.20         146.7572
   696.34         147.1373
   696.48         147.5440
   696.62         147.9528
   696.76         148.3282
   696.90         148.6319
   697.04         148.8283
   697.18         148.8960
   697.32         148.8413
   697.46         148.6906
   697.60         148.4793
   697.74         148.2505
   697.88         148.0501
   698.02         147.9095
   698.16         147.8334
   698.30         147.8071
   698.44         147.8105
   698.58         147.8226
   698.72         147.8232
   698.86         147.7932
   699.00         147.7136
   699.14         147.5701
   699.28         147.3607
   699.42         147.0970
   699.56         146.8026
   699.70         146.5206
   699.84         146.3079
   699.98         146.2088
   700.12         146.2387
   700.26         146.3865
   700.40         146.6205
   700.54         146.9042
   700.68         147.1979
   700.82         147.4589
   700.96         147.6528
   701.10         147.7609
   701.24         147.7742
   701.38         147.6889
   701.52         147.4999
   701.66         147.2004
   701.80         146.7949
   701.94         146.3066
   702.08         145.7705
   702.22         145.2299
   702.36         144.7334
   702.50         144.3185
   702.64         144.0010
   702.78         143.7802
   702.92         143.6470
   703.06         143.5983
   703.20         143.6443
   703.34         143.7837
   703.48         143.9963
   703.62         144.2652
   703.76         144.5823
   703.90         144.9301
   704.04         145.2751
   704.18         145.5783
   704.32         145.8106
   704.46         145.9568
   704.60         146.0098
   704.74         145.9681
   704.88         145.8290
   705.02         145.5818
   705.16         145.1954
   705.30         144.6183
   705.44         143.8131
   705.58         142.7925
   705.72         141.6214
   705.86         140.3923
   706.00         139.1996
   706.14         138.1350
   706.28         137.3003
   706.42         136.7866
   706.56         136.6426
   706.70         136.8722
   706.84         137.4515
   706.98         138.3346
   707.12         139.4512
   707.26         140.7099
   707.40         141.9980
   707.54         143.1871
   707.68         144.1588
   707.82         144.8324
   707.96         145.1909
   708.10         145.2821
   708.24         145.1824
   708.38         144.9587
   708.52         144.6641
   708.66         144.3505
   708.80         144.0707
   708.94         143.8722
   709.08         143.7774
   709.22         143.7708
   709.36         143.8227
   709.50         143.9130
   709.64         144.0311
   709.78         144.1640
   709.92         144.2912
   710.06         144.3940
   710.20         144.4700
   710.34         144.5301
   710.48         144.5802
   710.62         144.6123
   710.76         144.6164
   710.90         144.5845
   711.04         144.5119
   711.18         144.4014
   711.32         144.2609
   711.46         144.1007
   711.60         143.9316
   711.74         143.7571
   711.88         143.5747
   712.02         143.3908
   712.16         143.2236
   712.30         143.0885
   712.44         142.9849
   712.58         142.8987
   712.72         142.8143
   712.86         142.7166
   713.00         142.5883
   713.14         142.4201
   713.28         142.2195
   713.42         142.0019
   713.56         141.7765
   713.70         141.5475
   713.84         141.3183
   713.98         141.0993
   714.12         140.9090
   714.26         140.7611
   714.40         140.6650
   714.54         140.6335
   714.68         140.6746
   714.82         140.7796
   714.96         140.9274
   715.10         141.0946
   715.24         141.2614
   715.38         141.4141
   715.52         141.5433
   715.66         141.6395
   715.80         141.6794
   715.94         141.6178
   716.08         141.4062
   716.22         141.0160
   716.36         140.4332
   716.50         139.6518
   716.64         138.6894
   716.78         137.5884
   716.92         136.4005
   717.06         135.1767
   717.20         133.9520
   717.34         132.7363
   717.48         131.5411
   717.62         130.4119
   717.76         129.4122
   717.90         128.5848
   718.04         127.9433
   718.18         127.4869
   718.32         127.2106
   718.46         127.1077
   718.60         127.1695
   718.74         127.3763
   718.88         127.6847
   719.02         128.0389
   719.16         128.3829
   719.30         128.6638
   719.44         128.8427
   719.58         128.9047
   719.72         128.8609
   719.86         128.7466
   720.00         128.6209
   720.14         128.5663
   720.28         128.6608
   720.42         128.9442
   720.56         129.4288
   720.70         130.1260
   720.84         131.0274
   720.98         132.0720
   721.12         133.1528
   721.26         134.1585
   721.40         135.0072
   721.54         135.6597
   721.68         136.1113
   721.82         136.3677
   721.96         136.4345
   722.10         136.3256
   722.24         136.0642
   722.38         135.6773
   722.52         135.1979
   722.66         134.6601
   722.80         134.0842
   722.94         133.4798
   723.08         132.8625
   723.22         132.2562
   723.36         131.6791
   723.50         131.1423
   723.64         130.6691
   723.78         130.3021
   723.92         130.0731
   724.06         129.9709
   724.20         129.9548
   724.34         129.9835
   724.48         130.0234
   724.62         130.0566
   724.76         130.0938
   724.90         130.1638
   725.04         130.2889
   725.18         130.4622
   725.32         130.6432
   725.46         130.7932
   725.60         130.9082
   725.74         131.0006
   725.88         131.0753
   726.02         131.1136
   726.16         131.0729
   726.30         130.9020
   726.44         130.5493
   726.58         129.9794
   726.72         129.1949
   726.86         128.2369
   727.00         127.1645
   727.14         126.0502
   727.28         124.9913
   727.42         124.0854
   727.56         123.3968
   727.70         122.9510
   727.84         122.7344
   727.98         122.7112
   728.12         122.8560
   728.26         123.1392
   728.40         123.5084
   728.54         123.9118
   728.68         124.3076
   728.82         124.6685
   728.96         124.9810
   729.10         125.2323
   729.24         125.4126
   729.38         125.5315
   729.52         125.6231
   729.66         125.7295
   729.80         125.8756
   729.94         126.0528
   730.08         126.2228
   730.22         126.3451
   730.36         126.3984
   730.50         126.3823
   730.64         126.3180
   730.78         126.2390
   730.92         126.1689
   731.06         126.1234
   731.20         126.1184
   731.34         126.1552
   731.48         126.2171
   731.62         126.2848
   731.76         126.3441
   731.90         126.3954
   732.04         126.4560
   732.18         126.5386
   732.32         126.6312
   732.46         126.7153
   732.60         126.7853
   732.74         126.8458
   732.88         126.9017
   733.02         126.9495
   733.16         126.9740
   733.30         126.9597
   733.44         126.9012
   733.58         126.8029
   733.72         126.6735
   733.86         126.5183
   734.00         126.3427
   734.14         126.1646
   734.28         126.0066
   734.42         125.8784
   734.56         125.7767
   734.70         125.6949
   734.84         125.6259
   734.98         125.5619
   735.12         125.4975
   735.26         125.4267
   735.40         125.3401
   735.54         125.2246
   735.68         125.0631
   735.82         124.8436
   735.96         124.5701
   736.10         124.2600
   736.24         123.9309
   736.38         123.5989
   736.52         123.2801
   736.66         122.9895
   736.80         122.7364
   736.94         122.5238
   737.08         122.3497
   737.22         122.2114
   737.36         122.1042
   737.50         122.0155
   737.64         121.9272
   737.78         121.8209
   737.92         121.6785
   738.06         121.4865
   738.20         121.2389
   738.34         120.9348
   738.48         120.5782
   738.62         120.1791
   738.76         119.7547
   738.90         119.3298
   739.04         118.9372
   739.18         118.6066
   739.32         118.3510
   739.46         118.1679
   739.60         118.0477
   739.74         117.9789
   739.88         117.9564
   740.02         117.9813
   740.16         118.0537
   740.30         118.1733
   740.44         118.3351
   740.58         118.5302
   740.72         118.7478
   740.86         118.9668
   741.00         119.1524
   741.14         119.2670
   741.28         119.2804
   741.42         119.1745
   741.56         118.9444
   741.70         118.5914
   741.84         118.1202
   741.98         117.5407
   742.12         116.8807
   742.26         116.1903
   742.40         115.5333
   742.54         114.9757
   742.68         114.5721
   742.82         114.3602
   742.96         114.3602
   743.10         114.5721
   743.24         114.9757
   743.38         115.5333
   743.52         116.1903
   743.66         116.8807
   743.80         117.5407
   743.94         118.1202
   744.08         118.5914
   744.22         118.9444
