# File HD166125
# Wavelength [nm]    Normalized Amplitude
   349.70         184.9526
   349.84         184.5091
   349.98         183.9622
   350.12         183.3407
   350.26         182.6981
   350.40         182.0808
   350.54         181.5056
   350.68         181.0055
   350.82         180.6423
   350.96         180.4370
   351.10         180.3715
   351.24         180.4370
   351.38         180.6423
   351.52         181.0055
   351.66         181.5056
   351.80         182.0808
   351.94         182.6981
   352.08         183.3407
   352.22         183.9622
   352.36         184.5091
   352.50         184.9526
   352.64         185.2869
   352.78         185.5251
   352.92         185.6679
   353.06         185.6912
   353.20         185.6025
   353.34         185.4603
   353.48         185.3302
   353.62         185.2376
   353.76         185.1981
   353.90         185.2305
   354.04         185.3218
   354.18         185.4369
   354.32         185.5104
   354.46         185.4822
   354.60         185.3560
   354.74         185.1759
   354.88         184.9867
   355.02         184.8228
   355.16         184.7036
   355.30         184.6205
   355.44         184.5335
   355.58         184.4060
   355.72         184.2722
   355.86         184.2359
   356.00         184.3745
   356.14         184.6950
   356.28         185.1512
   356.42         185.6989
   356.56         186.3061
   356.70         186.9077
   356.84         187.3949
   356.98         187.6440
   357.12         187.5841
   357.26         187.2160
   357.40         186.5658
   357.54         185.6668
   357.68         184.5898
   357.82         183.4468
   357.96         182.3257
   358.10         181.2987
   358.24         180.4808
   358.38         179.9705
   358.52         179.7692
   358.66         179.8222
   358.80         180.0957
   358.94         180.5753
   359.08         181.2268
   359.22         181.9726
   359.36         182.6959
   359.50         183.3088
   359.64         183.7986
   359.78         184.1819
   359.92         184.4505
   360.06         184.5879
   360.20         184.6012
   360.34         184.5015
   360.48         184.2793
   360.62         183.9314
   360.76         183.5036
   360.90         183.0725
   361.04         182.6820
   361.18         182.3283
   361.32         181.9941
   361.46         181.6666
   361.60         181.3394
   361.74         181.0103
   361.88         180.6628
   362.02         180.2759
   362.16         179.8740
   362.30         179.5121
   362.44         179.2295
   362.58         179.0531
   362.72         179.0077
   362.86         179.1046
   363.00         179.3158
   363.14         179.6080
   363.28         179.9591
   363.42         180.3294
   363.56         180.6657
   363.70         180.9024
   363.84         180.9875
   363.98         180.9357
   364.12         180.8143
   364.26         180.6816
   364.40         180.5437
   364.54         180.3717
   364.68         180.1711
   364.82         179.9885
   364.96         179.8374
   365.10         179.6848
   365.24         179.4776
   365.38         179.1526
   365.52         178.6743
   365.66         178.0499
   365.80         177.3175
   365.94         176.5282
   366.08         175.7648
   366.22         175.1400
   366.36         174.7506
   366.50         174.6616
   366.64         174.8761
   366.78         175.3177
   366.92         175.8902
   367.06         176.5106
   367.20         177.0949
   367.34         177.5692
   367.48         177.8686
   367.62         177.9317
   367.76         177.7203
   367.90         177.2311
   368.04         176.5187
   368.18         175.7349
   368.32         175.0806
   368.46         174.6712
   368.60         174.4738
   368.74         174.3754
   368.88         174.2687
   369.02         174.0835
   369.16         173.7749
   369.30         173.3046
   369.44         172.6615
   369.58         171.8910
   369.72         171.0688
   369.86         170.2641
   370.00         169.5365
   370.14         168.9488
   370.28         168.5746
   370.42         168.4909
   370.56         168.7818
   370.70         169.5030
   370.84         170.6041
   370.98         171.9007
   371.12         173.1435
   371.26         174.1773
   371.40         175.0340
   371.54         175.8665
   371.68         176.8023
   371.82         177.8731
   371.96         179.0492
   372.10         180.2536
   372.24         181.3597
   372.38         182.2275
   372.52         182.7451
   372.66         182.8873
   372.80         182.7547
   372.94         182.5248
   373.08         182.3976
   373.22         182.5709
   373.36         183.1705
   373.50         184.1958
   373.64         185.5602
   373.78         187.1495
   373.92         188.8068
   374.06         190.3338
   374.20         191.5475
   374.34         192.3079
   374.48         192.5558
   374.62         192.3497
   374.76         191.8679
   374.90         191.4048
   375.04         191.3001
   375.18         191.8328
   375.32         193.1627
   375.46         195.2645
   375.60         197.9001
   375.74         200.6688
   375.88         203.0580
   376.02         204.5352
   376.16         204.7079
   376.30         203.4863
   376.44         201.1077
   376.58         198.0260
   376.72         194.8263
   376.86         192.1161
   377.00         190.3894
   377.14         189.9548
   377.28         190.9298
   377.42         193.2769
   377.56         196.8093
   377.70         201.1792
   377.84         205.9338
   377.98         210.5785
   378.12         214.6107
   378.26         217.5921
   378.40         219.1938
   378.54         219.2103
   378.68         217.6158
   378.82         214.6027
   378.96         210.5369
   379.10         205.8712
   379.24         201.0845
   379.38         196.6480
   379.52         192.9796
   379.66         190.4194
   379.80         189.2433
   379.94         189.6439
   380.08         191.6592
   380.22         195.1299
   380.36         199.7264
   380.50         204.9959
   380.64         210.3904
   380.78         215.3257
   380.92         219.2966
   381.06         221.9862
   381.20         223.3351
   381.34         223.5184
   381.48         222.8332
   381.62         221.5980
   381.76         220.0825
   381.90         218.4425
   382.04         216.6980
   382.18         214.7642
   382.32         212.4958
   382.46         209.7337
   382.60         206.3683
   382.74         202.4051
   382.88         198.0030
   383.02         193.4459
   383.16         189.0874
   383.30         185.3361
   383.44         182.6235
   383.58         181.3338
   383.72         181.7225
   383.86         183.8392
   384.00         187.5013
   384.14         192.3385
   384.28         197.8835
   384.42         203.6318
   384.56         209.0872
   384.70         213.8442
   384.84         217.6479
   384.98         220.4186
   385.12         222.2375
   385.26         223.2929
   385.40         223.8106
   385.54         223.9829
   385.68         223.9423
   385.82         223.7744
   385.96         223.5198
   386.10         223.1709
   386.24         222.7077
   386.38         222.1196
   386.52         221.4115
   386.66         220.6094
   386.80         219.7426
   386.94         218.8349
   387.08         217.8966
   387.22         216.9033
   387.36         215.7719
   387.50         214.3338
   387.64         212.3620
   387.78         209.6524
   387.92         206.1221
   388.06         201.8674
   388.20         197.1285
   388.34         192.2401
   388.48         187.5924
   388.62         183.5943
   388.76         180.6557
   388.90         179.1186
   389.04         179.1864
   389.18         180.9111
   389.32         184.1715
   389.46         188.6600
   389.60         193.9490
   389.74         199.5679
   389.88         205.0251
   390.02         209.8800
   390.16         213.8390
   390.30         216.7937
   390.44         218.8126
   390.58         220.0620
   390.72         220.7213
   390.86         220.9242
   391.00         220.7406
   391.14         220.2229
   391.28         219.4335
   391.42         218.4123
   391.56         217.1806
   391.70         215.7883
   391.84         214.3018
   391.98         212.7475
   392.12         211.1085
   392.26         209.3993
   392.40         207.7016
   392.54         206.1265
   392.68         204.8277
   392.82         203.9521
   392.96         203.5693
   393.10         203.6935
   393.24         204.2951
   393.38         205.2939
   393.52         206.5582
   393.66         207.9464
   393.80         209.3603
   393.94         210.7329
   394.08         211.9985
   394.22         213.1061
   394.36         214.0206
   394.50         214.6782
   394.64         215.0062
   394.78         214.9993
   394.92         214.7120
   395.06         214.1661
   395.20         213.2953
   395.34         211.9752
   395.48         210.0225
   395.62         207.2094
   395.76         203.3592
   395.90         198.4311
   396.04         192.5566
   396.18         186.0539
   396.32         179.4058
   396.46         173.1575
   396.60         167.8148
   396.74         163.7974
   396.88         161.4060
   397.02         160.7908
   397.16         161.9281
   397.30         164.6526
   397.44         168.6878
   397.58         173.6527
   397.72         179.1172
   397.86         184.6648
   398.00         189.9184
   398.14         194.5636
   398.28         198.3908
   398.42         201.3336
   398.56         203.4484
   398.70         204.8450
   398.84         205.6365
   398.98         205.9230
   399.12         205.7895
   399.26         205.3054
   399.40         204.5192
   399.54         203.4725
   399.68         202.2159
   399.82         200.7986
   399.96         199.2708
   400.10         197.7021
   400.24         196.1880
   400.38         194.8351
   400.52         193.7306
   400.66         192.9160
   400.80         192.3887
   400.94         192.1338
   401.08         192.1259
   401.22         192.2940
   401.36         192.5008
   401.50         192.5726
   401.64         192.3853
   401.78         191.9095
   401.92         191.1775
   402.06         190.2626
   402.20         189.2842
   402.34         188.3770
   402.48         187.6659
   402.62         187.2645
   402.76         187.2552
   402.90         187.6541
   403.04         188.4003
   403.18         189.3809
   403.32         190.4623
   403.46         191.5253
   403.60         192.4755
   403.74         193.2242
   403.88         193.7146
   404.02         193.9544
   404.16         194.0252
   404.30         194.0585
   404.44         194.1461
   404.58         194.3052
   404.72         194.5167
   404.86         194.7408
   405.00         194.9151
   405.14         194.9633
   405.28         194.8329
   405.42         194.5139
   405.56         194.0052
   405.70         193.3083
   405.84         192.4444
   405.98         191.4440
   406.12         190.3362
   406.26         189.1351
   406.40         187.8614
   406.54         186.5710
   406.68         185.3298
   406.82         184.1980
   406.96         183.2242
   407.10         182.4394
   407.24         181.8710
   407.38         181.5169
   407.52         181.3359
   407.66         181.2886
   407.80         181.3423
   407.94         181.4447
   408.08         181.5094
   408.22         181.4325
   408.36         181.1281
   408.50         180.5135
   408.64         179.4803
   408.78         177.8973
   408.92         175.6388
   409.06         172.6559
   409.20         169.0045
   409.34         164.8285
   409.48         160.3717
   409.62         155.9664
   409.76         151.9819
   409.90         148.7504
   410.04         146.5105
   410.18         145.4273
   410.32         145.5902
   410.46         146.9544
   410.60         149.3387
   410.74         152.4834
   410.88         156.0903
   411.02         159.8328
   411.16         163.3821
   411.30         166.4773
   411.44         168.9639
   411.58         170.7896
   411.72         172.0043
   411.86         172.7257
   412.00         173.0988
   412.14         173.2672
   412.28         173.3341
   412.42         173.3460
   412.56         173.2951
   412.70         173.1630
   412.84         172.9643
   412.98         172.6925
   413.12         172.2834
   413.26         171.6757
   413.40         170.8727
   413.54         169.9422
   413.68         168.9713
   413.82         168.0470
   413.96         167.2638
   414.10         166.6996
   414.24         166.4202
   414.38         166.4779
   414.52         166.8740
   414.66         167.5580
   414.80         168.4383
   414.94         169.3855
   415.08         170.2565
   415.22         170.9231
   415.36         171.3013
   415.50         171.3601
   415.64         171.1004
   415.78         170.5625
   415.92         169.8427
   416.06         169.0704
   416.20         168.3601
   416.34         167.7896
   416.48         167.4151
   416.62         167.2650
   416.76         167.3139
   416.90         167.4984
   417.04         167.7306
   417.18         167.9234
   417.32         168.0367
   417.46         168.0647
   417.60         167.9910
   417.74         167.8011
   417.88         167.5153
   418.02         167.1770
   418.16         166.8302
   418.30         166.5059
   418.44         166.2263
   418.58         166.0107
   418.72         165.8784
   418.86         165.8423
   419.00         165.8933
   419.14         166.0049
   419.28         166.1336
   419.42         166.2285
   419.56         166.2572
   419.70         166.2105
   419.84         166.0985
   419.98         165.9377
   420.12         165.7283
   420.26         165.4727
   420.40         165.2180
   420.54         165.0193
   420.68         164.8841
   420.82         164.7986
   420.96         164.7536
   421.10         164.7313
   421.24         164.7116
   421.38         164.6980
   421.52         164.6940
   421.66         164.6802
   421.80         164.6312
   421.94         164.5138
   422.08         164.2957
   422.22         163.9723
   422.36         163.5621
   422.50         163.0840
   422.64         162.5545
   422.78         162.0020
   422.92         161.4723
   423.06         161.0028
   423.20         160.6099
   423.34         160.3078
   423.48         160.1114
   423.62         160.0151
   423.76         159.9896
   423.90         160.0043
   424.04         160.0317
   424.18         160.0297
   424.32         159.9544
   424.46         159.7765
   424.60         159.4792
   424.74         159.0707
   424.88         158.5847
   425.02         158.0533
   425.16         157.4951
   425.30         156.9296
   425.44         156.3776
   425.58         155.8461
   425.72         155.3233
   425.86         154.8002
   426.00         154.2844
   426.14         153.7951
   426.28         153.3518
   426.42         152.9678
   426.56         152.6601
   426.70         152.4435
   426.84         152.3209
   426.98         152.2940
   427.12         152.3586
   427.26         152.5057
   427.40         152.7283
   427.54         153.0142
   427.68         153.3459
   427.82         153.7074
   427.96         154.0709
   428.10         154.3919
   428.24         154.6279
   428.38         154.7532
   428.52         154.7656
   428.66         154.6749
   428.80         154.4908
   428.94         154.2248
   429.08         153.8967
   429.22         153.5359
   429.36         153.1731
   429.50         152.8420
   429.64         152.5714
   429.78         152.3655
   429.92         152.2205
   430.06         152.1405
   430.20         152.1217
   430.34         152.1426
   430.48         152.1642
   430.62         152.1392
   430.76         152.0459
   430.90         151.8897
   431.04         151.6765
   431.18         151.4203
   431.32         151.1592
   431.46         150.9356
   431.60         150.7621
   431.74         150.6312
   431.88         150.5318
   432.02         150.4388
   432.16         150.3139
   432.30         150.1049
   432.44         149.7336
   432.58         149.0897
   432.72         148.0341
   432.86         146.4201
   433.00         144.1375
   433.14         141.1703
   433.28         137.6328
   433.42         133.7488
   433.56         129.7939
   433.70         126.0625
   433.84         122.8493
   433.98         120.4056
   434.12         118.8957
   434.26         118.4075
   434.40         118.9745
   434.54         120.5359
   434.68         122.9221
   434.82         125.8961
   434.96         129.1833
   435.10         132.4921
   435.24         135.5606
   435.38         138.2143
   435.52         140.3886
   435.66         142.1081
   435.80         143.4541
   435.94         144.5158
   436.08         145.3503
   436.22         145.9841
   436.36         146.4304
   436.50         146.7121
   436.64         146.8668
   436.78         146.9402
   436.92         146.9851
   437.06         147.0197
   437.20         147.0094
   437.34         146.9132
   437.48         146.7024
   437.62         146.3465
   437.76         145.8186
   437.90         145.1174
   438.04         144.2826
   438.18         143.3829
   438.32         142.4852
   438.46         141.6444
   438.60         140.9163
   438.74         140.3691
   438.88         140.0631
   439.02         140.0203
   439.16         140.2320
   439.30         140.6589
   439.44         141.2234
   439.58         141.8167
   439.72         142.3332
   439.86         142.7109
   440.00         142.9170
   440.14         142.9354
   440.28         142.7712
   440.42         142.4423
   440.56         141.9753
   440.70         141.3996
   440.84         140.7430
   440.98         140.0222
   441.12         139.2471
   441.26         138.4429
   441.40         137.6417
   441.54         136.8564
   441.68         136.0932
   441.82         135.3718
   441.96         134.7053
   442.10         134.0821
   442.24         133.4900
   442.38         132.9417
   442.52         132.4464
   442.66         131.9925
   442.80         131.5809
   442.94         131.2390
   443.08         131.0193
   443.22         130.9808
   443.36         131.1651
   443.50         131.5897
   443.64         132.2310
   443.78         133.0378
   443.92         133.9569
   444.06         134.9203
   444.20         135.8402
   444.34         136.6338
   444.48         137.2442
   444.62         137.6273
   444.76         137.7599
   444.90         137.6781
   445.04         137.4636
   445.18         137.2018
   445.32         136.9608
   445.46         136.7795
   445.60         136.6621
   445.74         136.5548
   445.88         136.3425
   446.02         135.9180
   446.16         135.2383
   446.30         134.3228
   446.44         133.2401
   446.58         132.0838
   446.72         130.9450
   446.86         129.9035
   447.00         129.0399
   447.14         128.4337
   447.28         128.1421
   447.42         128.2037
   447.56         128.6288
   447.70         129.3712
   447.84         130.3410
   447.98         131.4246
   448.12         132.4986
   448.26         133.4563
   448.40         134.2222
   448.54         134.7726
   448.68         135.1392
   448.82         135.3686
   448.96         135.4870
   449.10         135.5085
   449.24         135.4380
   449.38         135.2683
   449.52         135.0158
   449.66         134.7419
   449.80         134.5170
   449.94         134.3832
   450.08         134.3485
   450.22         134.3947
   450.36         134.5047
   450.50         134.6691
   450.64         134.8652
   450.78         135.0561
   450.92         135.2110
   451.06         135.3163
   451.20         135.3661
   451.34         135.3518
   451.48         135.2704
   451.62         135.1379
   451.76         134.9806
   451.90         134.8162
   452.04         134.6507
   452.18         134.4868
   452.32         134.3230
   452.46         134.1466
   452.60         133.9498
   452.74         133.7408
   452.88         133.5238
   453.02         133.2977
   453.16         133.0620
   453.30         132.8083
   453.44         132.5327
   453.58         132.2529
   453.72         131.9797
   453.86         131.6928
   454.00         131.3667
   454.14         130.9999
   454.28         130.6166
   454.42         130.2508
   454.56         129.9231
   454.70         129.6441
   454.84         129.4434
   454.98         129.3555
   455.12         129.3838
   455.26         129.5091
   455.40         129.6880
   455.54         129.8479
   455.68         129.9252
   455.82         129.8855
   455.96         129.7097
   456.10         129.3952
   456.24         128.9500
   456.38         128.3832
   456.52         127.7211
   456.66         127.0236
   456.80         126.3726
   456.94         125.8488
   457.08         125.5047
   457.22         125.3435
   457.36         125.3427
   457.50         125.4715
   457.64         125.6715
   457.78         125.8781
   457.92         126.0480
   458.06         126.1537
   458.20         126.1830
   458.34         126.1349
   458.48         126.0150
   458.62         125.8357
   458.76         125.6175
   458.90         125.3889
   459.04         125.1857
   459.18         125.0335
   459.32         124.9407
   459.46         124.9024
   459.60         124.9011
   459.74         124.9077
   459.88         124.8818
   460.02         124.7930
   460.16         124.6406
   460.30         124.4482
   460.44         124.2465
   460.58         124.0497
   460.72         123.8615
   460.86         123.6850
   461.00         123.5334
   461.14         123.4384
   461.28         123.4244
   461.42         123.5045
   461.56         123.6736
   461.70         123.8923
   461.84         124.1076
   461.98         124.2823
   462.12         124.4039
   462.26         124.4691
   462.40         124.4629
   462.54         124.3565
   462.68         124.1331
   462.82         123.8051
   462.96         123.3975
   463.10         122.9347
   463.24         122.4486
   463.38         121.9813
   463.52         121.5725
   463.66         121.2458
   463.80         120.9990
   463.94         120.8191
   464.08         120.6990
   464.22         120.6269
   464.36         120.5995
   464.50         120.6311
   464.64         120.7201
   464.78         120.8438
   464.92         120.9799
   465.06         121.1123
   465.20         121.2213
   465.34         121.2846
   465.48         121.3031
   465.62         121.3030
   465.76         121.3071
   465.90         121.3204
   466.04         121.3433
   466.18         121.3727
   466.32         121.3979
   466.46         121.4106
   466.60         121.4132
   466.74         121.4084
   466.88         121.3930
   467.02         121.3712
   467.16         121.3426
   467.30         121.2969
   467.44         121.2339
   467.58         121.1600
   467.72         121.0780
   467.86         120.9830
   468.00         120.8792
   468.14         120.7913
   468.28         120.7326
   468.42         120.6843
   468.56         120.6183
   468.70         120.5164
   468.84         120.3624
   468.98         120.1587
   469.12         119.9337
   469.26         119.7163
   469.40         119.5240
   469.54         119.3686
   469.68         119.2592
   469.82         119.1840
   469.96         119.1030
   470.10         118.9728
   470.24         118.7593
   470.38         118.4414
   470.52         118.0069
   470.66         117.4452
   470.80         116.7608
   470.94         115.9844
   471.08         115.1596
   471.22         114.3372
   471.36         113.5705
   471.50         112.9065
   471.64         112.3906
   471.78         112.0636
   471.92         111.9455
   472.06         112.0304
   472.20         112.2942
   472.34         112.6939
   472.48         113.1678
   472.62         113.6586
   472.76         114.1361
   472.90         114.5787
   473.04         114.9547
   473.18         115.2278
   473.32         115.3644
   473.46         115.3545
   473.60         115.2098
   473.74         114.9412
   473.88         114.5698
   474.02         114.1296
   474.16         113.6535
   474.30         113.1700
   474.44         112.7021
   474.58         112.2611
   474.72         111.8477
   474.86         111.4561
   475.00         111.0761
   475.14         110.7095
   475.28         110.3793
   475.42         110.1034
   475.56         109.8740
   475.70         109.6796
   475.84         109.5240
   475.98         109.4183
   476.12         109.3646
   476.26         109.3535
   476.40         109.3616
   476.54         109.3642
   476.68         109.3518
   476.82         109.3242
   476.96         109.2913
   477.10         109.2707
   477.24         109.2800
   477.38         109.3286
   477.52         109.4102
   477.66         109.5219
   477.80         109.6789
   477.94         109.8930
   478.08         110.1531
   478.22         110.4324
   478.36         110.6993
   478.50         110.9271
   478.64         111.0960
   478.78         111.1813
   478.92         111.1652
   479.06         111.0453
   479.20         110.8350
   479.34         110.5627
   479.48         110.2587
   479.62         109.9509
   479.76         109.6553
   479.90         109.3702
   480.04         109.0846
   480.18         108.7877
   480.32         108.4735
   480.46         108.1379
   480.60         107.7785
   480.74         107.3942
   480.88         106.9864
   481.02         106.5634
   481.16         106.1514
   481.30         105.7823
   481.44         105.4801
   481.58         105.2632
   481.72         105.1393
   481.86         105.1104
   482.00         105.1771
   482.14         105.3263
   482.28         105.5271
   482.42         105.7382
   482.56         105.9254
   482.70         106.0659
   482.84         106.1405
   482.98         106.1413
   483.12         106.0816
   483.26         105.9831
   483.40         105.8544
   483.54         105.6912
   483.68         105.4935
   483.82         105.2677
   483.96         105.0124
   484.10         104.7074
   484.24         104.3165
   484.38         103.7979
   484.52         103.1002
   484.66         102.1583
   484.80         100.9112
   484.94         99.3255
   485.08         97.4129
   485.22         95.2452
   485.36         92.9489
   485.50         90.6854
   485.64         88.6275
   485.78         86.9353
   485.92         85.7365
   486.06         85.1125
   486.20         85.0949
   486.34         85.6577
   486.48         86.7095
   486.62         88.1117
   486.76         89.7083
   486.90         91.3446
   487.04         92.8819
   487.18         94.2084
   487.32         95.2572
   487.46         96.0170
   487.60         96.5252
   487.74         96.8520
   487.88         97.0762
   488.02         97.2682
   488.16         97.4810
   488.30         97.7437
   488.44         98.0629
   488.58         98.4314
   488.72         98.8366
   488.86         99.2676
   489.00         99.7089
   489.14         100.1439
   489.28         100.5695
   489.42         100.9833
   489.56         101.3663
   489.70         101.6908
   489.84         101.9331
   489.98         102.0745
   490.12         102.1001
   490.26         102.0039
   490.40         101.7943
   490.54         101.4870
   490.68         101.0962
   490.82         100.6180
   490.96         100.0280
   491.10         99.3147
   491.24         98.4983
   491.38         97.6205
   491.52         96.7318
   491.66         95.8857
   491.80         95.1402
   491.94         94.5516
   492.08         94.1628
   492.22         93.9998
   492.36         94.0765
   492.50         94.3916
   492.64         94.9226
   492.78         95.6335
   492.92         96.4794
   493.06         97.3998
   493.20         98.3169
   493.34         99.1497
   493.48         99.8320
   493.62         100.3253
   493.76         100.6330
   493.90         100.7876
   494.04         100.8212
   494.18         100.7612
   494.32         100.6362
   494.46         100.4734
   494.60         100.2969
   494.74         100.1237
   494.88         99.9605
   495.02         99.8108
   495.16         99.6738
   495.30         99.5385
   495.44         99.3967
   495.58         99.2458
   495.72         99.0829
   495.86         98.9093
   496.00         98.7281
   496.14         98.5391
   496.28         98.3408
   496.42         98.1451
   496.56         97.9664
   496.70         97.8098
   496.84         97.6822
   496.98         97.5906
   497.12         97.5335
   497.26         97.5015
   497.40         97.4797
   497.54         97.4550
   497.68         97.4191
   497.82         97.3651
   497.96         97.2890
   498.10         97.1979
   498.24         97.0990
   498.38         96.9897
   498.52         96.8677
   498.66         96.7312
   498.80         96.5827
   498.94         96.4348
   499.08         96.2988
   499.22         96.1679
   499.36         96.0232
   499.50         95.8470
   499.64         95.6270
   499.78         95.3610
   499.92         95.0516
   500.06         94.6944
   500.20         94.2758
   500.34         93.7790
   500.48         93.1954
   500.62         92.5366
   500.76         91.8403
   500.90         91.1614
   501.04         90.5514
   501.18         90.0571
   501.32         89.7180
   501.46         89.5529
   501.60         89.5604
   501.74         89.7197
   501.88         89.9952
   502.02         90.3453
   502.16         90.7258
   502.30         91.0911
   502.44         91.3936
   502.58         91.5942
   502.72         91.6782
   502.86         91.6565
   503.00         91.5600
   503.14         91.4342
   503.28         91.3262
   503.42         91.2650
   503.56         91.2460
   503.70         91.2393
   503.84         91.2227
   503.98         91.1935
   504.12         91.1554
   504.26         91.1082
   504.40         91.0439
   504.54         90.9573
   504.68         90.8553
   504.82         90.7526
   504.96         90.6643
   505.10         90.6044
   505.24         90.5884
   505.38         90.6190
   505.52         90.6809
   505.66         90.7573
   505.80         90.8362
   505.94         90.9049
   506.08         90.9558
   506.22         90.9915
   506.36         91.0253
   506.50         91.0711
   506.64         91.1254
   506.78         91.1675
   506.92         91.1743
   507.06         91.1398
   507.20         91.0724
   507.34         90.9763
   507.48         90.8524
   507.62         90.7097
   507.76         90.5662
   507.90         90.4351
   508.04         90.3194
   508.18         90.2207
   508.32         90.1410
   508.46         90.0725
   508.60         90.0027
   508.74         89.9262
   508.88         89.8360
   509.02         89.7223
   509.16         89.5810
   509.30         89.4157
   509.44         89.2364
   509.58         89.0578
   509.72         88.8967
   509.86         88.7678
   510.00         88.6832
   510.14         88.6539
   510.28         88.6786
   510.42         88.7397
   510.56         88.8142
   510.70         88.8851
   510.84         88.9350
   510.98         88.9406
   511.12         88.8844
   511.26         88.7649
   511.40         88.5896
   511.54         88.3665
   511.68         88.1061
   511.82         87.8211
   511.96         87.5279
   512.10         87.2475
   512.24         87.0016
   512.38         86.8042
   512.52         86.6627
   512.66         86.5783
   512.80         86.5420
   512.94         86.5415
   513.08         86.5711
   513.22         86.6240
   513.36         86.6860
   513.50         86.7408
   513.64         86.7787
   513.78         86.7996
   513.92         86.8049
   514.06         86.7907
   514.20         86.7478
   514.34         86.6706
   514.48         86.5602
   514.62         86.4204
   514.76         86.2548
   514.90         86.0649
   515.04         85.8558
   515.18         85.6422
   515.32         85.4388
   515.46         85.2521
   515.60         85.0871
   515.74         84.9460
   515.88         84.8254
   516.02         84.7258
   516.16         84.6521
   516.30         84.6060
   516.44         84.5874
   516.58         84.5952
   516.72         84.6221
   516.86         84.6557
   517.00         84.6842
   517.14         84.6989
   517.28         84.6975
   517.42         84.6820
   517.56         84.6516
   517.70         84.6002
   517.84         84.5219
   517.98         84.4137
   518.12         84.2764
   518.26         84.1185
   518.40         83.9586
   518.54         83.8169
   518.68         83.7053
   518.82         83.6282
   518.96         83.5828
   519.10         83.5580
   519.24         83.5342
   519.38         83.4892
   519.52         83.4093
   519.66         83.2954
   519.80         83.1575
   519.94         83.0062
   520.08         82.8498
   520.22         82.6950
   520.36         82.5516
   520.50         82.4358
   520.64         82.3596
   520.78         82.3230
   520.92         82.3276
   521.06         82.3774
   521.20         82.4661
   521.34         82.5776
   521.48         82.6926
   521.62         82.7909
   521.76         82.8481
   521.90         82.8415
   522.04         82.7654
   522.18         82.6267
   522.32         82.4327
   522.46         82.1924
   522.60         81.9241
   522.74         81.6495
   522.88         81.3867
   523.02         81.1506
   523.16         80.9539
   523.30         80.8022
   523.44         80.6962
   523.58         80.6365
   523.72         80.6179
   523.86         80.6264
   524.00         80.6419
   524.14         80.6476
   524.28         80.6346
   524.42         80.5982
   524.56         80.5409
   524.70         80.4745
   524.84         80.4079
   524.98         80.3430
   525.12         80.2805
   525.26         80.2200
   525.40         80.1496
   525.54         80.0505
   525.68         79.9087
   525.82         79.7153
   525.96         79.4665
   526.10         79.1677
   526.24         78.8347
   526.38         78.4843
   526.52         78.1272
   526.66         77.7759
   526.80         77.4526
   526.94         77.1833
   527.08         76.9899
   527.22         76.8869
   527.36         76.8768
   527.50         76.9465
   527.64         77.0722
   527.78         77.2283
   527.92         77.3897
   528.06         77.5329
   528.20         77.6417
   528.34         77.7108
   528.48         77.7412
   528.62         77.7400
   528.76         77.7199
   528.90         77.6942
   529.04         77.6746
   529.18         77.6736
   529.32         77.7047
   529.46         77.7757
   529.60         77.8771
   529.74         77.9838
   529.88         78.0676
   530.02         78.1075
   530.16         78.0909
   530.30         78.0156
   530.44         77.8897
   530.58         77.7226
   530.72         77.5196
   530.86         77.2859
   531.00         77.0338
   531.14         76.7810
   531.28         76.5435
   531.42         76.3333
   531.56         76.1580
   531.70         76.0158
   531.84         75.8987
   531.98         75.7985
   532.12         75.7070
   532.26         75.6184
   532.40         75.5313
   532.54         75.4488
   532.68         75.3737
   532.82         75.3074
   532.96         75.2519
   533.10         75.2069
   533.24         75.1683
   533.38         75.1337
   533.52         75.1072
   533.66         75.0947
   533.80         75.0982
   533.94         75.1134
   534.08         75.1357
   534.22         75.1656
   534.36         75.2061
   534.50         75.2600
   534.64         75.3239
   534.78         75.3868
   534.92         75.4387
   535.06         75.4711
   535.20         75.4785
   535.34         75.4547
   535.48         75.3904
   535.62         75.2806
   535.76         75.1302
   535.90         74.9549
   536.04         74.7740
   536.18         74.6013
   536.32         74.4479
   536.46         74.3227
   536.60         74.2277
   536.74         74.1606
   536.88         74.1153
   537.02         74.0824
   537.16         74.0513
   537.30         74.0102
   537.44         73.9523
   537.58         73.8785
   537.72         73.7914
   537.86         73.6926
   538.00         73.5827
   538.14         73.4676
   538.28         73.3589
   538.42         73.2628
   538.56         73.1783
   538.70         73.1012
   538.84         73.0263
   538.98         72.9510
   539.12         72.8707
   539.26         72.7803
   539.40         72.6817
   539.54         72.5812
   539.68         72.4844
   539.82         72.3898
   539.96         72.2914
   540.10         72.1928
   540.24         72.1004
   540.38         72.0135
   540.52         71.9294
   540.66         71.8474
   540.80         71.7730
   540.94         71.7145
   541.08         71.6754
   541.22         71.6561
   541.36         71.6507
   541.50         71.6448
   541.64         71.6255
   541.78         71.5872
   541.92         71.5302
   542.06         71.4541
   542.20         71.3559
   542.34         71.2332
   542.48         71.0856
   542.62         70.9171
   542.76         70.7386
   542.90         70.5612
   543.04         70.3945
   543.18         70.2459
   543.32         70.1130
   543.46         69.9851
   543.60         69.8453
   543.74         69.6753
   543.88         69.4669
   544.02         69.2201
   544.16         68.9372
   544.30         68.6238
   544.44         68.2894
   544.58         67.9473
   544.72         67.6132
   544.86         67.3052
   545.00         67.0458
   545.14         66.8618
   545.28         66.7777
   545.42         66.8060
   545.56         66.9341
   545.70         67.1310
   545.84         67.3634
   545.98         67.6022
   546.12         67.8306
   546.26         68.0432
   546.40         68.2387
   546.54         68.4154
   546.68         68.5692
   546.82         68.6934
   546.96         68.7836
   547.10         68.8395
   547.24         68.8632
   547.38         68.8537
   547.52         68.8071
   547.66         68.7210
   547.80         68.5922
   547.94         68.4136
   548.08         68.1794
   548.22         67.8939
   548.36         67.5785
   548.50         67.2672
   548.64         66.9915
   548.78         66.7737
   548.92         66.6292
   549.06         66.5665
   549.20         66.5863
   549.34         66.6793
   549.48         66.8235
   549.62         66.9897
   549.76         67.1487
   549.90         67.2762
   550.04         67.3528
   550.18         67.3677
   550.32         67.3238
   550.46         67.2286
   550.60         67.0935
   550.74         66.9375
   550.88         66.7849
   551.02         66.6569
   551.16         66.5645
   551.30         66.5053
   551.44         66.4699
   551.58         66.4519
   551.72         66.4418
   551.86         66.4241
   552.00         66.3825
   552.14         66.3050
   552.28         66.1866
   552.42         66.0323
   552.56         65.8580
   552.70         65.6806
   552.84         65.5126
   552.98         65.3610
   553.12         65.2289
   553.26         65.1227
   553.40         65.0505
   553.54         65.0142
   553.68         65.0094
   553.82         65.0321
   553.96         65.0804
   554.10         65.1523
   554.24         65.2426
   554.38         65.3400
   554.52         65.4298
   554.66         65.4981
   554.80         65.5345
   554.94         65.5332
   555.08         65.4932
   555.22         65.4156
   555.36         65.3025
   555.50         65.1612
   555.64         65.0042
   555.78         64.8473
   555.92         64.7089
   556.06         64.6039
   556.20         64.5390
   556.34         64.5139
   556.48         64.5223
   556.62         64.5527
   556.76         64.5932
   556.90         64.6334
   557.04         64.6656
   557.18         64.6837
   557.32         64.6832
   557.46         64.6612
   557.60         64.6158
   557.74         64.5506
   557.88         64.4777
   558.02         64.4103
   558.16         64.3576
   558.30         64.3245
   558.44         64.3145
   558.58         64.3290
   558.72         64.3599
   558.86         64.3915
   559.00         64.4084
   559.14         64.3962
   559.28         64.3435
   559.42         64.2413
   559.56         64.0846
   559.70         63.8759
   559.84         63.6238
   559.98         63.3435
   560.12         63.0577
   560.26         62.7897
   560.40         62.5613
   560.54         62.3878
   560.68         62.2743
   560.82         62.2197
   560.96         62.2173
   561.10         62.2538
   561.24         62.3091
   561.38         62.3615
   561.52         62.3949
   561.66         62.4005
   561.80         62.3742
   561.94         62.3181
   562.08         62.2368
   562.22         62.1384
   562.36         62.0347
   562.50         61.9406
   562.64         61.8719
   562.78         61.8322
   562.92         61.8101
   563.06         61.7933
   563.20         61.7744
   563.34         61.7477
   563.48         61.7078
   563.62         61.6491
   563.76         61.5678
   563.90         61.4658
   564.04         61.3518
   564.18         61.2380
   564.32         61.1313
   564.46         61.0337
   564.60         60.9470
   564.74         60.8708
   564.88         60.8022
   565.02         60.7375
   565.16         60.6708
   565.30         60.5917
   565.44         60.4864
   565.58         60.3522
   565.72         60.2026
   565.86         60.0515
   566.00         59.9076
   566.14         59.7791
   566.28         59.6740
   566.42         59.5971
   566.56         59.5502
   566.70         59.5341
   566.84         59.5462
   566.98         59.5790
   567.12         59.6263
   567.26         59.6852
   567.40         59.7510
   567.54         59.8159
   567.68         59.8716
   567.82         59.9136
   567.96         59.9405
   568.10         59.9526
   568.24         59.9538
   568.38         59.9437
   568.52         59.9136
   568.66         59.8561
   568.80         59.7680
   568.94         59.6483
   569.08         59.4992
   569.22         59.3282
   569.36         59.1467
   569.50         58.9645
   569.64         58.7866
   569.78         58.6164
   569.92         58.4554
   570.06         58.3070
   570.20         58.1789
   570.34         58.0800
   570.48         58.0184
   570.62         57.9983
   570.76         58.0175
   570.90         58.0645
   571.04         58.1213
   571.18         58.1749
   571.32         58.2191
   571.46         58.2501
   571.60         58.2644
   571.74         58.2561
   571.88         58.2202
   572.02         58.1579
   572.16         58.0751
   572.30         57.9805
   572.44         57.8846
   572.58         57.7973
   572.72         57.7249
   572.86         57.6636
   573.00         57.6017
   573.14         57.5293
   573.28         57.4400
   573.42         57.3250
   573.56         57.1764
   573.70         56.9986
   573.84         56.8090
   573.98         56.6259
   574.12         56.4647
   574.26         56.3367
   574.40         56.2489
   574.54         56.2029
   574.68         56.1929
   574.82         56.2081
   574.96         56.2362
   575.10         56.2646
   575.24         56.2828
   575.38         56.2827
   575.52         56.2592
   575.66         56.2122
   575.80         56.1447
   575.94         56.0596
   576.08         55.9569
   576.22         55.8407
   576.36         55.7229
   576.50         55.6111
   576.64         55.4995
   576.78         55.3674
   576.92         55.1918
   577.06         54.9620
   577.20         54.6819
   577.34         54.3704
   577.48         54.0562
   577.62         53.7659
   577.76         53.5191
   577.90         53.3293
   578.04         53.2056
   578.18         53.1514
   578.32         53.1622
   578.46         53.2255
   578.60         53.3240
   578.74         53.4410
   578.88         53.5626
   579.02         53.6727
   579.16         53.7511
   579.30         53.7810
   579.44         53.7564
   579.58         53.6908
   579.72         53.6102
   579.86         53.5367
   580.00         53.4875
   580.14         53.4735
   580.28         53.4989
   580.42         53.5629
   580.56         53.6592
   580.70         53.7746
   580.84         53.8928
   580.98         54.0035
   581.12         54.1047
   581.26         54.1964
   581.40         54.2753
   581.54         54.3323
   581.68         54.3559
   581.82         54.3407
   581.96         54.2877
   582.10         54.2020
   582.24         54.0947
   582.38         53.9798
   582.52         53.8689
   582.66         53.7701
   582.80         53.6893
   582.94         53.6298
   583.08         53.5919
   583.22         53.5706
   583.36         53.5607
   583.50         53.5596
   583.64         53.5610
   583.78         53.5525
   583.92         53.5215
   584.06         53.4610
   584.20         53.3689
   584.34         53.2480
   584.48         53.1087
   584.62         52.9668
   584.76         52.8384
   584.90         52.7359
   585.04         52.6674
   585.18         52.6375
   585.32         52.6487
   585.46         52.6993
   585.60         52.7796
   585.74         52.8750
   585.88         52.9686
   586.02         53.0386
   586.16         53.0519
   586.30         52.9721
   586.44         52.7795
   586.58         52.4781
   586.72         52.0900
   586.86         51.6482
   587.00         51.1908
   587.14         50.7587
   587.28         50.3875
   587.42         50.0938
   587.56         49.8668
   587.70         49.6757
   587.84         49.4913
   587.98         49.2945
   588.12         49.0651
   588.26         48.7818
   588.40         48.4351
   588.54         48.0345
   588.68         47.6040
   588.82         47.1833
   588.96         46.8308
   589.10         46.6110
   589.24         46.5725
   589.38         46.7331
   589.52         47.0798
   589.66         47.5770
   589.80         48.1763
   589.94         48.8241
   590.08         49.4667
   590.22         50.0604
   590.36         50.5803
   590.50         51.0169
   590.64         51.3574
   590.78         51.5828
   590.92         51.6871
   591.06         51.6854
   591.20         51.6009
   591.34         51.4524
   591.48         51.2577
   591.62         51.0391
   591.76         50.8183
   591.90         50.6086
   592.04         50.4175
   592.18         50.2538
   592.32         50.1290
   592.46         50.0536
   592.60         50.0311
   592.74         50.0520
   592.88         50.0965
   593.02         50.1406
   593.16         50.1656
   593.30         50.1647
   593.44         50.1383
   593.58         50.0883
   593.72         50.0171
   593.86         49.9295
   594.00         49.8337
   594.14         49.7396
   594.28         49.6571
   594.42         49.5919
   594.56         49.5474
   594.70         49.5291
   594.84         49.5427
   594.98         49.5871
   595.12         49.6525
   595.26         49.7211
   595.40         49.7724
   595.54         49.7884
   595.68         49.7570
   595.82         49.6756
   595.96         49.5480
   596.10         49.3779
   596.24         49.1717
   596.38         48.9457
   596.52         48.7199
   596.66         48.5069
   596.80         48.3116
   596.94         48.1404
   597.08         48.0063
   597.22         47.9206
   597.36         47.8860
   597.50         47.8990
   597.64         47.9513
   597.78         48.0294
   597.92         48.1170
   598.06         48.1989
   598.20         48.2653
   598.34         48.3116
   598.48         48.3376
   598.62         48.3429
   598.76         48.3250
   598.90         48.2830
   599.04         48.2189
   599.18         48.1350
   599.32         48.0366
   599.46         47.9345
   599.60         47.8407
   599.74         47.7609
   599.88         47.6900
   600.02         47.6214
   600.16         47.5547
   600.30         47.4903
   600.44         47.4281
   600.58         47.3714
   600.72         47.3269
   600.86         47.2990
   601.00         47.2874
   601.14         47.2877
   601.28         47.2925
   601.42         47.2945
   601.56         47.2897
   601.70         47.2773
   601.84         47.2577
   601.98         47.2272
   602.12         47.1760
   602.26         47.0988
   602.40         47.0009
   602.54         46.8906
   602.68         46.7774
   602.82         46.6729
   602.96         46.5858
   603.10         46.5229
   603.24         46.4904
   603.38         46.4904
   603.52         46.5213
   603.66         46.5797
   603.80         46.6595
   603.94         46.7536
   604.08         46.8528
   604.22         46.9452
   604.36         47.0169
   604.50         47.0541
   604.64         47.0489
   604.78         47.0026
   604.92         46.9256
   605.06         46.8290
   605.20         46.7208
   605.34         46.6109
   605.48         46.5103
   605.62         46.4264
   605.76         46.3648
   605.90         46.3311
   606.04         46.3285
   606.18         46.3560
   606.32         46.4059
   606.46         46.4667
   606.60         46.5265
   606.74         46.5743
   606.88         46.5999
   607.02         46.5974
   607.16         46.5667
   607.30         46.5135
   607.44         46.4458
   607.58         46.3705
   607.72         46.2925
   607.86         46.2165
   608.00         46.1489
   608.14         46.0942
   608.28         46.0522
   608.42         46.0187
   608.56         45.9842
   608.70         45.9355
   608.84         45.8614
   608.98         45.7586
   609.12         45.6314
   609.26         45.4893
   609.40         45.3449
   609.54         45.2129
   609.68         45.1068
   609.82         45.0347
   609.96         44.9980
   610.10         44.9922
   610.24         45.0111
   610.38         45.0506
   610.52         45.1080
   610.66         45.1768
   610.80         45.2470
   610.94         45.3094
   611.08         45.3575
   611.22         45.3874
   611.36         45.3998
   611.50         45.4003
   611.64         45.3940
   611.78         45.3804
   611.92         45.3562
   612.06         45.3188
   612.20         45.2637
   612.34         45.1828
   612.48         45.0726
   612.62         44.9398
   612.76         44.7971
   612.90         44.6574
   613.04         44.5288
   613.18         44.4109
   613.32         44.3000
   613.46         44.1958
   613.60         44.1012
   613.74         44.0189
   613.88         43.9519
   614.02         43.9036
   614.16         43.8754
   614.30         43.8637
   614.44         43.8638
   614.58         43.8744
   614.72         43.8960
   614.86         43.9274
   615.00         43.9667
   615.14         44.0124
   615.28         44.0584
   615.42         44.0913
   615.56         44.0968
   615.70         44.0635
   615.84         43.9856
   615.98         43.8648
   616.12         43.7087
   616.26         43.5280
   616.40         43.3316
   616.54         43.1263
   616.68         42.9191
   616.82         42.7181
   616.96         42.5328
   617.10         42.3750
   617.24         42.2563
   617.38         42.1828
   617.52         42.1529
   617.66         42.1604
   617.80         42.1969
   617.94         42.2565
   618.08         42.3354
   618.22         42.4289
   618.36         42.5307
   618.50         42.6349
   618.64         42.7382
   618.78         42.8368
   618.92         42.9235
   619.06         42.9895
   619.20         43.0285
   619.34         43.0397
   619.48         43.0270
   619.62         42.9965
   619.76         42.9559
   619.90         42.9129
   620.04         42.8742
   620.18         42.8439
   620.32         42.8241
   620.46         42.8180
   620.60         42.8284
   620.74         42.8528
   620.88         42.8839
   621.02         42.9156
   621.16         42.9432
   621.30         42.9593
   621.44         42.9551
   621.58         42.9275
   621.72         42.8790
   621.86         42.8147
   622.00         42.7404
   622.14         42.6628
   622.28         42.5888
   622.42         42.5240
   622.56         42.4713
   622.70         42.4300
   622.84         42.3967
   622.98         42.3701
   623.12         42.3516
   623.26         42.3424
   623.40         42.3440
   623.54         42.3588
   623.68         42.3866
   623.82         42.4219
   623.96         42.4565
   624.10         42.4846
   624.24         42.5009
   624.38         42.5004
   624.52         42.4826
   624.66         42.4492
   624.80         42.3992
   624.94         42.3296
   625.08         42.2349
   625.22         42.1118
   625.36         41.9630
   625.50         41.7949
   625.64         41.6129
   625.78         41.4192
   625.92         41.2145
   626.06         41.0016
   626.20         40.7843
   626.34         40.5649
   626.48         40.3447
   626.62         40.1238
   626.76         39.8995
   626.90         39.6662
   627.04         39.4161
   627.18         39.1382
   627.32         38.8211
   627.46         38.4636
   627.60         38.0812
   627.74         37.7036
   627.88         37.3667
   628.02         37.1027
   628.16         36.9336
   628.30         36.8709
   628.44         36.9181
   628.58         37.0740
   628.72         37.3282
   628.86         37.6558
   629.00         38.0218
   629.14         38.3905
   629.28         38.7312
   629.42         39.0209
   629.56         39.2460
   629.70         39.4029
   629.84         39.4984
   629.98         39.5493
   630.12         39.5776
   630.26         39.6015
   630.40         39.6300
   630.54         39.6639
   630.68         39.6987
   630.82         39.7282
   630.96         39.7465
   631.10         39.7493
   631.24         39.7345
   631.38         39.7005
   631.52         39.6497
   631.66         39.5928
   631.80         39.5449
   631.94         39.5166
   632.08         39.5108
   632.22         39.5257
   632.36         39.5565
   632.50         39.5971
   632.64         39.6415
   632.78         39.6840
   632.92         39.7182
   633.06         39.7381
   633.20         39.7404
   633.34         39.7237
   633.48         39.6846
   633.62         39.6191
   633.76         39.5276
   633.90         39.4170
   634.04         39.2989
   634.18         39.1846
   634.32         39.0828
   634.46         38.9968
   634.60         38.9262
   634.74         38.8712
   634.88         38.8342
   635.02         38.8183
   635.16         38.8255
   635.30         38.8546
   635.44         38.9014
   635.58         38.9601
   635.72         39.0229
   635.86         39.0812
   636.00         39.1254
   636.14         39.1473
   636.28         39.1439
   636.42         39.1186
   636.56         39.0779
   636.70         39.0266
   636.84         38.9672
   636.98         38.9018
   637.12         38.8333
   637.26         38.7666
   637.40         38.7076
   637.54         38.6617
   637.68         38.6334
   637.82         38.6264
   637.96         38.6433
   638.10         38.6819
   638.24         38.7344
   638.38         38.7903
   638.52         38.8401
   638.66         38.8774
   638.80         38.8994
   638.94         38.9049
   639.08         38.8946
   639.22         38.8712
   639.36         38.8357
   639.50         38.7895
   639.64         38.7378
   639.78         38.6865
   639.92         38.6377
   640.06         38.5912
   640.20         38.5453
   640.34         38.4976
   640.48         38.4468
   640.62         38.3904
   640.76         38.3236
   640.90         38.2469
   641.04         38.1683
   641.18         38.0962
   641.32         38.0341
   641.46         37.9809
   641.60         37.9338
   641.74         37.8893
   641.88         37.8441
   642.02         37.7958
   642.16         37.7453
   642.30         37.6945
   642.44         37.6417
   642.58         37.5847
   642.72         37.5262
   642.86         37.4732
   643.00         37.4331
   643.14         37.4111
   643.28         37.4095
   643.42         37.4303
   643.56         37.4747
   643.70         37.5386
   643.84         37.6125
   643.98         37.6864
   644.12         37.7527
   644.26         37.8043
   644.40         37.8341
   644.54         37.8391
   644.68         37.8210
   644.82         37.7822
   644.96         37.7248
   645.10         37.6528
   645.24         37.5741
   645.38         37.4980
   645.52         37.4317
   645.66         37.3787
   645.80         37.3394
   645.94         37.3128
   646.08         37.2960
   646.22         37.2839
   646.36         37.2720
   646.50         37.2574
   646.64         37.2364
   646.78         37.2048
   646.92         37.1623
   647.06         37.1139
   647.20         37.0652
   647.34         37.0176
   647.48         36.9694
   647.62         36.9213
   647.76         36.8764
   647.90         36.8343
   648.04         36.7910
   648.18         36.7424
   648.32         36.6861
   648.46         36.6237
   648.60         36.5615
   648.74         36.5061
   648.88         36.4640
   649.02         36.4403
   649.16         36.4358
   649.30         36.4466
   649.44         36.4688
   649.58         36.5003
   649.72         36.5389
   649.86         36.5800
   650.00         36.6192
   650.14         36.6541
   650.28         36.6833
   650.42         36.7042
   650.56         36.7137
   650.70         36.7110
   650.84         36.6976
   650.98         36.6774
   651.12         36.6536
   651.26         36.6267
   651.40         36.5933
   651.54         36.5514
   651.68         36.4987
   651.82         36.4322
   651.96         36.3501
   652.10         36.2525
   652.24         36.1423
   652.38         36.0229
   652.52         35.8971
   652.66         35.7710
   652.80         35.6534
   652.94         35.5532
   653.08         35.4778
   653.22         35.4318
   653.36         35.4153
   653.50         35.4251
   653.64         35.4564
   653.78         35.5021
   653.92         35.5531
   654.06         35.5992
   654.20         35.6285
   654.34         35.6265
   654.48         35.5791
   654.62         35.4737
   654.76         35.2997
   654.90         35.0467
   655.04         34.7029
   655.18         34.2631
   655.32         33.7377
   655.46         33.1530
   655.60         32.5463
   655.74         31.9595
   655.88         31.4350
   656.02         31.0119
   656.16         30.7248
   656.30         30.5978
   656.44         30.6360
   656.58         30.8226
   656.72         31.1243
   656.86         31.4978
   657.00         31.8957
   657.14         32.2746
   657.28         32.5998
   657.42         32.8494
   657.56         33.0196
   657.70         33.1257
   657.84         33.1956
   657.98         33.2599
   658.12         33.3429
   658.26         33.4566
   658.40         33.6019
   658.54         33.7737
   658.68         33.9630
   658.82         34.1593
   658.96         34.3513
   659.10         34.5277
   659.24         34.6796
   659.38         34.8035
   659.52         34.8999
   659.66         34.9720
   659.80         35.0247
   659.94         35.0615
   660.08         35.0818
   660.22         35.0815
   660.36         35.0569
   660.50         35.0067
   660.64         34.9352
   660.78         34.8511
   660.92         34.7654
   661.06         34.6900
   661.20         34.6355
   661.34         34.6094
   661.48         34.6145
   661.62         34.6479
   661.76         34.7009
   661.90         34.7614
   662.04         34.8189
   662.18         34.8659
   662.32         34.8969
   662.46         34.9082
   662.60         34.8987
   662.74         34.8707
   662.88         34.8321
   663.02         34.7928
   663.16         34.7585
   663.30         34.7288
   663.44         34.6996
   663.58         34.6665
   663.72         34.6272
   663.86         34.5823
   664.00         34.5346
   664.14         34.4875
   664.28         34.4442
   664.42         34.4072
   664.56         34.3783
   664.70         34.3600
   664.84         34.3539
   664.98         34.3603
   665.12         34.3776
   665.26         34.4039
   665.40         34.4376
   665.54         34.4785
   665.68         34.5245
   665.82         34.5704
   665.96         34.6088
   666.10         34.6336
   666.24         34.6387
   666.38         34.6124
   666.52         34.5361
   666.66         34.3904
   666.80         34.1654
   666.94         33.8694
   667.08         33.5255
   667.22         33.1645
   667.36         32.8188
   667.50         32.5191
   667.64         32.2930
   667.78         32.1626
   667.92         32.1412
   668.06         32.2287
   668.20         32.4104
   668.34         32.6613
   668.48         32.9523
   668.62         33.2529
   668.76         33.5312
   668.90         33.7590
   669.04         33.9196
   669.18         34.0099
   669.32         34.0388
   669.46         34.0262
   669.60         33.9958
   669.74         33.9674
   669.88         33.9538
   670.02         33.9625
   670.16         33.9940
   670.30         34.0429
   670.44         34.1002
   670.58         34.1551
   670.72         34.1963
   670.86         34.2152
   671.00         34.2073
   671.14         34.1702
   671.28         34.1023
   671.42         34.0081
   671.56         33.8993
   671.70         33.7863
   671.84         33.6758
   671.98         33.5741
   672.12         33.4892
   672.26         33.4267
   672.40         33.3876
   672.54         33.3681
   672.68         33.3623
   672.82         33.3633
   672.96         33.3646
   673.10         33.3613
   673.24         33.3509
   673.38         33.3331
   673.52         33.3094
   673.66         33.2818
   673.80         33.2531
   673.94         33.2270
   674.08         33.2057
   674.22         33.1878
   674.36         33.1711
   674.50         33.1557
   674.64         33.1442
   674.78         33.1391
   674.92         33.1426
   675.06         33.1559
   675.20         33.1779
   675.34         33.2055
   675.48         33.2339
   675.62         33.2580
   675.76         33.2761
   675.90         33.2897
   676.04         33.3001
   676.18         33.3059
   676.32         33.3040
   676.46         33.2930
   676.60         33.2724
   676.74         33.2414
   676.88         33.1981
   677.02         33.1398
   677.16         33.0652
   677.30         32.9761
   677.44         32.8779
   677.58         32.7770
   677.72         32.6797
   677.86         32.5905
   678.00         32.5141
   678.14         32.4539
   678.28         32.4117
   678.42         32.3898
   678.56         32.3918
   678.70         32.4181
   678.84         32.4638
   678.98         32.5222
   679.12         32.5885
   679.26         32.6578
   679.40         32.7248
   679.54         32.7831
   679.68         32.8281
   679.82         32.8582
   679.96         32.8741
   680.10         32.8761
   680.24         32.8647
   680.38         32.8414
   680.52         32.8067
   680.66         32.7596
   680.80         32.7002
   680.94         32.6309
   681.08         32.5569
   681.22         32.4838
   681.36         32.4141
   681.50         32.3491
   681.64         32.2906
   681.78         32.2400
   681.92         32.1979
   682.06         32.1667
   682.20         32.1487
   682.34         32.1454
   682.48         32.1573
   682.62         32.1823
   682.76         32.2170
   682.90         32.2560
   683.04         32.2905
   683.18         32.3099
   683.32         32.3060
   683.46         32.2738
   683.60         32.2136
   683.74         32.1314
   683.88         32.0344
   684.02         31.9306
   684.16         31.8299
   684.30         31.7428
   684.44         31.6790
   684.58         31.6444
   684.72         31.6381
   684.86         31.6525
   685.00         31.6753
   685.14         31.6939
   685.28         31.6981
   685.42         31.6772
   685.56         31.6118
   685.70         31.4709
   685.84         31.2203
   685.98         30.8366
   686.12         30.3125
   686.26         29.6581
   686.40         28.8979
   686.54         28.0683
   686.68         27.2189
   686.82         26.4070
   686.96         25.6909
   687.10         25.1231
   687.24         24.7441
   687.38         24.5783
   687.52         24.6290
   687.66         24.8744
   687.80         25.2704
   687.94         25.7571
   688.08         26.2662
   688.22         26.7320
   688.36         27.1053
   688.50         27.3635
   688.64         27.5089
   688.78         27.5590
   688.92         27.5394
   689.06         27.4800
   689.20         27.4115
   689.34         27.3595
   689.48         27.3425
   689.62         27.3704
   689.76         27.4433
   689.90         27.5529
   690.04         27.6872
   690.18         27.8322
   690.32         27.9758
   690.46         28.1135
   690.60         28.2471
   690.74         28.3805
   690.88         28.5170
   691.02         28.6587
   691.16         28.8046
   691.30         28.9502
   691.44         29.0905
   691.58         29.2213
   691.72         29.3399
   691.86         29.4451
   692.00         29.5370
   692.14         29.6198
   692.28         29.6989
   692.42         29.7784
   692.56         29.8621
   692.70         29.9523
   692.84         30.0468
   692.98         30.1407
   693.12         30.2283
   693.26         30.3033
   693.40         30.3629
   693.54         30.4062
   693.68         30.4321
   693.82         30.4406
   693.96         30.4360
   694.10         30.4265
   694.24         30.4187
   694.38         30.4164
   694.52         30.4222
   694.66         30.4382
   694.80         30.4627
   694.94         30.4902
   695.08         30.5148
   695.22         30.5325
   695.36         30.5423
   695.50         30.5455
   695.64         30.5449
   695.78         30.5431
   695.92         30.5444
   696.06         30.5517
   696.20         30.5640
   696.34         30.5787
   696.48         30.5944
   696.62         30.6112
   696.76         30.6290
   696.90         30.6470
   697.04         30.6642
   697.18         30.6820
   697.32         30.7025
   697.46         30.7261
   697.60         30.7521
   697.74         30.7791
   697.88         30.8061
   698.02         30.8323
   698.16         30.8548
   698.30         30.8702
   698.44         30.8783
   698.58         30.8808
   698.72         30.8767
   698.86         30.8624
   699.00         30.8356
   699.14         30.7964
   699.28         30.7473
   699.42         30.6913
   699.56         30.6299
   699.70         30.5647
   699.84         30.4981
   699.98         30.4311
   700.12         30.3616
   700.26         30.2892
   700.40         30.2173
   700.54         30.1504
   700.68         30.0916
   700.82         30.0414
   700.96         29.9991
   701.10         29.9649
   701.24         29.9391
   701.38         29.9229
   701.52         29.9169
   701.66         29.9189
   701.80         29.9259
   701.94         29.9363
   702.08         29.9471
   702.22         29.9542
   702.36         29.9541
   702.50         29.9451
   702.64         29.9267
   702.78         29.8992
   702.92         29.8649
   703.06         29.8279
   703.20         29.7933
   703.34         29.7674
   703.48         29.7542
   703.62         29.7565
   703.76         29.7771
   703.90         29.8162
   704.04         29.8699
   704.18         29.9317
   704.32         29.9941
   704.46         30.0522
   704.60         30.1042
   704.74         30.1482
   704.88         30.1800
   705.02         30.1920
   705.16         30.1725
   705.30         30.1089
   705.44         29.9941
   705.58         29.8306
   705.72         29.6289
   705.86         29.4031
   706.00         29.1677
   706.14         28.9384
   706.28         28.7343
   706.42         28.5750
   706.56         28.4749
   706.70         28.4406
   706.84         28.4715
   706.98         28.5610
   707.12         28.7005
   707.26         28.8781
   707.40         29.0756
   707.54         29.2722
   707.68         29.4492
   707.82         29.5947
   707.96         29.7082
   708.10         29.7964
   708.24         29.8641
   708.38         29.9113
   708.52         29.9373
   708.66         29.9436
   708.80         29.9336
   708.94         29.9125
   709.08         29.8857
   709.22         29.8562
   709.36         29.8264
   709.50         29.8006
   709.64         29.7843
   709.78         29.7821
   709.92         29.7995
   710.06         29.8380
   710.20         29.8923
   710.34         29.9535
   710.48         30.0149
   710.62         30.0727
   710.76         30.1220
   710.90         30.1582
   711.04         30.1813
   711.18         30.1948
   711.32         30.2007
   711.46         30.2002
   711.60         30.1953
   711.74         30.1864
   711.88         30.1712
   712.02         30.1482
   712.16         30.1189
   712.30         30.0855
   712.44         30.0499
   712.58         30.0107
   712.72         29.9634
   712.86         29.9058
   713.00         29.8414
   713.14         29.7749
   713.28         29.7089
   713.42         29.6435
   713.56         29.5775
   713.70         29.5082
   713.84         29.4327
   713.98         29.3519
   714.12         29.2713
   714.26         29.1979
   714.40         29.1388
   714.54         29.0993
   714.68         29.0820
   714.82         29.0856
   714.96         29.1054
   715.10         29.1333
   715.24         29.1588
   715.38         29.1727
   715.52         29.1675
   715.66         29.1354
   715.80         29.0699
   715.94         28.9673
   716.08         28.8253
   716.22         28.6464
   716.36         28.4379
   716.50         28.2097
   716.64         27.9735
   716.78         27.7426
   716.92         27.5268
   717.06         27.3299
   717.20         27.1494
   717.34         26.9781
   717.48         26.8103
   717.62         26.6479
   717.76         26.4967
   717.90         26.3599
   718.04         26.2370
   718.18         26.1276
   718.32         26.0333
   718.46         25.9588
   718.60         25.9096
   718.74         25.8870
   718.88         25.8869
   719.02         25.9022
   719.16         25.9269
   719.30         25.9566
   719.44         25.9856
   719.58         26.0077
   719.72         26.0210
   719.86         26.0315
   720.00         26.0530
   720.14         26.1037
   720.28         26.1967
   720.42         26.3328
   720.56         26.5058
   720.70         26.7099
   720.84         26.9384
   720.98         27.1808
   721.12         27.4228
   721.26         27.6475
   721.40         27.8398
   721.54         27.9913
   721.68         28.1020
   721.82         28.1734
   721.96         28.2042
   722.10         28.1931
   722.24         28.1401
   722.38         28.0475
   722.52         27.9216
   722.66         27.7705
   722.80         27.5989
   722.94         27.4113
   723.08         27.2175
   723.22         27.0319
   723.36         26.8659
   723.50         26.7278
   723.64         26.6275
   723.78         26.5732
   723.92         26.5672
   724.06         26.6040
   724.20         26.6709
   724.34         26.7518
   724.48         26.8306
   724.62         26.8951
   724.76         26.9402
   724.90         26.9678
   725.04         26.9833
   725.18         26.9883
   725.32         26.9791
   725.46         26.9537
   725.60         26.9159
   725.74         26.8704
   725.88         26.8177
   726.02         26.7542
   726.16         26.6769
   726.30         26.5845
   726.44         26.4739
   726.58         26.3399
   726.72         26.1818
   726.86         26.0063
   727.00         25.8246
   727.14         25.6521
   727.28         25.5062
   727.42         25.4005
   727.56         25.3406
   727.70         25.3240
   727.84         25.3418
   727.98         25.3846
   728.12         25.4461
   728.26         25.5192
   728.40         25.5937
   728.54         25.6604
   728.68         25.7132
   728.82         25.7487
   728.96         25.7635
   729.10         25.7533
   729.24         25.7185
   729.38         25.6668
   729.52         25.6093
   729.66         25.5576
   729.80         25.5225
   729.94         25.5090
   730.08         25.5151
   730.22         25.5381
   730.36         25.5765
   730.50         25.6285
   730.64         25.6930
   730.78         25.7710
   730.92         25.8640
   731.06         25.9685
   731.20         26.0761
   731.34         26.1782
   731.48         26.2681
   731.62         26.3415
   731.76         26.3969
   731.90         26.4359
   732.04         26.4609
   732.18         26.4720
   732.32         26.4679
   732.46         26.4468
   732.60         26.4075
   732.74         26.3526
   732.88         26.2892
   733.02         26.2269
   733.16         26.1747
   733.30         26.1422
   733.44         26.1390
   733.58         26.1687
   733.72         26.2254
   733.86         26.2995
   734.00         26.3826
   734.14         26.4662
   734.28         26.5390
   734.42         26.5897
   734.56         26.6105
   734.70         26.5964
   734.84         26.5479
   734.98         26.4707
   735.12         26.3739
   735.26         26.2679
   735.40         26.1637
   735.54         26.0714
   735.68         25.9991
   735.82         25.9519
   735.96         25.9302
   736.10         25.9289
   736.24         25.9374
   736.38         25.9453
   736.52         25.9453
   736.66         25.9324
   736.80         25.9027
   736.94         25.8541
   737.08         25.7874
   737.22         25.7057
   737.36         25.6131
   737.50         25.5136
   737.64         25.4097
   737.78         25.3024
   737.92         25.1931
   738.06         25.0841
   738.20         24.9805
   738.34         24.8885
   738.48         24.8108
   738.62         24.7449
   738.76         24.6875
   738.90         24.6385
   739.04         24.6004
   739.18         24.5761
   739.32         24.5677
   739.46         24.5757
   739.60         24.5989
   739.74         24.6333
   739.88         24.6732
   740.02         24.7131
   740.16         24.7483
   740.30         24.7747
   740.44         24.7892
   740.58         24.7916
   740.72         24.7830
   740.86         24.7637
   741.00         24.7324
   741.14         24.6874
   741.28         24.6286
   741.42         24.5589
   741.56         24.4834
   741.70         24.4080
   741.84         24.3377
   741.98         24.2753
   742.12         24.2215
   742.26         24.1771
   742.40         24.1418
   742.54         24.1156
   742.68         24.0992
   742.82         24.0920
   742.96         24.0920
   743.10         24.0992
   743.24         24.1156
   743.38         24.1418
   743.52         24.1771
   743.66         24.2215
   743.80         24.2753
   743.94         24.3377
   744.08         24.4080
   744.22         24.4834
