# File HD16691
# Wavelength [nm]    Normalized Amplitude
   349.70         640.5402
   349.84         640.7869
   349.98         641.6014
   350.12         642.9473
   350.26         644.7227
   350.40         646.7945
   350.54         648.9862
   350.68         651.0429
   350.82         652.6905
   350.96         653.7340
   351.10         654.0883
   351.24         653.7340
   351.38         652.6905
   351.52         651.0429
   351.66         648.9862
   351.80         646.7945
   351.94         644.7227
   352.08         642.9473
   352.22         641.6014
   352.36         640.7869
   352.50         640.5402
   352.64         640.7980
   352.78         641.4009
   352.92         642.1172
   353.06         642.6961
   353.20         642.9329
   353.34         642.6955
   353.48         641.9561
   353.62         640.8020
   353.76         639.3930
   353.90         637.9029
   354.04         636.5168
   354.18         635.4088
   354.32         634.6917
   354.46         634.3926
   354.60         634.4499
   354.74         634.7663
   354.88         635.2581
   355.02         635.8043
   355.16         636.1997
   355.30         636.2047
   355.44         635.6276
   355.58         634.3966
   355.72         632.5799
   355.86         630.2972
   356.00         627.6528
   356.14         624.7833
   356.28         621.8860
   356.42         619.1526
   356.56         616.7124
   356.70         614.6488
   356.84         613.0060
   356.98         611.7869
   357.12         610.9617
   357.26         610.4502
   357.40         610.1282
   357.54         609.8327
   357.68         609.4054
   357.82         608.7949
   357.96         608.0880
   358.10         607.4408
   358.24         607.0065
   358.38         606.8893
   358.52         607.1269
   358.66         607.7482
   358.80         608.8016
   358.94         610.2557
   359.08         611.9285
   359.22         613.5479
   359.36         614.8555
   359.50         615.6535
   359.64         615.8112
   359.78         615.2660
   359.92         614.0120
   360.06         612.1078
   360.20         609.6826
   360.34         606.9241
   360.48         604.0438
   360.62         601.1886
   360.76         598.4111
   360.90         595.7460
   361.04         593.2466
   361.18         590.9696
   361.32         589.0077
   361.46         587.4948
   361.60         586.5264
   361.74         586.1244
   361.88         586.2675
   362.02         586.9097
   362.16         587.9595
   362.30         589.2569
   362.44         590.6301
   362.58         591.9520
   362.72         593.1463
   362.86         594.1528
   363.00         594.8903
   363.14         595.2854
   363.28         595.2925
   363.42         594.9030
   363.56         594.1567
   363.70         593.1050
   363.84         591.7893
   363.98         590.2477
   364.12         588.4960
   364.26         586.5253
   364.40         584.3709
   364.54         582.1405
   364.68         579.9878
   364.82         578.0833
   364.96         576.5850
   365.10         575.6056
   365.24         575.1593
   365.38         575.1530
   365.52         575.4310
   365.66         575.8288
   365.80         576.2240
   365.94         576.5269
   366.08         576.6575
   366.22         576.5684
   366.36         576.2660
   366.50         575.7966
   366.64         575.2273
   366.78         574.6396
   366.92         574.1067
   367.06         573.6604
   367.20         573.2717
   367.34         572.8736
   367.48         572.3951
   367.62         571.7626
   367.76         570.9148
   367.90         569.8534
   368.04         568.6524
   368.18         567.3888
   368.32         566.0705
   368.46         564.6419
   368.60         563.0488
   368.74         561.3031
   368.88         559.5142
   369.02         557.8461
   369.16         556.4277
   369.30         555.3282
   369.44         554.5690
   369.58         554.1153
   369.72         553.8884
   369.86         553.7902
   370.00         553.7272
   370.14         553.6414
   370.28         553.5095
   370.42         553.3129
   370.56         553.0278
   370.70         552.6123
   370.84         552.0071
   370.98         551.1666
   371.12         550.1015
   371.26         548.9126
   371.40         547.7502
   371.54         546.7229
   371.68         545.8497
   371.82         545.0991
   371.96         544.4176
   372.10         543.6953
   372.24         542.7800
   372.38         541.5714
   372.52         540.0726
   372.66         538.3588
   372.80         536.5451
   372.94         534.7819
   373.08         533.2121
   373.22         531.8985
   373.36         530.7836
   373.50         529.7441
   373.64         528.6563
   373.78         527.4184
   373.92         525.9745
   374.06         524.3347
   374.20         522.6009
   374.34         520.9515
   374.48         519.5596
   374.62         518.5202
   374.76         517.8818
   374.90         517.7422
   375.04         518.2566
   375.18         519.5218
   375.32         521.4764
   375.46         523.9138
   375.60         526.5201
   375.74         528.8766
   375.88         530.5273
   376.02         531.1349
   376.16         530.6043
   376.30         529.1025
   376.44         526.9798
   376.58         524.6663
   376.72         522.5873
   376.86         521.0577
   377.00         520.1975
   377.14         519.9727
   377.28         520.2812
   377.42         520.9860
   377.56         521.9361
   377.70         522.9662
   377.84         523.8792
   377.98         524.4658
   378.12         524.5340
   378.26         523.9166
   378.40         522.4758
   378.54         520.1263
   378.68         516.8879
   378.82         512.9148
   378.96         508.4564
   379.10         503.7884
   379.24         499.1833
   379.38         494.9172
   379.52         491.2659
   379.66         488.4979
   379.80         486.8265
   379.94         486.3251
   380.08         486.9093
   380.22         488.3766
   380.36         490.4349
   380.50         492.7384
   380.64         494.9422
   380.78         496.7409
   380.92         497.9007
   381.06         498.2959
   381.20         497.9217
   381.34         496.8871
   381.48         495.3738
   381.62         493.5677
   381.76         491.6099
   381.90         489.5701
   382.04         487.4187
   382.18         485.0362
   382.32         482.2493
   382.46         478.8861
   382.60         474.8959
   382.74         470.4360
   382.88         465.8308
   383.02         461.4921
   383.16         457.8457
   383.30         455.2366
   383.44         453.8798
   383.58         453.8761
   383.72         455.2145
   383.86         457.7636
   384.00         461.3015
   384.14         465.5274
   384.28         470.0653
   384.42         474.4938
   384.56         478.3921
   384.70         481.4122
   384.84         483.3716
   384.98         484.3049
   385.12         484.4337
   385.26         484.0830
   385.40         483.5622
   385.54         483.0794
   385.68         482.7557
   385.82         482.6477
   385.96         482.7316
   386.10         482.9421
   386.24         483.2170
   386.38         483.4949
   386.52         483.7097
   386.66         483.7837
   386.80         483.6250
   386.94         483.1603
   387.08         482.3601
   387.22         481.2234
   387.36         479.7347
   387.50         477.8261
   387.64         475.3773
   387.78         472.2614
   387.92         468.4370
   388.06         464.0130
   388.20         459.2483
   388.34         454.5043
   388.48         450.1777
   388.62         446.6513
   388.76         444.2585
   388.90         443.2355
   389.04         443.6757
   389.18         445.5094
   389.32         448.5262
   389.46         452.4224
   389.60         456.8381
   389.74         461.3683
   389.88         465.5783
   390.02         469.0698
   390.16         471.5674
   390.30         472.9778
   390.44         473.3939
   390.58         473.0197
   390.72         472.0547
   390.86         470.6246
   391.00         468.7897
   391.14         466.5878
   391.28         464.0452
   391.42         461.1813
   391.56         458.0312
   391.70         454.6335
   391.84         450.9950
   391.98         447.0686
   392.12         442.7670
   392.26         438.0353
   392.40         432.9357
   392.54         427.6782
   392.68         422.5814
   392.82         418.0023
   392.96         414.2768
   393.10         411.6658
   393.24         410.3402
   393.38         410.3882
   393.52         411.8183
   393.66         414.5600
   393.80         418.4401
   393.94         423.1807
   394.08         428.4145
   394.22         433.7081
   394.36         438.6213
   394.50         442.7714
   394.64         445.9002
   394.78         447.9174
   394.92         448.8860
   395.06         448.9353
   395.20         448.1350
   395.34         446.4378
   395.48         443.6855
   395.62         439.6649
   395.76         434.2315
   395.90         427.4368
   396.04         419.5648
   396.18         411.0892
   396.32         402.5952
   396.46         394.6960
   396.60         387.9692
   396.74         382.9016
   396.88         379.8636
   397.02         379.0835
   397.16         380.6019
   397.30         384.2553
   397.44         389.6757
   397.58         396.3344
   397.72         403.6237
   397.86         410.9257
   398.00         417.6755
   398.14         423.4310
   398.28         427.9574
   398.42         431.2624
   398.56         433.5286
   398.70         434.9953
   398.84         435.8642
   398.98         436.2745
   399.12         436.3272
   399.26         436.1066
   399.40         435.6857
   399.54         435.1247
   399.68         434.4803
   399.82         433.8102
   399.96         433.1513
   400.10         432.5148
   400.24         431.9009
   400.38         431.2978
   400.52         430.6769
   400.66         430.0044
   400.80         429.2639
   400.94         428.4496
   401.08         427.5380
   401.22         426.4821
   401.36         425.2242
   401.50         423.7180
   401.64         421.9623
   401.78         420.0104
   401.92         417.9479
   402.06         415.8782
   402.20         413.9146
   402.34         412.1660
   402.48         410.7178
   402.62         409.6285
   402.76         408.9437
   402.90         408.6865
   403.04         408.8422
   403.18         409.3541
   403.32         410.1181
   403.46         410.9912
   403.60         411.8259
   403.74         412.5219
   403.88         413.0441
   404.02         413.4040
   404.16         413.6479
   404.30         413.8407
   404.44         414.0407
   404.58         414.2940
   404.72         414.6277
   404.86         415.0414
   405.00         415.5095
   405.14         415.9943
   405.28         416.4530
   405.42         416.8184
   405.56         417.0053
   405.70         416.9528
   405.84         416.6312
   405.98         416.0309
   406.12         415.1645
   406.26         414.0665
   406.40         412.7771
   406.54         411.3199
   406.68         409.7169
   406.82         408.0229
   406.96         406.3198
   407.10         404.6946
   407.24         403.2267
   407.38         401.9833
   407.52         401.0262
   407.66         400.4203
   407.80         400.2209
   407.94         400.4311
   408.08         400.9715
   408.22         401.6951
   408.36         402.3971
   408.50         402.8045
   408.64         402.6049
   408.78         401.4949
   408.92         399.2396
   409.06         395.7517
   409.20         391.1443
   409.34         385.7360
   409.48         379.9941
   409.62         374.4319
   409.76         369.5231
   409.90         365.6661
   410.04         363.1708
   410.18         362.2316
   410.32         362.8903
   410.46         365.0159
   410.60         368.3184
   410.74         372.3914
   410.88         376.7684
   411.02         380.9799
   411.16         384.6151
   411.30         387.3754
   411.44         389.1055
   411.58         389.8165
   411.72         389.6644
   411.86         388.8659
   412.00         387.6236
   412.14         386.0942
   412.28         384.3967
   412.42         382.6445
   412.56         380.9652
   412.70         379.4869
   412.84         378.2907
   412.98         377.3843
   413.12         376.7185
   413.26         376.2199
   413.40         375.8234
   413.54         375.4871
   413.68         375.1826
   413.82         374.8846
   413.96         374.5630
   414.10         374.1880
   414.24         373.7405
   414.38         373.1978
   414.52         372.5343
   414.66         371.7410
   414.80         370.8309
   414.94         369.8465
   415.08         368.8513
   415.22         367.9031
   415.36         367.0383
   415.50         366.2671
   415.64         365.5844
   415.78         364.9800
   415.92         364.4343
   416.06         363.9105
   416.20         363.3568
   416.34         362.7217
   416.48         361.9652
   416.62         361.0561
   416.76         359.9843
   416.90         358.7729
   417.04         357.4650
   417.18         356.1204
   417.32         354.8098
   417.46         353.5929
   417.60         352.5143
   417.74         351.6043
   417.88         350.8714
   418.02         350.3003
   418.16         349.8615
   418.30         349.5161
   418.44         349.2034
   418.58         348.8353
   418.72         348.3083
   418.86         347.5278
   419.00         346.4344
   419.14         345.0274
   419.28         343.3757
   419.42         341.6118
   419.56         339.8952
   419.70         338.3717
   419.84         337.1566
   419.98         336.3334
   420.12         335.9525
   420.26         336.0322
   420.40         336.5490
   420.54         337.4222
   420.68         338.5260
   420.82         339.7116
   420.96         340.8156
   421.10         341.6770
   421.24         342.1760
   421.38         342.2533
   421.52         341.9096
   421.66         341.2042
   421.80         340.2364
   421.94         339.1125
   422.08         337.9279
   422.22         336.7582
   422.36         335.6575
   422.50         334.6698
   422.64         333.8402
   422.78         333.2034
   422.92         332.7638
   423.06         332.4952
   423.20         332.3491
   423.34         332.2625
   423.48         332.1694
   423.62         332.0102
   423.76         331.7426
   423.90         331.3463
   424.04         330.8150
   424.18         330.1592
   424.32         329.4163
   424.46         328.6424
   424.60         327.8928
   424.74         327.2012
   424.88         326.5711
   425.02         325.9981
   425.16         325.4981
   425.30         325.0995
   425.44         324.8177
   425.58         324.6529
   425.72         324.5984
   425.86         324.6272
   426.00         324.6875
   426.14         324.7266
   426.28         324.7098
   426.42         324.6270
   426.56         324.4879
   426.70         324.3092
   426.84         324.1136
   426.98         323.9299
   427.12         323.7903
   427.26         323.7228
   427.40         323.7393
   427.54         323.8414
   427.68         324.0228
   427.82         324.2545
   427.96         324.4794
   428.10         324.6245
   428.24         324.6283
   428.38         324.4473
   428.52         324.0499
   428.66         323.4291
   428.80         322.6036
   428.94         321.5969
   429.08         320.4329
   429.22         319.1398
   429.36         317.7507
   429.50         316.3000
   429.64         314.8209
   429.78         313.3477
   429.92         311.9133
   430.06         310.5476
   430.20         309.2879
   430.34         308.1903
   430.48         307.3304
   430.62         306.7842
   430.76         306.6053
   430.90         306.8150
   431.04         307.3889
   431.18         308.2487
   431.32         309.2778
   431.46         310.3462
   431.60         311.3494
   431.74         312.2305
   431.88         312.9572
   432.02         313.4984
   432.16         313.8154
   432.30         313.8545
   432.44         313.5475
   432.58         312.8056
   432.72         311.5198
   432.86         309.5888
   433.00         306.9710
   433.14         303.7251
   433.28         300.0101
   433.42         296.0657
   433.56         292.1862
   433.70         288.6800
   433.84         285.8259
   433.98         283.8415
   434.12         282.8772
   434.26         283.0112
   434.40         284.2069
   434.54         286.2937
   434.68         289.0056
   434.82         292.0233
   434.96         295.0224
   435.10         297.7251
   435.24         299.9360
   435.38         301.5719
   435.52         302.6656
   435.66         303.3292
   435.80         303.6980
   435.94         303.8737
   436.08         303.9086
   436.22         303.8205
   436.36         303.6064
   436.50         303.2513
   436.64         302.7472
   436.78         302.1172
   436.92         301.3956
   437.06         300.5867
   437.20         299.6776
   437.34         298.6623
   437.48         297.5528
   437.62         296.3842
   437.76         295.2038
   437.90         294.0514
   438.04         292.9414
   438.18         291.8633
   438.32         290.8126
   438.46         289.8123
   438.60         288.9010
   438.74         288.1145
   438.88         287.4771
   439.02         286.9992
   439.16         286.6732
   439.30         286.4745
   439.44         286.3680
   439.58         286.3067
   439.72         286.2449
   439.86         286.1543
   440.00         286.0302
   440.14         285.8822
   440.28         285.7033
   440.42         285.4646
   440.56         285.1352
   440.70         284.7005
   440.84         284.1706
   440.98         283.5641
   441.12         282.8876
   441.26         282.1301
   441.40         281.2669
   441.54         280.2726
   441.68         279.1331
   441.82         277.8500
   441.96         276.4435
   442.10         274.9608
   442.24         273.4719
   442.38         272.0494
   442.52         270.7650
   442.66         269.6973
   442.80         268.9131
   442.94         268.4504
   443.08         268.3217
   443.22         268.5141
   443.36         268.9966
   443.50         269.7257
   443.64         270.6462
   443.78         271.6998
   443.92         272.8224
   444.06         273.9377
   444.20         274.9697
   444.34         275.8596
   444.48         276.5638
   444.62         277.0542
   444.76         277.3294
   444.90         277.4071
   445.04         277.3094
   445.18         277.0608
   445.32         276.6794
   445.46         276.1755
   445.60         275.5644
   445.74         274.8718
   445.88         274.1377
   446.02         273.4117
   446.16         272.7337
   446.30         272.1307
   446.44         271.6294
   446.58         271.2530
   446.72         271.0048
   446.86         270.8736
   447.00         270.8451
   447.14         270.9024
   447.28         271.0319
   447.42         271.2213
   447.56         271.4476
   447.70         271.6772
   447.84         271.8750
   447.98         272.0071
   448.12         272.0461
   448.26         271.9744
   448.40         271.7828
   448.54         271.4718
   448.68         271.0526
   448.82         270.5517
   448.96         270.0088
   449.10         269.4661
   449.24         268.9604
   449.38         268.5305
   449.52         268.2215
   449.66         268.0724
   449.80         268.1075
   449.94         268.3343
   450.08         268.7288
   450.22         269.2362
   450.36         269.7892
   450.50         270.3196
   450.64         270.7661
   450.78         271.0957
   450.92         271.3059
   451.06         271.3958
   451.20         271.3579
   451.34         271.1878
   451.48         270.8860
   451.62         270.4551
   451.76         269.8975
   451.90         269.2158
   452.04         268.4171
   452.18         267.5144
   452.32         266.5319
   452.46         265.4952
   452.60         264.4083
   452.74         263.2455
   452.88         261.9737
   453.02         260.5858
   453.16         259.1146
   453.30         257.6242
   453.44         256.1876
   453.58         254.8604
   453.72         253.6763
   453.86         252.6757
   454.00         251.9123
   454.14         251.4326
   454.28         251.2588
   454.42         251.3834
   454.56         251.7774
   454.70         252.3943
   454.84         253.1593
   454.98         253.9733
   455.12         254.7320
   455.26         255.3426
   455.40         255.7347
   455.54         255.8809
   455.68         255.8075
   455.82         255.5591
   455.96         255.1615
   456.10         254.6295
   456.24         253.9951
   456.38         253.3187
   456.52         252.6733
   456.66         252.1161
   456.80         251.6775
   456.94         251.3737
   457.08         251.2149
   457.22         251.1969
   457.36         251.2912
   457.50         251.4439
   457.64         251.5926
   457.78         251.6827
   457.92         251.6662
   458.06         251.5081
   458.20         251.1989
   458.34         250.7454
   458.48         250.1627
   458.62         249.4843
   458.76         248.7600
   458.90         248.0312
   459.04         247.3107
   459.18         246.5928
   459.32         245.8817
   459.46         245.2047
   459.60         244.6057
   459.74         244.1166
   459.88         243.7458
   460.02         243.4997
   460.16         243.3848
   460.30         243.4011
   460.44         243.5360
   460.58         243.7591
   460.72         244.0374
   460.86         244.3474
   461.00         244.6815
   461.14         245.0448
   461.28         245.4412
   461.42         245.8621
   461.56         246.2922
   461.70         246.7354
   461.84         247.2357
   461.98         247.8666
   462.12         248.6970
   462.26         249.7573
   462.40         251.0422
   462.54         252.5464
   462.68         254.2800
   462.82         256.2434
   462.96         258.3991
   463.10         260.6616
   463.24         262.9019
   463.38         264.9631
   463.52         266.6823
   463.66         267.9085
   463.80         268.5165
   463.94         268.4273
   464.08         267.6275
   464.22         266.1704
   464.36         264.1707
   464.50         261.7914
   464.64         259.2184
   464.78         256.6262
   464.92         254.1574
   465.06         251.9305
   465.20         250.0260
   465.34         248.4680
   465.48         247.2202
   465.62         246.1939
   465.76         245.2783
   465.90         244.3839
   466.04         243.4676
   466.18         242.5300
   466.32         241.6002
   466.46         240.7281
   466.60         239.9803
   466.74         239.4388
   466.88         239.2163
   467.02         239.4691
   467.16         240.3813
   467.30         242.1285
   467.44         244.8370
   467.58         248.5409
   467.72         253.1554
   467.86         258.4685
   468.00         264.1552
   468.14         269.8118
   468.28         275.0098
   468.42         279.3462
   468.56         282.4812
   468.70         284.1622
   468.84         284.2467
   468.98         282.7266
   469.12         279.7288
   469.26         275.5007
   469.40         270.3946
   469.54         264.8279
   469.68         259.2099
   469.82         253.8856
   469.96         249.1026
   470.10         244.9820
   470.24         241.5256
   470.38         238.6719
   470.52         236.3422
   470.66         234.4609
   470.80         232.9702
   470.94         231.8232
   471.08         230.9636
   471.22         230.3214
   471.36         229.8206
   471.50         229.3948
   471.64         229.0002
   471.78         228.6099
   471.92         228.2098
   472.06         227.7976
   472.20         227.3725
   472.34         226.9297
   472.48         226.4606
   472.62         225.9544
   472.76         225.4075
   472.90         224.8403
   473.04         224.2896
   473.18         223.7892
   473.32         223.3643
   473.46         223.0278
   473.60         222.7789
   473.74         222.6055
   473.88         222.4810
   474.02         222.3691
   474.16         222.2382
   474.30         222.0649
   474.44         221.8235
   474.58         221.4899
   474.72         221.0519
   474.86         220.5133
   475.00         219.8835
   475.14         219.1721
   475.28         218.3937
   475.42         217.5702
   475.56         216.7322
   475.70         215.9216
   475.84         215.1875
   475.98         214.5704
   476.12         214.0973
   476.26         213.7817
   476.40         213.6195
   476.54         213.6016
   476.68         213.7200
   476.82         213.9654
   476.96         214.3237
   477.10         214.7638
   477.24         215.2358
   477.38         215.6810
   477.52         216.0447
   477.66         216.2817
   477.80         216.3670
   477.94         216.3040
   478.08         216.1186
   478.22         215.8510
   478.36         215.5428
   478.50         215.2262
   478.64         214.9258
   478.78         214.6624
   478.92         214.4464
   479.06         214.2758
   479.20         214.1419
   479.34         214.0253
   479.48         213.8948
   479.62         213.7144
   479.76         213.4521
   479.90         213.0924
   480.04         212.6427
   480.18         212.1241
   480.32         211.5629
   480.46         210.9889
   480.60         210.4353
   480.74         209.9284
   480.88         209.4818
   481.02         209.1076
   481.16         208.8190
   481.30         208.6207
   481.44         208.4956
   481.58         208.4008
   481.72         208.2885
   481.86         208.1274
   482.00         207.9370
   482.14         207.7708
   482.28         207.6777
   482.42         207.7050
   482.56         207.8936
   482.70         208.2705
   482.84         208.8321
   482.98         209.5379
   483.12         210.3251
   483.26         211.1266
   483.40         211.8808
   483.54         212.5440
   483.68         213.0893
   483.82         213.4900
   483.96         213.7148
   484.10         213.7439
   484.24         213.5892
   484.38         213.2795
   484.52         212.8291
   484.66         212.2261
   484.80         211.4047
   484.94         210.2900
   485.08         208.8737
   485.22         207.2189
   485.36         205.4439
   485.50         203.6925
   485.64         202.1143
   485.78         200.8553
   485.92         200.0319
   486.06         199.7065
   486.20         199.8780
   486.34         200.4790
   486.48         201.3901
   486.62         202.4632
   486.76         203.5533
   486.90         204.5328
   487.04         205.2807
   487.18         205.7112
   487.32         205.7997
   487.46         205.5786
   487.60         205.1277
   487.74         204.5443
   487.88         203.9175
   488.02         203.3178
   488.16         202.7844
   488.30         202.3294
   488.44         201.9588
   488.58         201.6733
   488.72         201.4612
   488.86         201.3025
   489.00         201.1873
   489.14         201.1271
   489.28         201.1422
   489.42         201.2479
   489.56         201.4355
   489.70         201.6701
   489.84         201.9243
   489.98         202.1966
   490.12         202.4937
   490.26         202.8245
   490.40         203.2055
   490.54         203.6513
   490.68         204.1467
   490.82         204.6362
   490.96         205.0547
   491.10         205.3533
   491.24         205.5018
   491.38         205.4849
   491.52         205.3095
   491.66         205.0127
   491.80         204.6450
   491.94         204.2354
   492.08         203.7917
   492.22         203.3374
   492.36         202.9183
   492.50         202.5765
   492.64         202.3253
   492.78         202.1467
   492.92         202.0179
   493.06         201.9197
   493.20         201.8217
   493.34         201.6832
   493.48         201.4805
   493.62         201.2254
   493.76         200.9492
   493.90         200.6811
   494.04         200.4416
   494.18         200.2565
   494.32         200.1491
   494.46         200.1090
   494.60         200.0974
   494.74         200.0861
   494.88         200.0725
   495.02         200.0434
   495.16         199.9539
   495.30         199.7584
   495.44         199.4352
   495.58         198.9721
   495.72         198.3596
   495.86         197.6008
   496.00         196.7252
   496.14         195.7967
   496.28         194.8888
   496.42         194.0508
   496.56         193.3065
   496.70         192.6591
   496.84         192.0958
   496.98         191.5879
   497.12         191.1067
   497.26         190.6520
   497.40         190.2477
   497.54         189.9108
   497.68         189.6373
   497.82         189.4190
   497.96         189.2646
   498.10         189.1957
   498.24         189.2319
   498.38         189.3869
   498.52         189.6599
   498.66         190.0337
   498.80         190.4833
   498.94         190.9722
   499.08         191.4518
   499.22         191.8823
   499.36         192.2331
   499.50         192.4873
   499.64         192.6523
   499.78         192.7368
   499.92         192.7350
   500.06         192.6184
   500.20         192.3399
   500.34         191.8674
   500.48         191.1984
   500.62         190.3605
   500.76         189.4143
   500.90         188.4345
   501.04         187.4845
   501.18         186.6186
   501.32         185.8846
   501.46         185.3091
   501.60         184.8846
   501.74         184.5772
   501.88         184.3476
   502.02         184.1551
   502.16         183.9625
   502.30         183.7404
   502.44         183.4609
   502.58         183.1136
   502.72         182.7166
   502.86         182.3092
   503.00         181.9422
   503.14         181.6472
   503.28         181.4291
   503.42         181.2808
   503.56         181.1833
   503.70         181.1107
   503.84         181.0446
   503.98         180.9786
   504.12         180.9186
   504.26         180.8888
   504.40         180.9235
   504.54         181.0511
   504.68         181.2841
   504.82         181.6197
   504.96         182.0336
   505.10         182.4697
   505.24         182.8502
   505.38         183.0888
   505.52         183.1059
   505.66         182.8477
   505.80         182.2991
   505.94         181.4985
   506.08         180.5348
   506.22         179.5119
   506.36         178.5189
   506.50         177.6271
   506.64         176.8957
   506.78         176.3675
   506.92         176.0654
   507.06         175.9882
   507.20         176.1021
   507.34         176.3418
   507.48         176.6292
   507.62         176.8908
   507.76         177.0687
   507.90         177.1316
   508.04         177.0760
   508.18         176.9191
   508.32         176.6949
   508.46         176.4415
   508.60         176.1850
   508.74         175.9315
   508.88         175.6734
   509.02         175.4069
   509.16         175.1444
   509.30         174.9086
   509.44         174.7156
   509.58         174.5650
   509.72         174.4411
   509.86         174.3243
   510.00         174.2111
   510.14         174.1167
   510.28         174.0544
   510.42         174.0255
   510.56         174.0256
   510.70         174.0424
   510.84         174.0466
   510.98         174.0037
   511.12         173.8902
   511.26         173.7052
   511.40         173.4711
   511.54         173.2238
   511.68         173.0004
   511.82         172.8225
   511.96         172.6918
   512.10         172.5991
   512.24         172.5339
   512.38         172.4867
   512.52         172.4452
   512.66         172.3880
   512.80         172.2864
   512.94         172.1248
   513.08         171.9103
   513.22         171.6601
   513.36         171.3913
   513.50         171.1304
   513.64         170.9235
   513.78         170.8194
   513.92         170.8379
   514.06         170.9591
   514.20         171.1397
   514.34         171.3283
   514.48         171.4704
   514.62         171.5261
   514.76         171.4845
   514.90         171.3534
   515.04         171.1458
   515.18         170.8743
   515.32         170.5537
   515.46         170.2102
   515.60         169.8767
   515.74         169.5734
   515.88         169.3050
   516.02         169.0743
   516.16         168.8838
   516.30         168.7281
   516.44         168.5940
   516.58         168.4712
   516.72         168.3615
   516.86         168.2690
   517.00         168.1879
   517.14         168.1089
   517.28         168.0335
   517.42         167.9663
   517.56         167.8973
   517.70         167.8033
   517.84         167.6620
   517.98         167.4638
   518.12         167.2162
   518.26         166.9436
   518.40         166.6654
   518.54         166.3829
   518.68         166.0880
   518.82         165.7638
   518.96         165.3902
   519.10         164.9544
   519.24         164.4502
   519.38         163.8740
   519.52         163.2341
   519.66         162.5555
   519.80         161.8738
   519.94         161.2291
   520.08         160.6572
   520.22         160.1805
   520.36         159.8060
   520.50         159.5296
   520.64         159.3428
   520.78         159.2328
   520.92         159.1763
   521.06         159.1303
   521.20         159.0514
   521.34         158.9218
   521.48         158.7420
   521.62         158.5251
   521.76         158.2908
   521.90         158.0616
   522.04         157.8608
   522.18         157.7075
   522.32         157.6035
   522.46         157.5396
   522.60         157.5100
   522.74         157.5083
   522.88         157.5207
   523.02         157.5199
   523.16         157.4796
   523.30         157.3899
   523.44         157.2486
   523.58         157.0585
   523.72         156.8297
   523.86         156.5808
   524.00         156.3404
   524.14         156.1415
   524.28         156.0128
   524.42         155.9686
   524.56         156.0052
   524.70         156.1073
   524.84         156.2576
   524.98         156.4385
   525.12         156.6313
   525.26         156.8171
   525.40         156.9768
   525.54         157.0944
   525.68         157.1622
   525.82         157.1835
   525.96         157.1612
   526.10         157.0888
   526.24         156.9573
   526.38         156.7610
   526.52         156.5004
   526.66         156.1792
   526.80         155.8037
   526.94         155.3862
   527.08         154.9404
   527.22         154.4834
   527.36         154.0363
   527.50         153.6148
   527.64         153.2278
   527.78         152.8819
   527.92         152.5867
   528.06         152.3579
   528.20         152.2152
   528.34         152.1823
   528.48         152.2775
   528.62         152.4926
   528.76         152.7906
   528.90         153.1236
   529.04         153.4466
   529.18         153.7189
   529.32         153.8997
   529.46         153.9533
   529.60         153.8546
   529.74         153.5928
   529.88         153.1816
   530.02         152.6658
   530.16         152.1139
   530.30         151.5947
   530.44         151.1552
   530.58         150.8298
   530.72         150.6444
   530.86         150.6076
   531.00         150.7035
   531.14         150.8834
   531.28         151.0793
   531.42         151.2379
   531.56         151.3348
   531.70         151.3598
   531.84         151.3003
   531.98         151.1479
   532.12         150.9112
   532.26         150.6154
   532.40         150.2890
   532.54         149.9494
   532.68         149.6002
   532.82         149.2360
   532.96         148.8470
   533.10         148.4326
   533.24         148.0110
   533.38         147.6046
   533.52         147.2290
   533.66         146.8927
   533.80         146.5999
   533.94         146.3539
   534.08         146.1510
   534.22         145.9845
   534.36         145.8482
   534.50         145.7319
   534.64         145.6258
   534.78         145.5188
   534.92         145.3923
   535.06         145.2283
   535.20         145.0158
   535.34         144.7580
   535.48         144.4732
   535.62         144.1837
   535.76         143.9122
   535.90         143.6840
   536.04         143.5230
   536.18         143.4446
   536.32         143.4492
   536.46         143.5276
   536.60         143.6645
   536.74         143.8337
   536.88         144.0094
   537.02         144.1665
   537.16         144.2790
   537.30         144.3311
   537.44         144.3112
   537.58         144.2133
   537.72         144.0446
   537.86         143.8180
   538.00         143.5468
   538.14         143.2450
   538.28         142.9266
   538.42         142.6010
   538.56         142.2689
   538.70         141.9276
   538.84         141.5787
   538.98         141.2280
   539.12         140.8870
   539.26         140.5615
   539.40         140.2441
   539.54         139.9230
   539.68         139.5734
   539.82         139.1574
   539.96         138.6327
   540.10         137.9661
   540.24         137.1646
   540.38         136.2764
   540.52         135.3686
   540.66         134.5154
   540.80         133.7922
   540.94         133.2630
   541.08         132.9692
   541.22         132.9274
   541.36         133.1348
   541.50         133.5663
   541.64         134.1681
   541.78         134.8678
   541.92         135.5780
   542.06         136.2103
   542.20         136.6938
   542.34         136.9829
   542.48         137.0671
   542.62         136.9717
   542.76         136.7481
   542.90         136.4565
   543.04         136.1427
   543.18         135.8311
   543.32         135.5318
   543.46         135.2496
   543.60         134.9879
   543.74         134.7455
   543.88         134.5152
   544.02         134.2941
   544.16         134.0833
   544.30         133.8853
   544.44         133.7062
   544.58         133.5554
   544.72         133.4444
   544.86         133.3810
   545.00         133.3583
   545.14         133.3549
   545.28         133.3421
   545.42         133.2930
   545.56         133.1883
   545.70         133.0184
   545.84         132.7776
   545.98         132.4628
   546.12         132.0810
   546.26         131.6598
   546.40         131.2408
   546.54         130.8687
   546.68         130.5815
   546.82         130.3963
   546.96         130.3141
   547.10         130.3308
   547.24         130.4355
   547.38         130.6060
   547.52         130.8077
   547.66         130.9936
   547.80         131.1173
   547.94         131.1511
   548.08         131.0886
   548.22         130.9410
   548.36         130.7310
   548.50         130.4880
   548.64         130.2480
   548.78         130.0487
   548.92         129.9164
   549.06         129.8486
   549.20         129.8183
   549.34         129.7929
   549.48         129.7471
   549.62         129.6693
   549.76         129.5536
   549.90         129.3884
   550.04         129.1578
   550.18         128.8527
   550.32         128.4810
   550.46         128.0753
   550.60         127.6856
   550.74         127.3574
   550.88         127.1138
   551.02         126.9550
   551.16         126.8649
   551.30         126.8163
   551.44         126.7797
   551.58         126.7329
   551.72         126.6628
   551.86         126.5687
   552.00         126.4564
   552.14         126.3277
   552.28         126.1785
   552.42         126.0031
   552.56         125.7986
   552.70         125.5662
   552.84         125.3099
   552.98         125.0373
   553.12         124.7565
   553.26         124.4725
   553.40         124.1860
   553.54         123.9001
   553.68         123.6272
   553.82         123.3842
   553.96         123.1836
   554.10         123.0350
   554.24         122.9403
   554.38         122.8888
   554.52         122.8607
   554.66         122.8257
   554.80         122.7512
   554.94         122.6189
   555.08         122.4284
   555.22         122.1894
   555.36         121.9147
   555.50         121.6209
   555.64         121.3264
   555.78         121.0429
   555.92         120.7778
   556.06         120.5390
   556.20         120.3347
   556.34         120.1707
   556.48         120.0456
   556.62         119.9507
   556.76         119.8759
   556.90         119.8056
   557.04         119.7301
   557.18         119.6478
   557.32         119.5546
   557.46         119.4503
   557.60         119.3439
   557.74         119.2519
   557.88         119.1922
   558.02         119.1785
   558.16         119.2115
   558.30         119.2774
   558.44         119.3553
   558.58         119.4236
   558.72         119.4609
   558.86         119.4532
   559.00         119.4008
   559.14         119.3136
   559.28         119.2102
   559.42         119.1153
   559.56         119.0500
   559.70         119.0306
   559.84         119.0570
   559.98         119.1079
   560.12         119.1583
   560.26         119.1861
   560.40         119.1690
   560.54         119.0815
   560.68         118.8979
   560.82         118.6010
   560.96         118.1922
   561.10         117.6933
   561.24         117.1417
   561.38         116.5851
   561.52         116.0735
   561.66         115.6455
   561.80         115.3190
   561.94         115.0941
   562.08         114.9516
   562.22         114.8583
   562.36         114.7841
   562.50         114.7070
   562.64         114.6157
   562.78         114.5095
   562.92         114.3930
   563.06         114.2733
   563.20         114.1565
   563.34         114.0458
   563.48         113.9474
   563.62         113.8736
   563.76         113.8404
   563.90         113.8590
   564.04         113.9311
   564.18         114.0488
   564.32         114.1982
   564.46         114.3627
   564.60         114.5245
   564.74         114.6626
   564.88         114.7596
   565.02         114.8104
   565.16         114.8188
   565.30         114.7850
   565.44         114.6990
   565.58         114.5466
   565.72         114.3138
   565.86         113.9928
   566.00         113.5887
   566.14         113.1222
   566.28         112.6221
   566.42         112.1182
   566.56         111.6352
   566.70         111.1941
   566.84         110.8130
   566.98         110.5024
   567.12         110.2644
   567.26         110.0928
   567.40         109.9733
   567.54         109.8927
   567.68         109.8428
   567.82         109.8140
   567.96         109.7882
   568.10         109.7467
   568.24         109.6793
   568.38         109.5895
   568.52         109.4955
   568.66         109.4196
   568.80         109.3741
   568.94         109.3578
   569.08         109.3591
   569.22         109.3590
   569.36         109.3373
   569.50         109.2773
   569.64         109.1677
   569.78         109.0043
   569.92         108.7929
   570.06         108.5492
   570.20         108.2951
   570.34         108.0547
   570.48         107.8446
   570.62         107.6703
   570.76         107.5358
   570.90         107.4500
   571.04         107.4180
   571.18         107.4362
   571.32         107.4897
   571.46         107.5544
   571.60         107.6100
   571.74         107.6445
   571.88         107.6499
   572.02         107.6213
   572.16         107.5598
   572.30         107.4768
   572.44         107.3904
   572.58         107.3162
   572.72         107.2627
   572.86         107.2310
   573.00         107.2131
   573.14         107.1964
   573.28         107.1761
   573.42         107.1554
   573.56         107.1325
   573.70         107.0955
   573.84         107.0353
   573.98         106.9509
   574.12         106.8442
   574.26         106.7179
   574.40         106.5706
   574.54         106.3982
   574.68         106.1999
   574.82         105.9778
   574.96         105.7363
   575.10         105.4774
   575.24         105.2015
   575.38         104.9126
   575.52         104.6160
   575.66         104.3204
   575.80         104.0391
   575.94         103.7870
   576.08         103.5708
   576.22         103.3865
   576.36         103.2238
   576.50         103.0663
   576.64         102.8879
   576.78         102.6540
   576.92         102.3292
   577.06         101.8932
   577.20         101.3502
   577.34         100.7237
   577.48         100.0550
   577.62         99.3963
   577.76         98.8035
   577.90         98.3248
   578.04         97.9887
   578.18         97.8043
   578.32         97.7649
   578.46         97.8488
   578.60         98.0236
   578.74         98.2524
   578.88         98.4970
   579.02         98.7208
   579.16         98.8927
   579.30         98.9952
   579.44         99.0298
   579.58         99.0176
   579.72         98.9903
   579.86         98.9729
   580.00         98.9753
   580.14         98.9988
   580.28         99.0405
   580.42         99.0972
   580.56         99.1624
   580.70         99.2272
   580.84         99.2871
   580.98         99.3397
   581.12         99.3841
   581.26         99.4186
   581.40         99.4421
   581.54         99.4531
   581.68         99.4452
   581.82         99.4115
   581.96         99.3481
   582.10         99.2500
   582.24         99.1069
   582.38         98.9102
   582.52         98.6600
   582.66         98.3696
   582.80         98.0593
   582.94         97.7455
   583.08         97.4389
   583.22         97.1456
   583.36         96.8696
   583.50         96.6185
   583.64         96.4047
   583.78         96.2387
   583.92         96.1213
   584.06         96.0473
   584.20         96.0060
   584.34         95.9829
   584.48         95.9644
   584.62         95.9387
   584.76         95.8977
   584.90         95.8446
   585.04         95.7921
   585.18         95.7534
   585.32         95.7363
   585.46         95.7394
   585.60         95.7544
   585.74         95.7785
   585.88         95.8142
   586.02         95.8613
   586.16         95.9126
   586.30         95.9486
   586.44         95.9397
   586.58         95.8695
   586.72         95.7482
   586.86         95.6046
   587.00         95.4745
   587.14         95.3877
   587.28         95.3624
   587.42         95.4070
   587.56         95.5054
   587.70         95.5941
   587.84         95.5779
   587.98         95.3773
   588.12         94.9467
   588.26         94.2528
   588.40         93.2708
   588.54         92.0072
   588.68         90.5220
   588.82         88.9254
   588.96         87.3582
   589.10         85.9734
   589.24         84.9148
   589.38         84.2902
   589.52         84.1513
   589.66         84.4918
   589.80         85.2553
   589.94         86.3448
   590.08         87.6314
   590.22         88.9673
   590.36         90.2176
   590.50         91.2978
   590.64         92.1696
   590.78         92.8073
   590.92         93.1929
   591.06         93.3427
   591.20         93.3158
   591.34         93.1860
   591.48         93.0087
   591.62         92.8158
   591.76         92.6244
   591.90         92.4436
   592.04         92.2786
   592.18         92.1316
   592.32         92.0012
   592.46         91.8821
   592.60         91.7650
   592.74         91.6400
   592.88         91.5044
   593.02         91.3623
   593.16         91.2188
   593.30         91.0755
   593.44         90.9309
   593.58         90.7803
   593.72         90.6166
   593.86         90.4404
   594.00         90.2607
   594.14         90.0822
   594.28         89.9035
   594.42         89.7209
   594.56         89.5306
   594.70         89.3318
   594.84         89.1297
   594.98         88.9364
   595.12         88.7656
   595.26         88.6287
   595.40         88.5353
   595.54         88.4951
   595.68         88.5149
   595.82         88.5920
   595.96         88.7127
   596.10         88.8528
   596.24         88.9842
   596.38         89.0836
   596.52         89.1337
   596.66         89.1202
   596.80         89.0296
   596.94         88.8514
   597.08         88.5825
   597.22         88.2348
   597.36         87.8362
   597.50         87.4227
   597.64         87.0274
   597.78         86.6726
   597.92         86.3702
   598.06         86.1281
   598.20         85.9546
   598.34         85.8538
   598.48         85.8187
   598.62         85.8338
   598.76         85.8793
   598.90         85.9347
   599.04         85.9844
   599.18         86.0201
   599.32         86.0356
   599.46         86.0249
   599.60         85.9842
   599.74         85.9183
   599.88         85.8380
   600.02         85.7535
   600.16         85.6698
   600.30         85.5874
   600.44         85.5063
   600.58         85.4286
   600.72         85.3589
   600.86         85.2980
   601.00         85.2386
   601.14         85.1731
   601.28         85.0987
   601.42         85.0106
   601.56         84.9035
   601.70         84.7830
   601.84         84.6576
   601.98         84.5300
   602.12         84.4008
   602.26         84.2691
   602.40         84.1352
   602.54         84.0028
   602.68         83.8757
   602.82         83.7535
   602.96         83.6336
   603.10         83.5144
   603.24         83.3975
   603.38         83.2883
   603.52         83.1955
   603.66         83.1323
   603.80         83.1063
   603.94         83.1118
   604.08         83.1364
   604.22         83.1722
   604.36         83.2141
   604.50         83.2484
   604.64         83.2548
   604.78         83.2157
   604.92         83.1216
   605.06         82.9751
   605.20         82.7861
   605.34         82.5623
   605.48         82.3099
   605.62         82.0379
   605.76         81.7570
   605.90         81.4785
   606.04         81.2127
   606.18         80.9655
   606.32         80.7378
   606.46         80.5282
   606.60         80.3389
   606.74         80.1751
   606.88         80.0382
   607.02         79.9244
   607.16         79.8302
   607.30         79.7581
   607.44         79.7133
   607.58         79.6984
   607.72         79.7100
   607.86         79.7382
   608.00         79.7699
   608.14         79.7956
   608.28         79.8122
   608.42         79.8205
   608.56         79.8226
   608.70         79.8212
   608.84         79.8173
   608.98         79.8121
   609.12         79.8076
   609.26         79.8034
   609.40         79.7961
   609.54         79.7822
   609.68         79.7619
   609.82         79.7389
   609.96         79.7134
   610.10         79.6812
   610.24         79.6386
   610.38         79.5820
   610.52         79.5065
   610.66         79.4076
   610.80         79.2867
   610.94         79.1507
   611.08         79.0081
   611.22         78.8649
   611.36         78.7229
   611.50         78.5798
   611.64         78.4333
   611.78         78.2847
   611.92         78.1405
   612.06         78.0138
   612.20         77.9183
   612.34         77.8615
   612.48         77.8413
   612.62         77.8508
   612.76         77.8850
   612.90         77.9373
   613.04         77.9959
   613.18         78.0476
   613.32         78.0824
   613.46         78.0946
   613.60         78.0793
   613.74         78.0299
   613.88         77.9414
   614.02         77.8159
   614.16         77.6643
   614.30         77.5037
   614.44         77.3515
   614.58         77.2204
   614.72         77.1166
   614.86         77.0407
   615.00         76.9888
   615.14         76.9527
   615.28         76.9200
   615.42         76.8750
   615.56         76.7995
   615.70         76.6770
   615.84         76.4984
   615.98         76.2649
   616.12         75.9845
   616.26         75.6684
   616.40         75.3290
   616.54         74.9831
   616.68         74.6511
   616.82         74.3523
   616.96         74.1024
   617.10         73.9131
   617.24         73.7893
   617.38         73.7279
   617.52         73.7174
   617.66         73.7411
   617.80         73.7832
   617.94         73.8353
   618.08         73.8953
   618.22         73.9629
   618.36         74.0356
   618.50         74.1102
   618.64         74.1839
   618.78         74.2530
   618.92         74.3119
   619.06         74.3553
   619.20         74.3783
   619.34         74.3774
   619.48         74.3518
   619.62         74.3041
   619.76         74.2408
   619.90         74.1719
   620.04         74.1093
   620.18         74.0696
   620.32         74.0726
   620.46         74.1346
   620.60         74.2646
   620.74         74.4628
   620.88         74.7198
   621.02         75.0193
   621.16         75.3415
   621.30         75.6629
   621.44         75.9526
   621.58         76.1760
   621.72         76.3046
   621.86         76.3220
   622.00         76.2233
   622.14         76.0135
   622.28         75.7044
   622.42         75.3161
   622.56         74.8760
   622.70         74.4156
   622.84         73.9701
   622.98         73.5714
   623.12         73.2411
   623.26         72.9919
   623.40         72.8292
   623.54         72.7508
   623.68         72.7477
   623.82         72.8050
   623.96         72.9037
   624.10         73.0234
   624.24         73.1463
   624.38         73.2602
   624.52         73.3582
   624.66         73.4374
   624.80         73.4974
   624.94         73.5360
   625.08         73.5383
   625.22         73.4768
   625.36         73.3278
   625.50         73.0854
   625.64         72.7604
   625.78         72.3740
   625.92         71.9517
   626.06         71.5210
   626.20         71.1095
   626.34         70.7387
   626.48         70.4173
   626.62         70.1390
   626.76         69.8885
   626.90         69.6480
   627.04         69.3953
   627.18         69.1024
   627.32         68.7402
   627.46         68.2922
   627.60         67.7645
   627.74         67.1879
   627.88         66.6194
   628.02         66.1348
   628.16         65.8047
   628.30         65.6737
   628.44         65.7577
   628.58         66.0479
   628.72         66.5152
   628.86         67.1131
   629.00         67.7816
   629.14         68.4566
   629.28         69.0823
   629.42         69.6178
   629.56         70.0313
   629.70         70.2996
   629.84         70.4186
   629.98         70.4068
   630.12         70.2953
   630.26         70.1159
   630.40         69.8949
   630.54         69.6542
   630.68         69.4132
   630.82         69.1889
   630.96         68.9958
   631.10         68.8454
   631.24         68.7450
   631.38         68.6984
   631.52         68.7082
   631.66         68.7724
   631.80         68.8822
   631.94         69.0255
   632.08         69.1893
   632.22         69.3607
   632.36         69.5306
   632.50         69.6925
   632.64         69.8378
   632.78         69.9565
   632.92         70.0441
   633.06         70.1044
   633.20         70.1438
   633.34         70.1644
   633.48         70.1660
   633.62         70.1492
   633.76         70.1162
   633.90         70.0703
   634.04         70.0145
   634.18         69.9493
   634.32         69.8744
   634.46         69.7920
   634.60         69.7068
   634.74         69.6223
   634.88         69.5384
   635.02         69.4535
   635.16         69.3655
   635.30         69.2720
   635.44         69.1719
   635.58         69.0680
   635.72         68.9641
   635.86         68.8601
   636.00         68.7536
   636.14         68.6452
   636.28         68.5370
   636.42         68.4259
   636.56         68.3019
   636.70         68.1501
   636.84         67.9544
   636.98         67.7029
   637.12         67.3953
   637.26         67.0452
   637.40         66.6753
   637.54         66.3131
   637.68         65.9885
   637.82         65.7303
   637.96         65.5626
   638.10         65.5018
   638.24         65.5543
   638.38         65.7121
   638.52         65.9547
   638.66         66.2543
   638.80         66.5773
   638.94         66.8865
   639.08         67.1457
   639.22         67.3238
   639.36         67.3995
   639.50         67.3677
   639.64         67.2416
   639.78         67.0479
   639.92         66.8176
   640.06         66.5785
   640.20         66.3532
   640.34         66.1585
   640.48         66.0070
   640.62         65.9078
   640.76         65.8650
   640.90         65.8758
   641.04         65.9320
   641.18         66.0222
   641.32         66.1329
   641.46         66.2478
   641.60         66.3524
   641.74         66.4378
   641.88         66.4990
   642.02         66.5354
   642.16         66.5511
   642.30         66.5527
   642.44         66.5487
   642.58         66.5485
   642.72         66.5572
   642.86         66.5737
   643.00         66.5943
   643.14         66.6147
   643.28         66.6281
   643.42         66.6250
   643.56         66.5958
   643.70         66.5342
   643.84         66.4392
   643.98         66.3156
   644.12         66.1720
   644.26         66.0205
   644.40         65.8733
   644.54         65.7397
   644.68         65.6246
   644.82         65.5306
   644.96         65.4598
   645.10         65.4120
   645.24         65.3805
   645.38         65.3539
   645.52         65.3222
   645.66         65.2808
   645.80         65.2297
   645.94         65.1694
   646.08         65.0979
   646.22         65.0135
   646.36         64.9160
   646.50         64.8073
   646.64         64.6906
   646.78         64.5713
   646.92         64.4559
   647.06         64.3522
   647.20         64.2656
   647.34         64.1986
   647.48         64.1522
   647.62         64.1250
   647.76         64.1113
   647.90         64.1015
   648.04         64.0870
   648.18         64.0622
   648.32         64.0226
   648.46         63.9658
   648.60         63.8947
   648.74         63.8195
   648.88         63.7551
   649.02         63.7171
   649.16         63.7192
   649.30         63.7716
   649.44         63.8771
   649.58         64.0294
   649.72         64.2146
   649.86         64.4132
   650.00         64.6041
   650.14         64.7675
   650.28         64.8861
   650.42         64.9487
   650.56         64.9531
   650.70         64.9059
   650.84         64.8179
   650.98         64.6996
   651.12         64.5588
   651.26         64.3996
   651.40         64.2214
   651.54         64.0236
   651.68         63.8091
   651.82         63.5845
   651.96         63.3592
   652.10         63.1440
   652.24         62.9533
   652.38         62.8043
   652.52         62.7116
   652.66         62.6839
   652.80         62.7258
   652.94         62.8398
   653.08         63.0278
   653.22         63.2894
   653.36         63.6160
   653.50         63.9884
   653.64         64.3821
   653.78         64.7764
   653.92         65.1618
   654.06         65.5400
   654.20         65.9208
   654.34         66.3197
   654.48         66.7548
   654.62         67.2444
   654.76         67.8065
   654.90         68.4547
   655.04         69.1929
   655.18         70.0184
   655.32         70.9297
   655.46         71.9251
   655.60         72.9922
   655.74         74.0984
   655.88         75.1901
   656.02         76.1982
   656.16         77.0522
   656.30         77.6930
   656.44         78.0807
   656.58         78.1942
   656.72         78.0288
   656.86         77.5932
   657.00         76.9093
   657.14         76.0123
   657.28         74.9498
   657.42         73.7773
   657.56         72.5526
   657.70         71.3325
   657.84         70.1699
   657.98         69.1034
   658.12         68.1498
   658.26         67.3058
   658.40         66.5579
   658.54         65.8936
   658.68         65.3058
   658.82         64.7953
   658.96         64.3664
   659.10         64.0209
   659.24         63.7544
   659.38         63.5562
   659.52         63.4133
   659.66         63.3130
   659.80         63.2414
   659.94         63.1793
   660.08         63.1037
   660.22         62.9940
   660.36         62.8411
   660.50         62.6464
   660.64         62.4173
   660.78         62.1664
   660.92         61.9108
   661.06         61.6702
   661.20         61.4627
   661.34         61.3018
   661.48         61.1955
   661.62         61.1422
   661.76         61.1335
   661.90         61.1587
   662.04         61.2053
   662.18         61.2587
   662.32         61.3031
   662.46         61.3245
   662.60         61.3147
   662.74         61.2728
   662.88         61.2064
   663.02         61.1263
   663.16         61.0394
   663.30         60.9469
   663.44         60.8486
   663.58         60.7451
   663.72         60.6379
   663.86         60.5294
   664.00         60.4225
   664.14         60.3196
   664.28         60.2209
   664.42         60.1277
   664.56         60.0427
   664.70         59.9668
   664.84         59.8984
   664.98         59.8351
   665.12         59.7757
   665.26         59.7197
   665.40         59.6667
   665.54         59.6165
   665.68         59.5687
   665.82         59.5221
   665.96         59.4749
   666.10         59.4264
   666.24         59.3782
   666.38         59.3323
   666.52         59.2882
   666.66         59.2412
   666.80         59.1831
   666.94         59.1039
   667.08         58.9942
   667.22         58.8480
   667.36         58.6663
   667.50         58.4586
   667.64         58.2406
   667.78         58.0286
   667.92         57.8381
   668.06         57.6843
   668.20         57.5801
   668.34         57.5328
   668.48         57.5430
   668.62         57.6055
   668.76         57.7098
   668.90         57.8408
   669.04         57.9823
   669.18         58.1177
   669.32         58.2320
   669.46         58.3154
   669.60         58.3640
   669.74         58.3789
   669.88         58.3639
   670.02         58.3245
   670.16         58.2675
   670.30         58.1988
   670.44         58.1252
   670.58         58.0554
   670.72         57.9973
   670.86         57.9553
   671.00         57.9322
   671.14         57.9324
   671.28         57.9615
   671.42         58.0226
   671.56         58.1142
   671.70         58.2285
   671.84         58.3499
   671.98         58.4578
   672.12         58.5334
   672.26         58.5622
   672.40         58.5341
   672.54         58.4448
   672.68         58.2981
   672.82         58.1041
   672.96         57.8759
   673.10         57.6266
   673.24         57.3691
   673.38         57.1153
   673.52         56.8754
   673.66         56.6580
   673.80         56.4682
   673.94         56.3053
   674.08         56.1659
   674.22         56.0478
   674.36         55.9497
   674.50         55.8709
   674.64         55.8115
   674.78         55.7731
   674.92         55.7539
   675.06         55.7486
   675.20         55.7535
   675.34         55.7676
   675.48         55.7902
   675.62         55.8183
   675.76         55.8459
   675.90         55.8660
   676.04         55.8730
   676.18         55.8639
   676.32         55.8378
   676.46         55.7956
   676.60         55.7398
   676.74         55.6742
   676.88         55.6013
   677.02         55.5209
   677.16         55.4316
   677.30         55.3334
   677.44         55.2289
   677.58         55.1228
   677.72         55.0237
   677.86         54.9412
   678.00         54.8814
   678.14         54.8452
   678.28         54.8296
   678.42         54.8300
   678.56         54.8426
   678.70         54.8649
   678.84         54.8930
   678.98         54.9211
   679.12         54.9429
   679.26         54.9544
   679.40         54.9548
   679.54         54.9459
   679.68         54.9319
   679.82         54.9177
   679.96         54.9095
   680.10         54.9134
   680.24         54.9334
   680.38         54.9699
   680.52         55.0183
   680.66         55.0691
   680.80         55.1113
   680.94         55.1358
   681.08         55.1373
   681.22         55.1156
   681.36         55.0721
   681.50         55.0082
   681.64         54.9274
   681.78         54.8368
   681.92         54.7439
   682.06         54.6534
   682.20         54.5689
   682.34         54.4937
   682.48         54.4299
   682.62         54.3778
   682.76         54.3368
   682.90         54.3051
   683.04         54.2784
   683.18         54.2505
   683.32         54.2159
   683.46         54.1722
   683.60         54.1196
   683.74         54.0588
   683.88         53.9907
   684.02         53.9172
   684.16         53.8425
   684.30         53.7718
   684.44         53.7087
   684.58         53.6551
   684.72         53.6123
   684.86         53.5808
   685.00         53.5575
   685.14         53.5341
   685.28         53.4976
   685.42         53.4256
   685.56         53.2777
   685.70         52.9998
   685.84         52.5410
   685.98         51.8691
   686.12         50.9774
   686.26         49.8878
   686.40         48.6485
   686.54         47.3310
   686.68         46.0228
   686.82         44.8181
   686.96         43.8075
   687.10         43.0661
   687.24         42.6403
   687.38         42.5386
   687.52         42.7302
   687.66         43.1511
   687.80         43.7136
   687.94         44.3198
   688.08         44.8747
   688.22         45.3023
   688.36         45.5629
   688.50         45.6558
   688.64         45.6113
   688.78         45.4765
   688.92         45.3047
   689.06         45.1508
   689.20         45.0625
   689.34         45.0723
   689.48         45.1953
   689.62         45.4285
   689.76         45.7507
   689.90         46.1287
   690.04         46.5276
   690.18         46.9185
   690.32         47.2816
   690.46         47.6082
   690.60         47.8978
   690.74         48.1530
   690.88         48.3786
   691.02         48.5790
   691.16         48.7569
   691.30         48.9157
   691.44         49.0601
   691.58         49.1918
   691.72         49.3092
   691.86         49.4066
   692.00         49.4780
   692.14         49.5205
   692.28         49.5339
   692.42         49.5198
   692.56         49.4819
   692.70         49.4249
   692.84         49.3526
   692.98         49.2712
   693.12         49.1874
   693.26         49.1064
   693.40         49.0342
   693.54         48.9784
   693.68         48.9434
   693.82         48.9304
   693.96         48.9409
   694.10         48.9734
   694.24         49.0205
   694.38         49.0720
   694.52         49.1190
   694.66         49.1536
   694.80         49.1694
   694.94         49.1634
   695.08         49.1369
   695.22         49.0958
   695.36         49.0504
   695.50         49.0145
   695.64         49.0037
   695.78         49.0296
   695.92         49.0975
   696.06         49.2063
   696.20         49.3496
   696.34         49.5184
   696.48         49.7026
   696.62         49.8890
   696.76         50.0613
   696.90         50.2028
   697.04         50.3001
   697.18         50.3476
   697.32         50.3487
   697.46         50.3118
   697.60         50.2455
   697.74         50.1587
   697.88         50.0595
   698.02         49.9520
   698.16         49.8367
   698.30         49.7125
   698.44         49.5794
   698.58         49.4397
   698.72         49.2986
   698.86         49.1642
   699.00         49.0429
   699.14         48.9356
   699.28         48.8390
   699.42         48.7503
   699.56         48.6692
   699.70         48.5981
   699.84         48.5407
   699.98         48.4994
   700.12         48.4738
   700.26         48.4635
   700.40         48.4688
   700.54         48.4890
   700.68         48.5232
   700.82         48.5694
   700.96         48.6223
   701.10         48.6749
   701.24         48.7206
   701.38         48.7539
   701.52         48.7708
   701.66         48.7674
   701.80         48.7414
   701.94         48.6946
   702.08         48.6331
   702.22         48.5638
   702.36         48.4911
   702.50         48.4193
   702.64         48.3522
   702.78         48.2937
   702.92         48.2462
   703.06         48.2106
   703.20         48.1871
   703.34         48.1737
   703.48         48.1648
   703.62         48.1553
   703.76         48.1454
   703.90         48.1362
   704.04         48.1253
   704.18         48.1101
   704.32         48.0897
   704.46         48.0644
   704.60         48.0359
   704.74         48.0039
   704.88         47.9634
   705.02         47.9093
   705.16         47.8410
   705.30         47.7615
   705.44         47.6765
   705.58         47.5911
   705.72         47.5089
   705.86         47.4327
   706.00         47.3660
   706.14         47.3137
   706.28         47.2810
   706.42         47.2723
   706.56         47.2909
   706.70         47.3397
   706.84         47.4207
   706.98         47.5311
   707.12         47.6629
   707.26         47.8056
   707.40         47.9452
   707.54         48.0670
   707.68         48.1627
   707.82         48.2294
   707.96         48.2649
   708.10         48.2679
   708.24         48.2405
   708.38         48.1885
   708.52         48.1210
   708.66         48.0516
   708.80         47.9966
   708.94         47.9716
   709.08         47.9922
   709.22         48.0722
   709.36         48.2170
   709.50         48.4204
   709.64         48.6667
   709.78         48.9358
   709.92         49.2059
   710.06         49.4548
   710.20         49.6628
   710.34         49.8172
   710.48         49.9116
   710.62         49.9464
   710.76         49.9312
   710.90         49.8853
   711.04         49.8315
   711.18         49.7904
   711.32         49.7748
   711.46         49.7854
   711.60         49.8156
   711.74         49.8586
   711.88         49.9060
   712.02         49.9436
   712.16         49.9547
   712.30         49.9280
   712.44         49.8608
   712.58         49.7568
   712.72         49.6194
   712.86         49.4514
   713.00         49.2581
   713.14         49.0453
   713.28         48.8177
   713.42         48.5813
   713.56         48.3433
   713.70         48.1082
   713.84         47.8782
   713.98         47.6579
   714.12         47.4556
   714.26         47.2830
   714.40         47.1509
   714.54         47.0627
   714.68         47.0141
   714.82         46.9982
   714.96         47.0076
   715.10         47.0327
   715.24         47.0614
   715.38         47.0772
   715.52         47.0633
   715.66         47.0058
   715.80         46.8914
   715.94         46.7090
   716.08         46.4506
   716.22         46.1089
   716.36         45.6776
   716.50         45.1548
   716.64         44.5505
   716.78         43.8885
   716.92         43.2033
   717.06         42.5329
   717.20         41.9075
   717.34         41.3463
   717.48         40.8618
   717.62         40.4637
   717.76         40.1591
   717.90         39.9467
   718.04         39.8145
   718.18         39.7469
   718.32         39.7323
   718.46         39.7642
   718.60         39.8384
   718.74         39.9496
   718.88         40.0890
   719.02         40.2484
   719.16         40.4228
   719.30         40.6099
   719.44         40.8071
   719.58         41.0115
   719.72         41.2209
   719.86         41.4358
   720.00         41.6668
   720.14         41.9336
   720.28         42.2517
   720.42         42.6236
   720.56         43.0440
   720.70         43.5071
   720.84         44.0058
   720.98         44.5224
   721.12         45.0244
   721.26         45.4732
   721.40         45.8361
   721.54         46.0926
   721.68         46.2367
   721.82         46.2760
   721.96         46.2229
   722.10         46.0882
   722.24         45.8791
   722.38         45.6042
   722.52         45.2803
   722.66         44.9293
   722.80         44.5665
   722.94         44.1988
   723.08         43.8337
   723.22         43.4830
   723.36         43.1602
   723.50         42.8759
   723.64         42.6360
   723.78         42.4454
   723.92         42.3083
   724.06         42.2191
   724.20         42.1647
   724.34         42.1365
   724.48         42.1287
   724.62         42.1338
   724.76         42.1482
   724.90         42.1773
   725.04         42.2302
   725.18         42.3076
   725.32         42.3978
   725.46         42.4843
   725.60         42.5589
   725.74         42.6223
   725.88         42.6753
   726.02         42.7136
   726.16         42.7251
   726.30         42.6903
   726.44         42.5868
   726.58         42.4000
   726.72         42.1348
   726.86         41.8192
   727.00         41.4899
   727.14         41.1783
   727.28         40.9108
   727.42         40.7088
   727.56         40.5816
   727.70         40.5230
   727.84         40.5187
   727.98         40.5526
   728.12         40.6077
   728.26         40.6659
   728.40         40.7097
   728.54         40.7274
   728.68         40.7147
   728.82         40.6730
   728.96         40.6054
   729.10         40.5186
   729.24         40.4281
   729.38         40.3552
   729.52         40.3188
   729.66         40.3280
   729.80         40.3790
   729.94         40.4573
   730.08         40.5424
   730.22         40.6132
   730.36         40.6577
   730.50         40.6769
   730.64         40.6771
   730.78         40.6639
   730.92         40.6446
   731.06         40.6303
   731.20         40.6286
   731.34         40.6381
   731.48         40.6505
   731.62         40.6581
   731.76         40.6604
   731.90         40.6629
   732.04         40.6710
   732.18         40.6837
   732.32         40.6919
   732.46         40.6854
   732.60         40.6613
   732.74         40.6240
   732.88         40.5811
   733.02         40.5414
   733.16         40.5094
   733.30         40.4826
   733.44         40.4569
   733.58         40.4318
   733.72         40.4089
   733.86         40.3856
   734.00         40.3584
   734.14         40.3286
   734.28         40.3036
   734.42         40.2904
   734.56         40.2898
   734.70         40.2974
   734.84         40.3084
   734.98         40.3199
   735.12         40.3292
   735.26         40.3320
   735.40         40.3227
   735.54         40.2959
   735.68         40.2480
   735.82         40.1765
   735.96         40.0817
   736.10         39.9705
   736.24         39.8542
   736.38         39.7451
   736.52         39.6530
   736.66         39.5830
   736.80         39.5366
   736.94         39.5117
   737.08         39.5006
   737.22         39.4939
   737.36         39.4842
   737.50         39.4678
   737.64         39.4436
   737.78         39.4144
   737.92         39.3844
   738.06         39.3552
   738.20         39.3261
   738.34         39.2980
   738.48         39.2729
   738.62         39.2523
   738.76         39.2368
   738.90         39.2253
   739.04         39.2159
   739.18         39.2056
   739.32         39.1918
   739.46         39.1733
   739.60         39.1475
   739.74         39.1102
   739.88         39.0597
   740.02         38.9972
   740.16         38.9256
   740.30         38.8487
   740.44         38.7695
   740.58         38.6904
   740.72         38.6135
   740.86         38.5423
   741.00         38.4813
   741.14         38.4328
   741.28         38.3986
   741.42         38.3806
   741.56         38.3796
   741.70         38.3938
   741.84         38.4195
   741.98         38.4514
   742.12         38.4840
   742.26         38.5119
   742.40         38.5324
   742.54         38.5447
   742.68         38.5508
   742.82         38.5532
   742.96         38.5532
   743.10         38.5508
   743.24         38.5447
   743.38         38.5324
   743.52         38.5119
   743.66         38.4840
   743.80         38.4514
   743.94         38.4195
   744.08         38.3938
   744.22         38.3796
