# File HD16808
# Wavelength [nm]    Normalized Amplitude
   349.70         531.3315
   349.84         530.7342
   349.98         530.7789
   350.12         531.3727
   350.26         532.4458
   350.40         533.9140
   350.54         535.6200
   350.68         537.3174
   350.82         538.7417
   350.96         539.6818
   351.10         540.0092
   351.24         539.6818
   351.38         538.7417
   351.52         537.3174
   351.66         535.6200
   351.80         533.9140
   351.94         532.4458
   352.08         531.3727
   352.22         530.7789
   352.36         530.7342
   352.50         531.3315
   352.64         532.6478
   352.78         534.6124
   352.92         536.9413
   353.06         539.2467
   353.20         541.1738
   353.34         542.4392
   353.48         542.8363
   353.62         542.2810
   353.76         540.7889
   353.90         538.4098
   354.04         535.2434
   354.18         531.4473
   354.32         527.2623
   354.46         523.0179
   354.60         519.0016
   354.74         515.4016
   354.88         512.3850
   355.02         510.0873
   355.16         508.5364
   355.30         507.6755
   355.44         507.4635
   355.58         507.8921
   355.72         508.9369
   355.86         510.5143
   356.00         512.4344
   356.14         514.4311
   356.28         516.2949
   356.42         517.9242
   356.56         519.2721
   356.70         520.3311
   356.84         521.1142
   356.98         521.6228
   357.12         521.8083
   357.26         521.5658
   357.40         520.8046
   357.54         519.4970
   357.68         517.6934
   357.82         515.5329
   357.96         513.2275
   358.10         510.9960
   358.24         508.9681
   358.38         507.1865
   358.52         505.6962
   358.66         504.5623
   358.80         503.8269
   358.94         503.4721
   359.08         503.3843
   359.22         503.4015
   359.36         503.4052
   359.50         503.3004
   359.64         502.9988
   359.78         502.4732
   359.92         501.7730
   360.06         500.9730
   360.20         500.1330
   360.34         499.3211
   360.48         498.6116
   360.62         498.0530
   360.76         497.6538
   360.90         497.3877
   361.04         497.2464
   361.18         497.2767
   361.32         497.5041
   361.46         497.9031
   361.60         498.4665
   361.74         499.2241
   361.88         500.1753
   362.02         501.1916
   362.16         501.9909
   362.30         502.2843
   362.44         501.9298
   362.58         500.9216
   362.72         499.3529
   362.86         497.4219
   363.00         495.3973
   363.14         493.5494
   363.28         492.0906
   363.42         491.1457
   363.56         490.7665
   363.70         490.9331
   363.84         491.5341
   363.98         492.3923
   364.12         493.3349
   364.26         494.2079
   364.40         494.8701
   364.54         495.2425
   364.68         495.3541
   364.82         495.3284
   364.96         495.3649
   365.10         495.6536
   365.24         496.2678
   365.38         497.1625
   365.52         498.2174
   365.66         499.2245
   365.80         499.9515
   365.94         500.2045
   366.08         499.8519
   366.22         498.8849
   366.36         497.3930
   366.50         495.5242
   366.64         493.4606
   366.78         491.3755
   366.92         489.4185
   367.06         487.7314
   367.20         486.3933
   367.34         485.3467
   367.48         484.4559
   367.62         483.6057
   367.76         482.6960
   367.90         481.6058
   368.04         480.2138
   368.18         478.4287
   368.32         476.2135
   368.46         473.6656
   368.60         470.9896
   368.74         468.4121
   368.88         466.1285
   369.02         464.2161
   369.16         462.6006
   369.30         461.1336
   369.44         459.7204
   369.58         458.3531
   369.72         457.0406
   369.86         455.7574
   370.00         454.4884
   370.14         453.3154
   370.28         452.3894
   370.42         451.8484
   370.56         451.8150
   370.70         452.3898
   370.84         453.5911
   370.98         455.3483
   371.12         457.5419
   371.26         459.9955
   371.40         462.4638
   371.54         464.6691
   371.68         466.3787
   371.82         467.4511
   371.96         467.8429
   372.10         467.5644
   372.24         466.6020
   372.38         464.9436
   372.52         462.6922
   372.66         460.0925
   372.80         457.4948
   372.94         455.2993
   373.08         453.8812
   373.22         453.4808
   373.36         454.1260
   373.50         455.6714
   373.64         457.8315
   373.78         460.1927
   373.92         462.2767
   374.06         463.6602
   374.20         464.0738
   374.34         463.4168
   374.48         461.7077
   374.62         459.0875
   374.76         455.8550
   374.90         452.4526
   375.04         449.4283
   375.18         447.3011
   375.32         446.3827
   375.46         446.7309
   375.60         448.1511
   375.74         450.1738
   375.88         452.1358
   376.02         453.4216
   376.16         453.6391
   376.30         452.6612
   376.44         450.6767
   376.58         448.1680
   376.72         445.7560
   376.86         443.9936
   377.00         443.2577
   377.14         443.7764
   377.28         445.6672
   377.42         448.9095
   377.56         453.3392
   377.70         458.6537
   377.84         464.4061
   377.98         470.0875
   378.12         475.2287
   378.26         479.4142
   378.40         482.2580
   378.54         483.4298
   378.68         482.7533
   378.82         480.2932
   378.96         476.3650
   379.10         471.4717
   379.24         466.1841
   379.38         461.0462
   379.52         456.5537
   379.66         453.1660
   379.80         451.2678
   379.94         451.0787
   380.08         452.6167
   380.22         455.7331
   380.36         460.1321
   380.50         465.3595
   380.64         470.8236
   380.78         475.8708
   380.92         479.9188
   381.06         482.6079
   381.20         483.8919
   381.34         484.0460
   381.48         483.5479
   381.62         482.8430
   381.76         482.1864
   381.90         481.6215
   382.04         481.0087
   382.18         480.0608
   382.32         478.3914
   382.46         475.6238
   382.60         471.5378
   382.74         466.1647
   382.88         459.7903
   383.02         452.8744
   383.16         445.9484
   383.30         439.6043
   383.44         434.4922
   383.58         431.1974
   383.72         430.0896
   383.86         431.2440
   384.00         434.4672
   384.14         439.3612
   384.28         445.3515
   384.42         451.7619
   384.56         457.9425
   384.70         463.3525
   384.84         467.6172
   384.98         470.6052
   385.12         472.4397
   385.26         473.3728
   385.40         473.6303
   385.54         473.3428
   385.68         472.5795
   385.82         471.4009
   385.96         469.8792
   386.10         468.0808
   386.24         466.0481
   386.38         463.8590
   386.52         461.6719
   386.66         459.6650
   386.80         457.9535
   386.94         456.5416
   387.08         455.3372
   387.22         454.2113
   387.36         452.9971
   387.50         451.4478
   387.64         449.2480
   387.78         446.0966
   387.92         441.8223
   388.06         436.4765
   388.20         430.3652
   388.34         423.9946
   388.48         417.9416
   388.62         412.7626
   388.76         408.9518
   388.90         406.8876
   389.04         406.8007
   389.18         408.7337
   389.32         412.5021
   389.46         417.7260
   389.60         423.8997
   389.74         430.4657
   389.88         436.8589
   390.02         442.5445
   390.16         447.0949
   390.30         450.2837
   390.44         452.1367
   390.58         452.8582
   390.72         452.6986
   390.86         451.8751
   391.00         450.5559
   391.14         448.8767
   391.28         446.9465
   391.42         444.8549
   391.56         442.6938
   391.70         440.5585
   391.84         438.5158
   391.98         436.5632
   392.12         434.6131
   392.26         432.5482
   392.40         430.3105
   392.54         427.9472
   392.68         425.5915
   392.82         423.4026
   392.96         421.5200
   393.10         420.0417
   393.24         419.0187
   393.38         418.4690
   393.52         418.3850
   393.66         418.7355
   393.80         419.4543
   393.94         420.4424
   394.08         421.5748
   394.22         422.6860
   394.36         423.5893
   394.50         424.1281
   394.64         424.2199
   394.78         423.8600
   394.92         423.1135
   395.06         422.0812
   395.20         420.7963
   395.34         419.1763
   395.48         417.0359
   395.62         414.0963
   395.76         410.0621
   395.90         404.7734
   396.04         398.3289
   396.18         391.0859
   396.32         383.5717
   396.46         376.4039
   396.60         370.2131
   396.74         365.5365
   396.88         362.7557
   397.02         362.0866
   397.16         363.5587
   397.30         367.0107
   397.44         372.0829
   397.58         378.2474
   397.72         384.8973
   397.86         391.4407
   398.00         397.3718
   398.14         402.2837
   398.28         405.9190
   398.42         408.2670
   398.56         409.5598
   398.70         410.1400
   398.84         410.3073
   398.98         410.2391
   399.12         410.0062
   399.26         409.6114
   399.40         409.0284
   399.54         408.2269
   399.68         407.1703
   399.82         405.8383
   399.96         404.2669
   400.10         402.5456
   400.24         400.7963
   400.38         399.1516
   400.52         397.7214
   400.66         396.5448
   400.80         395.5929
   400.94         394.8316
   401.08         394.2260
   401.22         393.6761
   401.36         393.0008
   401.50         392.0129
   401.64         390.6110
   401.78         388.8178
   401.92         386.7677
   402.06         384.6554
   402.20         382.6838
   402.34         381.0498
   402.48         379.9502
   402.62         379.5327
   402.76         379.8201
   402.90         380.6966
   403.04         381.9542
   403.18         383.3751
   403.32         384.7769
   403.46         386.0141
   403.60         386.9841
   403.74         387.6253
   403.88         387.9474
   404.02         388.0683
   404.16         388.1686
   404.30         388.3855
   404.44         388.7428
   404.58         389.1767
   404.72         389.5771
   404.86         389.8176
   405.00         389.7930
   405.14         389.4394
   405.28         388.7303
   405.42         387.6603
   405.56         386.2302
   405.70         384.4470
   405.84         382.3386
   405.98         379.9509
   406.12         377.3445
   406.26         374.6110
   406.40         371.8595
   406.54         369.1880
   406.68         366.6626
   406.82         364.3350
   406.96         362.2765
   407.10         360.5629
   407.24         359.2372
   407.38         358.2790
   407.52         357.5916
   407.66         357.0230
   407.80         356.4174
   407.94         355.6562
   408.08         354.6640
   408.22         353.4035
   408.36         351.8657
   408.50         350.0505
   408.64         347.9404
   408.78         345.4695
   408.92         342.5222
   409.06         338.9999
   409.20         334.9206
   409.34         330.4636
   409.48         325.9287
   409.62         321.6541
   409.76         317.9661
   409.90         315.1693
   410.04         313.5110
   410.18         313.1335
   410.32         314.0516
   410.46         316.1489
   410.60         319.1884
   410.74         322.8237
   410.88         326.6219
   411.02         330.1392
   411.16         333.0402
   411.30         335.1627
   411.44         336.5060
   411.58         337.2212
   411.72         337.5888
   411.86         337.9297
   412.00         338.4952
   412.14         339.4116
   412.28         340.6844
   412.42         342.2411
   412.56         343.9676
   412.70         345.7291
   412.84         347.3724
   412.98         348.7373
   413.12         349.7052
   413.26         350.2317
   413.40         350.3329
   413.54         350.0768
   413.68         349.5778
   413.82         348.9713
   413.96         348.3678
   414.10         347.8287
   414.24         347.3849
   414.38         347.0454
   414.52         346.8030
   414.66         346.6432
   414.80         346.5480
   414.94         346.4987
   415.08         346.4836
   415.22         346.4978
   415.36         346.5209
   415.50         346.5009
   415.64         346.3998
   415.78         346.2427
   415.92         346.0839
   416.06         345.9543
   416.20         345.8377
   416.34         345.6792
   416.48         345.4169
   416.62         345.0006
   416.76         344.4067
   416.90         343.6403
   417.04         342.7133
   417.18         341.6382
   417.32         340.4375
   417.46         339.1516
   417.60         337.8355
   417.74         336.5423
   417.88         335.3101
   418.02         334.1427
   418.16         333.0370
   418.30         332.0206
   418.44         331.1253
   418.58         330.3627
   418.72         329.7333
   418.86         329.2466
   419.00         328.9278
   419.14         328.8094
   419.28         328.9077
   419.42         329.2059
   419.56         329.6515
   419.70         330.1714
   419.84         330.6985
   419.98         331.1822
   420.12         331.5824
   420.26         331.8572
   420.40         331.9660
   420.54         331.8836
   420.68         331.6051
   420.82         331.1570
   420.96         330.5890
   421.10         329.9524
   421.24         329.2962
   421.38         328.6511
   421.52         328.0348
   421.66         327.4623
   421.80         326.9373
   421.94         326.4442
   422.08         325.9528
   422.22         325.4443
   422.36         324.9255
   422.50         324.4168
   422.64         323.9385
   422.78         323.5090
   422.92         323.1354
   423.06         322.8134
   423.20         322.5378
   423.34         322.3092
   423.48         322.1347
   423.62         322.0180
   423.76         321.9493
   423.90         321.8967
   424.04         321.8085
   424.18         321.6375
   424.32         321.3586
   424.46         320.9653
   424.60         320.4674
   424.74         319.8923
   424.88         319.2814
   425.02         318.6753
   425.16         318.0921
   425.30         317.5291
   425.44         316.9752
   425.58         316.4230
   425.72         315.8740
   425.86         315.3375
   426.00         314.8208
   426.14         314.3168
   426.28         313.8050
   426.42         313.2604
   426.56         312.6549
   426.70         311.9720
   426.84         311.2234
   426.98         310.4308
   427.12         309.6081
   427.26         308.7689
   427.40         307.9311
   427.54         307.1107
   427.68         306.3265
   427.82         305.6034
   427.96         304.9692
   428.10         304.4472
   428.24         304.0520
   428.38         303.7887
   428.52         303.6619
   428.66         303.6817
   428.80         303.8521
   428.94         304.1581
   429.08         304.5727
   429.22         305.0607
   429.36         305.5699
   429.50         306.0412
   429.64         306.4280
   429.78         306.7080
   429.92         306.8808
   430.06         306.9553
   430.20         306.9464
   430.34         306.8625
   430.48         306.6821
   430.62         306.3550
   430.76         305.8370
   430.90         305.1301
   431.04         304.2878
   431.18         303.3898
   431.32         302.5157
   431.46         301.7351
   431.60         301.1081
   431.74         300.6776
   431.88         300.4475
   432.02         300.3879
   432.16         300.4568
   432.30         300.5904
   432.44         300.6701
   432.58         300.4999
   432.72         299.8129
   432.86         298.3175
   433.00         295.7905
   433.14         292.1692
   433.28         287.5917
   433.42         282.3669
   433.56         276.8924
   433.70         271.5686
   433.84         266.7606
   433.98         262.7958
   434.12         259.9559
   434.26         258.4411
   434.40         258.3362
   434.54         259.6168
   434.68         262.1587
   434.82         265.7318
   434.96         270.0180
   435.10         274.6514
   435.24         279.2649
   435.38         283.5426
   435.52         287.2712
   435.66         290.3558
   435.80         292.7794
   435.94         294.5549
   436.08         295.7055
   436.22         296.2741
   436.36         296.3497
   436.50         296.0683
   436.64         295.5792
   436.78         295.0127
   436.92         294.4601
   437.06         293.9699
   437.20         293.5382
   437.34         293.0964
   437.48         292.5330
   437.62         291.7406
   437.76         290.6581
   437.90         289.2851
   438.04         287.6730
   438.18         285.9255
   438.32         284.1912
   438.46         282.6351
   438.60         281.4080
   438.74         280.6208
   438.88         280.3310
   439.02         280.5218
   439.16         281.1054
   439.30         281.9559
   439.44         282.9437
   439.58         283.9509
   439.72         284.8516
   439.86         285.5118
   440.00         285.8282
   440.14         285.7482
   440.28         285.2630
   440.42         284.3856
   440.56         283.1280
   440.70         281.5092
   440.84         279.5767
   440.98         277.4079
   441.12         275.1001
   441.26         272.7587
   441.40         270.4755
   441.54         268.3165
   441.68         266.3397
   441.82         264.6091
   441.96         263.1706
   442.10         262.0401
   442.24         261.2110
   442.38         260.6367
   442.52         260.2422
   442.66         259.9589
   442.80         259.7369
   442.94         259.5556
   443.08         259.4280
   443.22         259.4003
   443.36         259.5220
   443.50         259.8136
   443.64         260.2605
   443.78         260.8292
   443.92         261.4837
   444.06         262.1872
   444.20         262.9199
   444.34         263.6807
   444.48         264.4630
   444.62         265.2511
   444.76         266.0362
   444.90         266.8099
   445.04         267.5515
   445.18         268.2394
   445.32         268.8464
   445.46         269.3294
   445.60         269.6243
   445.74         269.6285
   445.88         269.2034
   446.02         268.2263
   446.16         266.6685
   446.30         264.6255
   446.44         262.2883
   446.58         259.8927
   446.72         257.6714
   446.86         255.8271
   447.00         254.5072
   447.14         253.7987
   447.28         253.7425
   447.42         254.3418
   447.56         255.5504
   447.70         257.2542
   447.84         259.2828
   447.98         261.4279
   448.12         263.4875
   448.26         265.2958
   448.40         266.7284
   448.54         267.7341
   448.68         268.3469
   448.82         268.6428
   448.96         268.6833
   449.10         268.5043
   449.24         268.1461
   449.38         267.6595
   449.52         267.0952
   449.66         266.5051
   449.80         265.9466
   449.94         265.4714
   450.08         265.1115
   450.22         264.8773
   450.36         264.7562
   450.50         264.7155
   450.64         264.7099
   450.78         264.7034
   450.92         264.6733
   451.06         264.5984
   451.20         264.4687
   451.34         264.2920
   451.48         264.0750
   451.62         263.8246
   451.76         263.5655
   451.90         263.3181
   452.04         263.0768
   452.18         262.8225
   452.32         262.5452
   452.46         262.2521
   452.60         261.9641
   452.74         261.7006
   452.88         261.4645
   453.02         261.2366
   453.16         260.9896
   453.30         260.7055
   453.44         260.3736
   453.58         259.9860
   453.72         259.5269
   453.86         258.9507
   454.00         258.1847
   454.14         257.1738
   454.28         255.9364
   454.42         254.5613
   454.56         253.1565
   454.70         251.8345
   454.84         250.7095
   454.98         249.8683
   455.12         249.3517
   455.26         249.1528
   455.40         249.2013
   455.54         249.3808
   455.68         249.5774
   455.82         249.7111
   455.96         249.7326
   456.10         249.6009
   456.24         249.2864
   456.38         248.7871
   456.52         248.1443
   456.66         247.4545
   456.80         246.8529
   456.94         246.4646
   457.08         246.3581
   457.22         246.5329
   457.36         246.9401
   457.50         247.4937
   457.64         248.0744
   457.78         248.5635
   457.92         248.8693
   458.06         248.9267
   458.20         248.7143
   458.34         248.2561
   458.48         247.5973
   458.62         246.7870
   458.76         245.8880
   458.90         244.9889
   459.04         244.1861
   459.18         243.5545
   459.32         243.1336
   459.46         242.9265
   459.60         242.9001
   459.74         243.0017
   459.88         243.1815
   460.02         243.3978
   460.16         243.6111
   460.30         243.7876
   460.44         243.9132
   460.58         243.9883
   460.72         244.0179
   460.86         244.0143
   461.00         243.9976
   461.14         244.0032
   461.28         244.0799
   461.42         244.2565
   461.56         244.5176
   461.70         244.8171
   461.84         245.0995
   461.98         245.3029
   462.12         245.3705
   462.26         245.2780
   462.40         245.0324
   462.54         244.6303
   462.68         244.0407
   462.82         243.2269
   462.96         242.1701
   463.10         240.8881
   463.24         239.4378
   463.38         237.8920
   463.52         236.2826
   463.66         234.5792
   463.80         232.7347
   463.94         230.7216
   464.08         228.5667
   464.22         226.3717
   464.36         224.3026
   464.50         222.5489
   464.64         221.2730
   464.78         220.5905
   464.92         220.5518
   465.06         221.1336
   465.20         222.2609
   465.34         223.8399
   465.48         225.7738
   465.62         227.9586
   465.76         230.2715
   465.90         232.5567
   466.04         234.6290
   466.18         236.3169
   466.32         237.5322
   466.46         238.2910
   466.60         238.6778
   466.74         238.8027
   466.88         238.7509
   467.02         238.5645
   467.16         238.2552
   467.30         237.8301
   467.44         237.3180
   467.58         236.7695
   467.72         236.2544
   467.86         235.8438
   468.00         235.5851
   468.14         235.4889
   468.28         235.5337
   468.42         235.6746
   468.56         235.8596
   468.70         236.0377
   468.84         236.1544
   468.98         236.1616
   469.12         236.0256
   469.26         235.7328
   469.40         235.2970
   469.54         234.7638
   469.68         234.1860
   469.82         233.5937
   469.96         232.9882
   470.10         232.3516
   470.24         231.6679
   470.38         230.9450
   470.52         230.2054
   470.66         229.4656
   470.80         228.7489
   470.94         228.0994
   471.08         227.5535
   471.22         227.1286
   471.36         226.8296
   471.50         226.6531
   471.64         226.5968
   471.78         226.6491
   471.92         226.7927
   472.06         227.0129
   472.20         227.2761
   472.34         227.5128
   472.48         227.6543
   472.62         227.6730
   472.76         227.5927
   472.90         227.4777
   473.04         227.3908
   473.18         227.3653
   473.32         227.4082
   473.46         227.5155
   473.60         227.6728
   473.74         227.8519
   473.88         228.0223
   474.02         228.1599
   474.16         228.2414
   474.30         228.2428
   474.44         228.1458
   474.58         227.9513
   474.72         227.6698
   474.86         227.3019
   475.00         226.8380
   475.14         226.2758
   475.28         225.6335
   475.42         224.9464
   475.56         224.2552
   475.70         223.5970
   475.84         223.0155
   475.98         222.5538
   476.12         222.2337
   476.26         222.0439
   476.40         221.9528
   476.54         221.9286
   476.68         221.9423
   476.82         221.9689
   476.96         221.9901
   477.10         222.0003
   477.24         221.9914
   477.38         221.9442
   477.52         221.8411
   477.66         221.6768
   477.80         221.4726
   477.94         221.2707
   478.08         221.1085
   478.22         220.9985
   478.36         220.9278
   478.50         220.8752
   478.64         220.8167
   478.78         220.7206
   478.92         220.5552
   479.06         220.3070
   479.20         219.9867
   479.34         219.6264
   479.48         219.2622
   479.62         218.9145
   479.76         218.5937
   479.90         218.3054
   480.04         218.0554
   480.18         217.8495
   480.32         217.6869
   480.46         217.5606
   480.60         217.4440
   480.74         217.2903
   480.88         217.0593
   481.02         216.7451
   481.16         216.3768
   481.30         215.9886
   481.44         215.6043
   481.58         215.2408
   481.72         214.9118
   481.86         214.6402
   482.00         214.4584
   482.14         214.3730
   482.28         214.3699
   482.42         214.4496
   482.56         214.6113
   482.70         214.8482
   482.84         215.1487
   482.98         215.4897
   483.12         215.8457
   483.26         216.1952
   483.40         216.5259
   483.54         216.8335
   483.68         217.0993
   483.82         217.2742
   483.96         217.3083
   484.10         217.1646
   484.24         216.7936
   484.38         216.1503
   484.52         215.2166
   484.66         213.9672
   484.80         212.3295
   484.94         210.2296
   485.08         207.6592
   485.22         204.6911
   485.36         201.4800
   485.50         198.2287
   485.64         195.1576
   485.78         192.4874
   485.92         190.3984
   486.06         189.0063
   486.20         188.3668
   486.34         188.4762
   486.48         189.2704
   486.62         190.6248
   486.76         192.3438
   486.90         194.1995
   487.04         195.9997
   487.18         197.5919
   487.32         198.8599
   487.46         199.7665
   487.60         200.3712
   487.74         200.7844
   487.88         201.1167
   488.02         201.4478
   488.16         201.8112
   488.30         202.2038
   488.44         202.6052
   488.58         202.9940
   488.72         203.3521
   488.86         203.6628
   489.00         203.9225
   489.14         204.1370
   489.28         204.3123
   489.42         204.4696
   489.56         204.6403
   489.70         204.8316
   489.84         205.0154
   489.98         205.1625
   490.12         205.2579
   490.26         205.2806
   490.40         205.2114
   490.54         205.0504
   490.68         204.7992
   490.82         204.4366
   490.96         203.9020
   491.10         203.1195
   491.24         202.0503
   491.38         200.7129
   491.52         199.1843
   491.66         197.5909
   491.80         196.0710
   491.94         194.7506
   492.08         193.7418
   492.22         193.1359
   492.36         192.9832
   492.50         193.2953
   492.64         194.0550
   492.78         195.1989
   492.92         196.6155
   493.06         198.1667
   493.20         199.6971
   493.34         201.0502
   493.48         202.1020
   493.62         202.7855
   493.76         203.1051
   493.90         203.1355
   494.04         202.9783
   494.18         202.7146
   494.32         202.4052
   494.46         202.0925
   494.60         201.7848
   494.74         201.4705
   494.88         201.1363
   495.02         200.7499
   495.16         200.2770
   495.30         199.7194
   495.44         199.1028
   495.58         198.4604
   495.72         197.8252
   495.86         197.2251
   496.00         196.6909
   496.14         196.2535
   496.28         195.9278
   496.42         195.7135
   496.56         195.6055
   496.70         195.5838
   496.84         195.6186
   496.98         195.6877
   497.12         195.7669
   497.26         195.8365
   497.40         195.9080
   497.54         196.0091
   497.68         196.1545
   497.82         196.3594
   497.96         196.6518
   498.10         197.0389
   498.24         197.4896
   498.38         197.9559
   498.52         198.3898
   498.66         198.7489
   498.80         199.0060
   498.94         199.1581
   499.08         199.2137
   499.22         199.1624
   499.36         198.9734
   499.50         198.6226
   499.64         198.1041
   499.78         197.4347
   499.92         196.6469
   500.06         195.7664
   500.20         194.8062
   500.34         193.7615
   500.48         192.6207
   500.62         191.3888
   500.76         190.0876
   500.90         188.7596
   501.04         187.4711
   501.18         186.2884
   501.32         185.2713
   501.46         184.4712
   501.60         183.9129
   501.74         183.5893
   501.88         183.4738
   502.02         183.5473
   502.16         183.8056
   502.30         184.2339
   502.44         184.7867
   502.58         185.3967
   502.72         186.0071
   502.86         186.5708
   503.00         187.0414
   503.14         187.3986
   503.28         187.6455
   503.42         187.7737
   503.56         187.7560
   503.70         187.5688
   503.84         187.2121
   503.98         186.7213
   504.12         186.1519
   504.26         185.5571
   504.40         184.9838
   504.54         184.4648
   504.68         184.0189
   504.82         183.6571
   504.96         183.3844
   505.10         183.2023
   505.24         183.1064
   505.38         183.0788
   505.52         183.0834
   505.66         183.0890
   505.80         183.0840
   505.94         183.0660
   506.08         183.0344
   506.22         183.0014
   506.36         182.9964
   506.50         183.0488
   506.64         183.1752
   506.78         183.3671
   506.92         183.5934
   507.06         183.8191
   507.20         184.0155
   507.34         184.1639
   507.48         184.2507
   507.62         184.2665
   507.76         184.2056
   507.90         184.0650
   508.04         183.8503
   508.18         183.5720
   508.32         183.2416
   508.46         182.8709
   508.60         182.4709
   508.74         182.0621
   508.88         181.6808
   509.02         181.3566
   509.16         181.0927
   509.30         180.8709
   509.44         180.6649
   509.58         180.4589
   509.72         180.2479
   509.86         180.0236
   510.00         179.7708
   510.14         179.4747
   510.28         179.1330
   510.42         178.7559
   510.56         178.3627
   510.70         177.9793
   510.84         177.6253
   510.98         177.3195
   511.12         177.0931
   511.26         176.9745
   511.40         176.9595
   511.54         177.0030
   511.68         177.0430
   511.82         177.0404
   511.96         176.9984
   512.10         176.9460
   512.24         176.9070
   512.38         176.8795
   512.52         176.8538
   512.66         176.8299
   512.80         176.8080
   512.94         176.7875
   513.08         176.7724
   513.22         176.7619
   513.36         176.7415
   513.50         176.6979
   513.64         176.6364
   513.78         176.5682
   513.92         176.4877
   514.06         176.3699
   514.20         176.1898
   514.34         175.9433
   514.48         175.6515
   514.62         175.3373
   514.76         174.9974
   514.90         174.6042
   515.04         174.1352
   515.18         173.6005
   515.32         173.0311
   515.46         172.4540
   515.60         171.8961
   515.74         171.3830
   515.88         170.9319
   516.02         170.5620
   516.16         170.3051
   516.30         170.1868
   516.44         170.2032
   516.58         170.3165
   516.72         170.4693
   516.86         170.6116
   517.00         170.7212
   517.14         170.8006
   517.28         170.8559
   517.42         170.8821
   517.56         170.8740
   517.70         170.8325
   517.84         170.7562
   517.98         170.6417
   518.12         170.4881
   518.26         170.2992
   518.40         170.0907
   518.54         169.8837
   518.68         169.6881
   518.82         169.5022
   518.96         169.3146
   519.10         169.1048
   519.24         168.8527
   519.38         168.5526
   519.52         168.2152
   519.66         167.8664
   519.80         167.5353
   519.94         167.2303
   520.08         166.9464
   520.22         166.6885
   520.36         166.4611
   520.50         166.2681
   520.64         166.1201
   520.78         166.0090
   520.92         165.9029
   521.06         165.7713
   521.20         165.5894
   521.34         165.3403
   521.48         165.0219
   521.62         164.6470
   521.76         164.2367
   521.90         163.8116
   522.04         163.3951
   522.18         163.0143
   522.32         162.6898
   522.46         162.4281
   522.60         162.2318
   522.74         162.1054
   522.88         162.0413
   523.02         162.0234
   523.16         162.0401
   523.30         162.0742
   523.44         162.0912
   523.58         162.0594
   523.72         161.9699
   523.86         161.8308
   524.00         161.6509
   524.14         161.4389
   524.28         161.2091
   524.42         160.9716
   524.56         160.7276
   524.70         160.4816
   524.84         160.2462
   524.98         160.0364
   525.12         159.8639
   525.26         159.7328
   525.40         159.6333
   525.54         159.5452
   525.68         159.4513
   525.82         159.3322
   525.96         159.1642
   526.10         158.9312
   526.24         158.6332
   526.38         158.2882
   526.52         157.9191
   526.66         157.5413
   526.80         157.1614
   526.94         156.7812
   527.08         156.4066
   527.22         156.0552
   527.36         155.7466
   527.50         155.4902
   527.64         155.2837
   527.78         155.1226
   527.92         155.0092
   528.06         154.9512
   528.20         154.9542
   528.34         155.0161
   528.48         155.1212
   528.62         155.2482
   528.76         155.3785
   528.90         155.4960
   529.04         155.5878
   529.18         155.6435
   529.32         155.6558
   529.46         155.6213
   529.60         155.5448
   529.74         155.4326
   529.88         155.2810
   530.02         155.0801
   530.16         154.8254
   530.30         154.5280
   530.44         154.2120
   530.58         153.8926
   530.72         153.5651
   530.86         153.2188
   531.00         152.8540
   531.14         152.4822
   531.28         152.1204
   531.42         151.7899
   531.56         151.5141
   531.70         151.3104
   531.84         151.1863
   531.98         151.1367
   532.12         151.1391
   532.26         151.1635
   532.40         151.1884
   532.54         151.1980
   532.68         151.1742
   532.82         151.1011
   532.96         150.9751
   533.10         150.7983
   533.24         150.5699
   533.38         150.2925
   533.52         149.9814
   533.66         149.6603
   533.80         149.3529
   533.94         149.0787
   534.08         148.8522
   534.22         148.6817
   534.36         148.5690
   534.50         148.5098
   534.64         148.4893
   534.78         148.4830
   534.92         148.4745
   535.06         148.4565
   535.20         148.4183
   535.34         148.3469
   535.48         148.2328
   535.62         148.0707
   535.76         147.8625
   535.90         147.6228
   536.04         147.3742
   536.18         147.1342
   536.32         146.9147
   536.46         146.7284
   536.60         146.5847
   536.74         146.4855
   536.88         146.4301
   537.02         146.4118
   537.16         146.4135
   537.30         146.4123
   537.44         146.3953
   537.58         146.3636
   537.72         146.3205
   537.86         146.2631
   538.00         146.1859
   538.14         146.0890
   538.28         145.9822
   538.42         145.8722
   538.56         145.7512
   538.70         145.6050
   538.84         145.4266
   538.98         145.2212
   539.12         144.9983
   539.26         144.7623
   539.40         144.5173
   539.54         144.2719
   539.68         144.0326
   539.82         143.7989
   539.96         143.5663
   540.10         143.3392
   540.24         143.1267
   540.38         142.9279
   540.52         142.7359
   540.66         142.5458
   540.80         142.3595
   540.94         142.1846
   541.08         142.0265
   541.22         141.8926
   541.36         141.7912
   541.50         141.7224
   541.64         141.6806
   541.78         141.6666
   541.92         141.6894
   542.06         141.7512
   542.20         141.8339
   542.34         141.9070
   542.48         141.9399
   542.62         141.9090
   542.76         141.8055
   542.90         141.6295
   543.04         141.3853
   543.18         141.0826
   543.32         140.7331
   543.46         140.3532
   543.60         139.9579
   543.74         139.5576
   543.88         139.1751
   544.02         138.8419
   544.16         138.5774
   544.30         138.3852
   544.44         138.2578
   544.58         138.1796
   544.72         138.1297
   544.86         138.0915
   545.00         138.0579
   545.14         138.0327
   545.28         138.0213
   545.42         138.0187
   545.56         138.0032
   545.70         137.9529
   545.84         137.8622
   545.98         137.7404
   546.12         137.6012
   546.26         137.4541
   546.40         137.3070
   546.54         137.1698
   546.68         137.0480
   546.82         136.9380
   546.96         136.8357
   547.10         136.7490
   547.24         136.6883
   547.38         136.6506
   547.52         136.6167
   547.66         136.5611
   547.80         136.4572
   547.94         136.2785
   548.08         136.0061
   548.22         135.6422
   548.36         135.2151
   548.50         134.7680
   548.64         134.3386
   548.78         133.9506
   548.92         133.6258
   549.06         133.3957
   549.20         133.2851
   549.34         133.2960
   549.48         133.4024
   549.62         133.5659
   549.76         133.7508
   549.90         133.9199
   550.04         134.0309
   550.18         134.0497
   550.32         133.9648
   550.46         133.7833
   550.60         133.5243
   550.74         133.2170
   550.88         132.8997
   551.02         132.6078
   551.16         132.3534
   551.30         132.1275
   551.44         131.9227
   551.58         131.7435
   551.72         131.5949
   551.86         131.4685
   552.00         131.3501
   552.14         131.2312
   552.28         131.1068
   552.42         130.9692
   552.56         130.8132
   552.70         130.6350
   552.84         130.4319
   552.98         130.2073
   553.12         129.9680
   553.26         129.7229
   553.40         129.4855
   553.54         129.2703
   553.68         129.0862
   553.82         128.9433
   553.96         128.8616
   554.10         128.8562
   554.24         128.9208
   554.38         129.0315
   554.52         129.1538
   554.66         129.2459
   554.80         129.2730
   554.94         129.2196
   555.08         129.0899
   555.22         128.9002
   555.36         128.6699
   555.50         128.4244
   555.64         128.1917
   555.78         127.9934
   555.92         127.8483
   556.06         127.7701
   556.20         127.7598
   556.34         127.8055
   556.48         127.8925
   556.62         128.0101
   556.76         128.1475
   556.90         128.2884
   557.04         128.4122
   557.18         128.4992
   557.32         128.5373
   557.46         128.5269
   557.60         128.4716
   557.74         128.3689
   557.88         128.2129
   558.02         127.9984
   558.16         127.7225
   558.30         127.3875
   558.44         127.0117
   558.58         126.6266
   558.72         126.2578
   558.86         125.9186
   559.00         125.6201
   559.14         125.3742
   559.28         125.1857
   559.42         125.0466
   559.56         124.9422
   559.70         124.8629
   559.84         124.8009
   559.98         124.7486
   560.12         124.6991
   560.26         124.6390
   560.40         124.5461
   560.54         124.3986
   560.68         124.1837
   560.82         123.9043
   560.96         123.5814
   561.10         123.2439
   561.24         122.9195
   561.38         122.6309
   561.52         122.3899
   561.66         122.1996
   561.80         122.0595
   561.94         121.9659
   562.08         121.9114
   562.22         121.8847
   562.36         121.8695
   562.50         121.8497
   562.64         121.8240
   562.78         121.7968
   562.92         121.7657
   563.06         121.7338
   563.20         121.7120
   563.34         121.7104
   563.48         121.7366
   563.62         121.7945
   563.76         121.8713
   563.90         121.9398
   564.04         121.9707
   564.18         121.9394
   564.32         121.8360
   564.46         121.6658
   564.60         121.4396
   564.74         121.1676
   564.88         120.8621
   565.02         120.5405
   565.16         120.2282
   565.30         119.9475
   565.44         119.7009
   565.58         119.4799
   565.72         119.2780
   565.86         119.0880
   566.00         118.9059
   566.14         118.7326
   566.28         118.5680
   566.42         118.4050
   566.56         118.2378
   566.70         118.0679
   566.84         117.8992
   566.98         117.7350
   567.12         117.5821
   567.26         117.4514
   567.40         117.3537
   567.54         117.2947
   567.68         117.2732
   567.82         117.2827
   567.96         117.3131
   568.10         117.3521
   568.24         117.3897
   568.38         117.4132
   568.52         117.4070
   568.66         117.3573
   568.80         117.2566
   568.94         117.1067
   569.08         116.9137
   569.22         116.6872
   569.36         116.4398
   569.50         116.1898
   569.64         115.9576
   569.78         115.7565
   569.92         115.5893
   570.06         115.4518
   570.20         115.3356
   570.34         115.2301
   570.48         115.1230
   570.62         114.9998
   570.76         114.8458
   570.90         114.6487
   571.04         114.4087
   571.18         114.1438
   571.32         113.8766
   571.46         113.6280
   571.60         113.4162
   571.74         113.2475
   571.88         113.1207
   572.02         113.0359
   572.16         112.9960
   572.30         112.9984
   572.44         113.0296
   572.58         113.0703
   572.72         113.0947
   572.86         113.0676
   573.00         112.9581
   573.14         112.7553
   573.28         112.4685
   573.42         112.1153
   573.56         111.7183
   573.70         111.3090
   573.84         110.9237
   573.98         110.5966
   574.12         110.3559
   574.26         110.2177
   574.40         110.1874
   574.54         110.2643
   574.68         110.4352
   574.82         110.6737
   574.96         110.9443
   575.10         111.2089
   575.24         111.4310
   575.38         111.5794
   575.52         111.6348
   575.66         111.5953
   575.80         111.4740
   575.94         111.2883
   576.08         111.0522
   576.22         110.7827
   576.36         110.5007
   576.50         110.2196
   576.64         109.9326
   576.78         109.6119
   576.92         109.2196
   577.06         108.7249
   577.20         108.1126
   577.34         107.3903
   577.48         106.5966
   577.62         105.7923
   577.76         105.0417
   577.90         104.4012
   578.04         103.9180
   578.18         103.6287
   578.32         103.5507
   578.46         103.6745
   578.60         103.9609
   578.74         104.3518
   578.88         104.7850
   579.02         105.2035
   579.16         105.5631
   579.30         105.8361
   579.44         106.0115
   579.58         106.0994
   579.72         106.1351
   579.86         106.1611
   580.00         106.2086
   580.14         106.2937
   580.28         106.4144
   580.42         106.5530
   580.56         106.6867
   580.70         106.7928
   580.84         106.8575
   580.98         106.8823
   581.12         106.8792
   581.26         106.8648
   581.40         106.8564
   581.54         106.8692
   581.68         106.9130
   581.82         106.9941
   581.96         107.1105
   582.10         107.2482
   582.24         107.3917
   582.38         107.5287
   582.52         107.6430
   582.66         107.7162
   582.80         107.7366
   582.94         107.7013
   583.08         107.6138
   583.22         107.4789
   583.36         107.2996
   583.50         107.0805
   583.64         106.8226
   583.78         106.5199
   583.92         106.1685
   584.06         105.7779
   584.20         105.3684
   584.34         104.9620
   584.48         104.5828
   584.62         104.2547
   584.76         103.9962
   584.90         103.8239
   585.04         103.7481
   585.18         103.7589
   585.32         103.8340
   585.46         103.9549
   585.60         104.1068
   585.74         104.2746
   585.88         104.4382
   586.02         104.5634
   586.16         104.5944
   586.30         104.4601
   586.44         104.0982
   586.58         103.4850
   586.72         102.6489
   586.86         101.6559
   587.00         100.5887
   587.14         99.5352
   587.28         98.5760
   587.42         97.7709
   587.56         97.1417
   587.70         96.6498
   587.84         96.2162
   587.98         95.7881
   588.12         95.3520
   588.26         94.8830
   588.40         94.3268
   588.54         93.6369
   588.68         92.8113
   588.82         91.9056
   588.96         91.0294
   589.10         90.3214
   589.24         89.9157
   589.38         89.9087
   589.52         90.3366
   589.66         91.1733
   589.80         92.3446
   589.94         93.7467
   590.08         95.2587
   590.22         96.7576
   590.36         98.1416
   590.50         99.3569
   590.64         100.3869
   590.78         101.2047
   590.92         101.7684
   591.06         102.0721
   591.20         102.1621
   591.34         102.0971
   591.48         101.9221
   591.62         101.6748
   591.76         101.3901
   591.90         101.0961
   592.04         100.8103
   592.18         100.5423
   592.32         100.3034
   592.46         100.1100
   592.60         99.9771
   592.74         99.9079
   592.88         99.8925
   593.02         99.9071
   593.16         99.9205
   593.30         99.9061
   593.44         99.8410
   593.58         99.7088
   593.72         99.5060
   593.86         99.2391
   594.00         98.9224
   594.14         98.5813
   594.28         98.2459
   594.42         97.9392
   594.56         97.6758
   594.70         97.4695
   594.84         97.3335
   594.98         97.2754
   595.12         97.2875
   595.26         97.3465
   595.40         97.4227
   595.54         97.4861
   595.68         97.5117
   595.82         97.4893
   595.96         97.4222
   596.10         97.3099
   596.24         97.1510
   596.38         96.9517
   596.52         96.7179
   596.66         96.4515
   596.80         96.1591
   596.94         95.8559
   597.08         95.5614
   597.22         95.2883
   597.36         95.0383
   597.50         94.8103
   597.64         94.6021
   597.78         94.4061
   597.92         94.2185
   598.06         94.0428
   598.20         93.8869
   598.34         93.7659
   598.48         93.6980
   598.62         93.6866
   598.76         93.7159
   598.90         93.7760
   599.04         93.8675
   599.18         93.9836
   599.32         94.1096
   599.46         94.2284
   599.60         94.3204
   599.74         94.3613
   599.88         94.3228
   600.02         94.1880
   600.16         93.9607
   600.30         93.6579
   600.44         93.3094
   600.58         92.9537
   600.72         92.6264
   600.86         92.3550
   601.00         92.1602
   601.14         92.0507
   601.28         92.0180
   601.42         92.0467
   601.56         92.1193
   601.70         92.2079
   601.84         92.2836
   601.98         92.3259
   602.12         92.3160
   602.26         92.2419
   602.40         92.1043
   602.54         91.9053
   602.68         91.6508
   602.82         91.3595
   602.96         91.0607
   603.10         90.7839
   603.24         90.5550
   603.38         90.3951
   603.52         90.3183
   603.66         90.3321
   603.80         90.4286
   603.94         90.5846
   604.08         90.7723
   604.22         90.9659
   604.36         91.1446
   604.50         91.2937
   604.64         91.3991
   604.78         91.4508
   604.92         91.4514
   605.06         91.4096
   605.20         91.3327
   605.34         91.2338
   605.48         91.1281
   605.62         91.0219
   605.76         90.9141
   605.90         90.8084
   606.04         90.7113
   606.18         90.6247
   606.32         90.5459
   606.46         90.4709
   606.60         90.4009
   606.74         90.3409
   606.88         90.2928
   607.02         90.2542
   607.16         90.2214
   607.30         90.1920
   607.44         90.1630
   607.58         90.1296
   607.72         90.0870
   607.86         90.0314
   608.00         89.9603
   608.14         89.8761
   608.28         89.7882
   608.42         89.7072
   608.56         89.6371
   608.70         89.5739
   608.84         89.5109
   608.98         89.4445
   609.12         89.3747
   609.26         89.2999
   609.40         89.2184
   609.54         89.1321
   609.68         89.0491
   609.82         88.9781
   609.96         88.9212
   610.10         88.8764
   610.24         88.8424
   610.38         88.8168
   610.52         88.7936
   610.66         88.7658
   610.80         88.7295
   610.94         88.6831
   611.08         88.6232
   611.22         88.5453
   611.36         88.4482
   611.50         88.3364
   611.64         88.2168
   611.78         88.0945
   611.92         87.9720
   612.06         87.8533
   612.20         87.7449
   612.34         87.6497
   612.48         87.5622
   612.62         87.4763
   612.76         87.3931
   612.90         87.3170
   613.04         87.2491
   613.18         87.1890
   613.32         87.1364
   613.46         87.0903
   613.60         87.0467
   613.74         86.9980
   613.88         86.9390
   614.02         86.8715
   614.16         86.8024
   614.30         86.7394
   614.44         86.6873
   614.58         86.6459
   614.72         86.6116
   614.86         86.5760
   615.00         86.5310
   615.14         86.4728
   615.28         86.4013
   615.42         86.3139
   615.56         86.2029
   615.70         86.0603
   615.84         85.8809
   615.98         85.6624
   616.12         85.4065
   616.26         85.1196
   616.40         84.8135
   616.54         84.5049
   616.68         84.2131
   616.82         83.9535
   616.96         83.7330
   617.10         83.5519
   617.24         83.4081
   617.38         83.2988
   617.52         83.2198
   617.66         83.1665
   617.80         83.1353
   617.94         83.1258
   618.08         83.1384
   618.22         83.1706
   618.36         83.2165
   618.50         83.2679
   618.64         83.3192
   618.78         83.3678
   618.92         83.4089
   619.06         83.4336
   619.20         83.4318
   619.34         83.3951
   619.48         83.3197
   619.62         83.2109
   619.76         83.0851
   619.90         82.9654
   620.04         82.8721
   620.18         82.8219
   620.32         82.8282
   620.46         82.8984
   620.60         83.0296
   620.74         83.2072
   620.88         83.4084
   621.02         83.6120
   621.16         83.8046
   621.30         83.9739
   621.44         84.1040
   621.58         84.1814
   621.72         84.2024
   621.86         84.1724
   622.00         84.0991
   622.14         83.9895
   622.28         83.8502
   622.42         83.6897
   622.56         83.5152
   622.70         83.3311
   622.84         83.1451
   622.98         82.9692
   623.12         82.8167
   623.26         82.7003
   623.40         82.6290
   623.54         82.6079
   623.68         82.6403
   623.82         82.7244
   623.96         82.8479
   624.10         82.9911
   624.24         83.1335
   624.38         83.2549
   624.52         83.3383
   624.66         83.3736
   624.80         83.3625
   624.94         83.3119
   625.08         83.2156
   625.22         83.0493
   625.36         82.7931
   625.50         82.4487
   625.64         82.0347
   625.78         81.5752
   625.92         81.0913
   626.06         80.6041
   626.20         80.1385
   626.34         79.7156
   626.48         79.3438
   626.62         79.0138
   626.76         78.7077
   626.90         78.4067
   627.04         78.0893
   627.18         77.7293
   627.32         77.3017
   627.46         76.7947
   627.60         76.2167
   627.74         75.5974
   627.88         74.9911
   628.02         74.4723
   628.16         74.1118
   628.30         73.9569
   628.44         74.0255
   628.58         74.3103
   628.72         74.7877
   628.86         75.4176
   629.00         76.1430
   629.14         76.8972
   629.28         77.6129
   629.42         78.2346
   629.56         78.7197
   629.70         79.0416
   629.84         79.1980
   629.98         79.2121
   630.12         79.1234
   630.26         78.9723
   630.40         78.7878
   630.54         78.5898
   630.68         78.3952
   630.82         78.2170
   630.96         78.0635
   631.10         77.9379
   631.24         77.8411
   631.38         77.7758
   631.52         77.7459
   631.66         77.7523
   631.80         77.7892
   631.94         77.8464
   632.08         77.9154
   632.22         77.9913
   632.36         78.0732
   632.50         78.1636
   632.64         78.2657
   632.78         78.3791
   632.92         78.4982
   633.06         78.6150
   633.20         78.7233
   633.34         78.8172
   633.48         78.8908
   633.62         78.9401
   633.76         78.9605
   633.90         78.9491
   634.04         78.9056
   634.18         78.8295
   634.32         78.7196
   634.46         78.5757
   634.60         78.4012
   634.74         78.2042
   634.88         77.9958
   635.02         77.7886
   635.16         77.5938
   635.30         77.4188
   635.44         77.2653
   635.58         77.1319
   635.72         77.0187
   635.86         76.9262
   636.00         76.8534
   636.14         76.7975
   636.28         76.7531
   636.42         76.7120
   636.56         76.6665
   636.70         76.6087
   636.84         76.5308
   636.98         76.4280
   637.12         76.3018
   637.26         76.1612
   637.40         76.0176
   637.54         75.8809
   637.68         75.7611
   637.82         75.6685
   637.96         75.6112
   638.10         75.5922
   638.24         75.6088
   638.38         75.6556
   638.52         75.7261
   638.66         75.8124
   638.80         75.9034
   638.94         75.9883
   639.08         76.0607
   639.22         76.1185
   639.36         76.1600
   639.50         76.1846
   639.64         76.1959
   639.78         76.1976
   639.92         76.1888
   640.06         76.1629
   640.20         76.1147
   640.34         76.0442
   640.48         75.9547
   640.62         75.8493
   640.76         75.7309
   640.90         75.6047
   641.04         75.4808
   641.18         75.3702
   641.32         75.2806
   641.46         75.2163
   641.60         75.1807
   641.74         75.1749
   641.88         75.1924
   642.02         75.2207
   642.16         75.2485
   642.30         75.2681
   642.44         75.2736
   642.58         75.2610
   642.72         75.2289
   642.86         75.1785
   643.00         75.1119
   643.14         75.0324
   643.28         74.9447
   643.42         74.8546
   643.56         74.7669
   643.70         74.6835
   643.84         74.6015
   643.98         74.5169
   644.12         74.4296
   644.26         74.3412
   644.40         74.2516
   644.54         74.1591
   644.68         74.0634
   644.82         73.9663
   644.96         73.8695
   645.10         73.7716
   645.24         73.6664
   645.38         73.5461
   645.52         73.4053
   645.66         73.2465
   645.80         73.0798
   645.94         72.9161
   646.08         72.7614
   646.22         72.6170
   646.36         72.4802
   646.50         72.3499
   646.64         72.2303
   646.78         72.1269
   646.92         72.0427
   647.06         71.9805
   647.20         71.9444
   647.34         71.9381
   647.48         71.9633
   647.62         72.0172
   647.76         72.0930
   647.90         72.1792
   648.04         72.2598
   648.18         72.3208
   648.32         72.3550
   648.46         72.3600
   648.60         72.3369
   648.74         72.2942
   648.88         72.2457
   649.02         72.2089
   649.16         72.2042
   649.30         72.2486
   649.44         72.3475
   649.58         72.4956
   649.72         72.6814
   649.86         72.8888
   650.00         73.0975
   650.14         73.2845
   650.28         73.4278
   650.42         73.5116
   650.56         73.5283
   650.70         73.4818
   650.84         73.3897
   650.98         73.2754
   651.12         73.1595
   651.26         73.0570
   651.40         72.9780
   651.54         72.9264
   651.68         72.9015
   651.82         72.8974
   651.96         72.9023
   652.10         72.9018
   652.24         72.8846
   652.38         72.8447
   652.52         72.7783
   652.66         72.6848
   652.80         72.5683
   652.94         72.4385
   653.08         72.3093
   653.22         72.1978
   653.36         72.1188
   653.50         72.0786
   653.64         72.0738
   653.78         72.0944
   653.92         72.1278
   654.06         72.1591
   654.20         72.1706
   654.34         72.1452
   654.48         72.0714
   654.62         71.9458
   654.76         71.7757
   654.90         71.5759
   655.04         71.3608
   655.18         71.1398
   655.32         70.9203
   655.46         70.7121
   655.60         70.5251
   655.74         70.3671
   655.88         70.2429
   656.02         70.1549
   656.16         70.1022
   656.30         70.0825
   656.44         70.0946
   656.58         70.1368
   656.72         70.2060
   656.86         70.2967
   657.00         70.4014
   657.14         70.5121
   657.28         70.6228
   657.42         70.7284
   657.56         70.8243
   657.70         70.9066
   657.84         70.9747
   657.98         71.0329
   658.12         71.0876
   658.26         71.1411
   658.40         71.1919
   658.54         71.2365
   658.68         71.2719
   658.82         71.2969
   658.96         71.3146
   659.10         71.3312
   659.24         71.3513
   659.38         71.3766
   659.52         71.4070
   659.66         71.4430
   659.80         71.4840
   659.94         71.5211
   660.08         71.5351
   660.22         71.5039
   660.36         71.4142
   660.50         71.2631
   660.64         71.0559
   660.78         70.8044
   660.92         70.5247
   661.06         70.2364
   661.20         69.9620
   661.34         69.7232
   661.48         69.5372
   661.62         69.4136
   661.76         69.3520
   661.90         69.3441
   662.04         69.3765
   662.18         69.4333
   662.32         69.4960
   662.46         69.5457
   662.60         69.5682
   662.74         69.5569
   662.88         69.5131
   663.02         69.4419
   663.16         69.3455
   663.30         69.2238
   663.44         69.0775
   663.58         68.9092
   663.72         68.7248
   663.86         68.5305
   664.00         68.3328
   664.14         68.1387
   664.28         67.9555
   664.42         67.7891
   664.56         67.6422
   664.70         67.5156
   664.84         67.4096
   664.98         67.3234
   665.12         67.2547
   665.26         67.1979
   665.40         67.1464
   665.54         67.0977
   665.68         67.0534
   665.82         67.0130
   665.96         66.9703
   666.10         66.9122
   666.24         66.8163
   666.38         66.6495
   666.52         66.3756
   666.66         65.9741
   666.80         65.4527
   666.94         64.8442
   667.08         64.1971
   667.22         63.5673
   667.36         63.0135
   667.50         62.5909
   667.64         62.3398
   667.78         62.2809
   667.92         62.4167
   668.06         62.7322
   668.20         63.1914
   668.34         63.7400
   668.48         64.3162
   668.62         64.8618
   668.76         65.3253
   668.90         65.6673
   669.04         65.8717
   669.18         65.9527
   669.32         65.9492
   669.46         65.9048
   669.60         65.8523
   669.74         65.8116
   669.88         65.7925
   670.02         65.7970
   670.16         65.8217
   670.30         65.8601
   670.44         65.9050
   670.58         65.9494
   670.72         65.9851
   670.86         66.0054
   671.00         66.0076
   671.14         65.9931
   671.28         65.9631
   671.42         65.9166
   671.56         65.8542
   671.70         65.7776
   671.84         65.6859
   671.98         65.5755
   672.12         65.4453
   672.26         65.2984
   672.40         65.1398
   672.54         64.9743
   672.68         64.8079
   672.82         64.6480
   672.96         64.5005
   673.10         64.3684
   673.24         64.2531
   673.38         64.1570
   673.52         64.0830
   673.66         64.0315
   673.80         63.9978
   673.94         63.9759
   674.08         63.9625
   674.22         63.9552
   674.36         63.9506
   674.50         63.9467
   674.64         63.9459
   674.78         63.9515
   674.92         63.9610
   675.06         63.9661
   675.20         63.9605
   675.34         63.9446
   675.48         63.9237
   675.62         63.9055
   675.76         63.8971
   675.90         63.9036
   676.04         63.9269
   676.18         63.9641
   676.32         64.0083
   676.46         64.0509
   676.60         64.0845
   676.74         64.1024
   676.88         64.0975
   677.02         64.0647
   677.16         64.0024
   677.30         63.9103
   677.44         63.7907
   677.58         63.6494
   677.72         63.4968
   677.86         63.3454
   678.00         63.2055
   678.14         63.0831
   678.28         62.9799
   678.42         62.8934
   678.56         62.8192
   678.70         62.7555
   678.84         62.7037
   678.98         62.6654
   679.12         62.6416
   679.26         62.6335
   679.40         62.6432
   679.54         62.6730
   679.68         62.7231
   679.82         62.7894
   679.96         62.8667
   680.10         62.9495
   680.24         63.0306
   680.38         63.1016
   680.52         63.1553
   680.66         63.1854
   680.80         63.1855
   680.94         63.1496
   681.08         63.0749
   681.22         62.9643
   681.36         62.8251
   681.50         62.6650
   681.64         62.4909
   681.78         62.3114
   681.92         62.1354
   682.06         61.9712
   682.20         61.8255
   682.34         61.7009
   682.48         61.5966
   682.62         61.5111
   682.76         61.4416
   682.90         61.3837
   683.04         61.3318
   683.18         61.2812
   683.32         61.2291
   683.46         61.1741
   683.60         61.1171
   683.74         61.0600
   683.88         61.0048
   684.02         60.9540
   684.16         60.9123
   684.30         60.8847
   684.44         60.8729
   684.58         60.8737
   684.72         60.8816
   684.86         60.8905
   685.00         60.8928
   685.14         60.8799
   685.28         60.8404
   685.42         60.7522
   685.56         60.5749
   685.70         60.2544
   685.84         59.7396
   685.98         58.9976
   686.12         58.0215
   686.26         56.8318
   686.40         55.4764
   686.54         54.0282
   686.68         52.5806
   686.82         51.2384
   686.96         50.1041
   687.10         49.2638
   687.24         48.7762
   687.38         48.6627
   687.52         48.9044
   687.66         49.4429
   687.80         50.1894
   687.94         51.0361
   688.08         51.8709
   688.22         52.5967
   688.36         53.1519
   688.50         53.5184
   688.64         53.7139
   688.78         53.7746
   688.92         53.7436
   689.06         53.6677
   689.20         53.5928
   689.34         53.5571
   689.48         53.5859
   689.62         53.6860
   689.76         53.8469
   689.90         54.0500
   690.04         54.2787
   690.18         54.5209
   690.32         54.7689
   690.46         55.0192
   690.60         55.2696
   690.74         55.5172
   690.88         55.7607
   691.02         55.9981
   691.16         56.2214
   691.30         56.4191
   691.44         56.5804
   691.58         56.6997
   691.72         56.7764
   691.86         56.8124
   692.00         56.8127
   692.14         56.7861
   692.28         56.7435
   692.42         56.6969
   692.56         56.6566
   692.70         56.6266
   692.84         56.6024
   692.98         56.5760
   693.12         56.5401
   693.26         56.4908
   693.40         56.4297
   693.54         56.3615
   693.68         56.2868
   693.82         56.2058
   693.96         56.1232
   694.10         56.0476
   694.24         55.9856
   694.38         55.9392
   694.52         55.9076
   694.66         55.8886
   694.80         55.8798
   694.94         55.8782
   695.08         55.8812
   695.22         55.8892
   695.36         55.9079
   695.50         55.9478
   695.64         56.0215
   695.78         56.1386
   695.92         56.3019
   696.06         56.5054
   696.20         56.7374
   696.34         56.9854
   696.48         57.2365
   696.62         57.4770
   696.76         57.6939
   696.90         57.8757
   697.04         58.0117
   697.18         58.0950
   697.32         58.1261
   697.46         58.1122
   697.60         58.0606
   697.74         57.9774
   697.88         57.8680
   698.02         57.7356
   698.16         57.5796
   698.30         57.4000
   698.44         57.2030
   698.58         57.0001
   698.72         56.8035
   698.86         56.6252
   699.00         56.4759
   699.14         56.3602
   699.28         56.2773
   699.42         56.2240
   699.56         56.1956
   699.70         56.1857
   699.84         56.1880
   699.98         56.1963
   700.12         56.2032
   700.26         56.2001
   700.40         56.1805
   700.54         56.1427
   700.68         56.0898
   700.82         56.0271
   700.96         55.9602
   701.10         55.8926
   701.24         55.8226
   701.38         55.7469
   701.52         55.6636
   701.66         55.5697
   701.80         55.4618
   701.94         55.3417
   702.08         55.2189
   702.22         55.1064
   702.36         55.0151
   702.50         54.9544
   702.64         54.9306
   702.78         54.9450
   702.92         54.9939
   703.06         55.0694
   703.20         55.1619
   703.34         55.2615
   703.48         55.3558
   703.62         55.4323
   703.76         55.4832
   703.90         55.5026
   704.04         55.4857
   704.18         55.4306
   704.32         55.3401
   704.46         55.2204
   704.60         55.0797
   704.74         54.9261
   704.88         54.7629
   705.02         54.5834
   705.16         54.3704
   705.30         54.1037
   705.44         53.7730
   705.58         53.3851
   705.72         52.9622
   705.86         52.5362
   706.00         52.1415
   706.14         51.8099
   706.28         51.5676
   706.42         51.4340
   706.56         51.4172
   706.70         51.5142
   706.84         51.7129
   706.98         51.9953
   707.12         52.3390
   707.26         52.7186
   707.40         53.1032
   707.54         53.4580
   707.68         53.7531
   707.82         53.9716
   707.96         54.1156
   708.10         54.2028
   708.24         54.2539
   708.38         54.2814
   708.52         54.2902
   708.66         54.2849
   708.80         54.2716
   708.94         54.2553
   709.08         54.2396
   709.22         54.2292
   709.36         54.2290
   709.50         54.2424
   709.64         54.2695
   709.78         54.3057
   709.92         54.3443
   710.06         54.3784
   710.20         54.4026
   710.34         54.4153
   710.48         54.4198
   710.62         54.4242
   710.76         54.4404
   710.90         54.4790
   711.04         54.5457
   711.18         54.6425
   711.32         54.7676
   711.46         54.9120
   711.60         55.0628
   711.74         55.2108
   711.88         55.3486
   712.02         55.4683
   712.16         55.5629
   712.30         55.6285
   712.44         55.6641
   712.58         55.6693
   712.72         55.6416
   712.86         55.5800
   713.00         55.4882
   713.14         55.3718
   713.28         55.2357
   713.42         55.0864
   713.56         54.9299
   713.70         54.7708
   713.84         54.6126
   713.98         54.4593
   714.12         54.3172
   714.26         54.1952
   714.40         54.1012
   714.54         54.0372
   714.68         53.9999
   714.82         53.9846
   714.96         53.9829
   715.10         53.9830
   715.24         53.9721
   715.38         53.9389
   715.52         53.8754
   715.66         53.7769
   715.80         53.6371
   715.94         53.4478
   716.08         53.1994
   716.22         52.8836
   716.36         52.4964
   716.50         52.0405
   716.64         51.5300
   716.78         50.9887
   716.92         50.4425
   717.06         49.9137
   717.20         49.4162
   717.34         48.9573
   717.48         48.5424
   717.62         48.1775
   717.76         47.8700
   717.90         47.6256
   718.04         47.4435
   718.18         47.3180
   718.32         47.2416
   718.46         47.2070
   718.60         47.2084
   718.74         47.2423
   718.88         47.3053
   719.02         47.3924
   719.16         47.4969
   719.30         47.6107
   719.44         47.7279
   719.58         47.8485
   719.72         47.9793
   719.86         48.1330
   720.00         48.3295
   720.14         48.5931
   720.28         48.9399
   720.42         49.3703
   720.56         49.8735
   720.70         50.4365
   720.84         51.0454
   720.98         51.6775
   721.12         52.2976
   721.26         52.8650
   721.40         53.3451
   721.54         53.7169
   721.68         53.9728
   721.82         54.1151
   721.96         54.1507
   722.10         54.0885
   722.24         53.9370
   722.38         53.7045
   722.52         53.4032
   722.66         53.0493
   722.80         52.6573
   722.94         52.2370
   723.08         51.7963
   723.22         51.3470
   723.36         50.9064
   723.50         50.4920
   723.64         50.1168
   723.78         49.7918
   723.92         49.5265
   724.06         49.3201
   724.20         49.1610
   724.34         49.0362
   724.48         48.9382
   724.62         48.8641
   724.76         48.8171
   724.90         48.8052
   725.04         48.8320
   725.18         48.8881
   725.32         48.9529
   725.46         49.0049
   725.60         49.0325
   725.74         49.0358
   725.88         49.0215
   726.02         48.9942
   726.16         48.9474
   726.30         48.8644
   726.44         48.7263
   726.58         48.5194
   726.72         48.2418
   726.86         47.9075
   727.00         47.5431
   727.14         47.1782
   727.28         46.8387
   727.42         46.5462
   727.56         46.3151
   727.70         46.1497
   727.84         46.0474
   727.98         46.0059
   728.12         46.0228
   728.26         46.0925
   728.40         46.2035
   728.54         46.3402
   728.68         46.4860
   728.82         46.6269
   728.96         46.7512
   729.10         46.8498
   729.24         46.9192
   729.38         46.9651
   729.52         47.0007
   729.66         47.0409
   729.80         47.0920
   729.94         47.1493
   730.08         47.2020
   730.22         47.2384
   730.36         47.2489
   730.50         47.2306
   730.64         47.1885
   730.78         47.1344
   730.92         47.0831
   731.06         47.0492
   731.20         47.0438
   731.34         47.0714
   731.48         47.1296
   731.62         47.2104
   731.76         47.3053
   731.90         47.4090
   732.04         47.5152
   732.18         47.6122
   732.32         47.6847
   732.46         47.7193
   732.60         47.7115
   732.74         47.6632
   732.88         47.5796
   733.02         47.4699
   733.16         47.3460
   733.30         47.2197
   733.44         47.1015
   733.58         46.9991
   733.72         46.9169
   733.86         46.8545
   734.00         46.8055
   734.14         46.7631
   734.28         46.7251
   734.42         46.6932
   734.56         46.6688
   734.70         46.6515
   734.84         46.6386
   734.98         46.6266
   735.12         46.6126
   735.26         46.5936
   735.40         46.5647
   735.54         46.5225
   735.68         46.4668
   735.82         46.3980
   735.96         46.3161
   736.10         46.2239
   736.24         46.1278
   736.38         46.0351
   736.52         45.9527
   736.66         45.8843
   736.80         45.8327
   736.94         45.7985
   737.08         45.7774
   737.22         45.7634
   737.36         45.7520
   737.50         45.7398
   737.64         45.7251
   737.78         45.7089
   737.92         45.6903
   738.06         45.6646
   738.20         45.6304
   738.34         45.5905
   738.48         45.5468
   738.62         45.4991
   738.76         45.4476
   738.90         45.3938
   739.04         45.3408
   739.18         45.2919
   739.32         45.2492
   739.46         45.2137
   739.60         45.1851
   739.74         45.1627
   739.88         45.1465
   740.02         45.1355
   740.16         45.1273
   740.30         45.1199
   740.44         45.1111
   740.58         45.0988
   740.72         45.0827
   740.86         45.0635
   741.00         45.0394
   741.14         45.0046
   741.28         44.9552
   741.42         44.8917
   741.56         44.8194
   741.70         44.7458
   741.84         44.6747
   741.98         44.6065
   742.12         44.5420
   742.26         44.4840
   742.40         44.4361
   742.54         44.4007
   742.68         44.3784
   742.82         44.3682
   742.96         44.3682
   743.10         44.3784
   743.24         44.4007
   743.38         44.4361
   743.52         44.4840
   743.66         44.5420
   743.80         44.6065
   743.94         44.6747
   744.08         44.7458
   744.22         44.8194
