# File HD17145
# Wavelength [nm]    Normalized Amplitude
   349.70         468.6011
   349.84         469.3110
   349.98         470.0238
   350.12         470.6930
   350.26         471.3388
   350.40         471.9806
   350.54         472.6255
   350.68         473.2667
   350.82         473.8419
   350.96         474.2434
   351.10         474.3869
   351.24         474.2434
   351.38         473.8419
   351.52         473.2667
   351.66         472.6255
   351.80         471.9806
   351.94         471.3388
   352.08         470.6930
   352.22         470.0238
   352.36         469.3110
   352.50         468.6011
   352.64         468.0028
   352.78         467.5739
   352.92         467.2674
   353.06         466.9850
   353.20         466.6357
   353.34         466.1711
   353.48         465.6104
   353.62         465.0505
   353.76         464.6114
   353.90         464.3743
   354.04         464.3489
   354.18         464.4367
   354.32         464.5053
   354.46         464.4825
   354.60         464.3066
   354.74         463.9112
   354.88         463.2830
   355.02         462.4472
   355.16         461.4338
   355.30         460.2680
   355.44         458.9419
   355.58         457.4123
   355.72         455.6808
   355.86         453.8579
   356.00         452.1402
   356.14         450.6785
   356.28         449.5042
   356.42         448.5791
   356.56         447.7816
   356.70         446.9189
   356.84         445.8490
   356.98         444.5631
   357.12         443.1146
   357.26         441.5475
   357.40         439.9371
   357.54         438.3953
   357.68         437.0425
   357.82         435.9952
   357.96         435.3397
   358.10         435.1264
   358.24         435.4127
   358.38         436.2681
   358.52         437.7172
   358.66         439.6947
   358.80         442.0162
   358.94         444.4461
   359.08         446.8071
   359.22         449.0046
   359.36         451.0033
   359.50         452.7862
   359.64         454.3317
   359.78         455.6034
   359.92         456.5610
   360.06         457.1770
   360.20         457.4351
   360.34         457.3664
   360.48         457.0488
   360.62         456.5775
   360.76         456.0550
   360.90         455.5751
   361.04         455.2347
   361.18         455.1277
   361.32         455.2784
   361.46         455.6222
   361.60         456.0866
   361.74         456.6502
   361.88         457.3040
   362.02         458.0035
   362.16         458.6594
   362.30         459.1618
   362.44         459.4152
   362.58         459.3661
   362.72         459.0480
   362.86         458.6118
   363.00         458.2357
   363.14         458.0152
   363.28         457.9911
   363.42         458.1820
   363.56         458.5543
   363.70         458.9842
   363.84         459.2710
   363.98         459.2482
   364.12         458.8447
   364.26         458.0485
   364.40         456.8594
   364.54         455.2752
   364.68         453.3564
   364.82         451.2613
   364.96         449.2089
   365.10         447.4096
   365.24         446.0044
   365.38         445.0578
   365.52         444.5681
   365.66         444.4721
   365.80         444.6793
   365.94         445.0831
   366.08         445.5593
   366.22         446.0214
   366.36         446.4537
   366.50         446.9145
   366.64         447.5308
   366.78         448.4064
   366.92         449.5731
   367.06         451.0544
   367.20         452.8806
   367.34         455.0809
   367.48         457.5628
   367.62         460.0877
   367.76         462.4289
   367.90         464.4287
   368.04         466.0134
   368.18         467.2109
   368.32         468.0588
   368.46         468.5231
   368.60         468.6409
   368.74         468.6379
   368.88         468.8135
   369.02         469.3377
   369.16         470.1701
   369.30         471.1989
   369.44         472.3854
   369.58         473.7968
   369.72         475.5452
   369.86         477.6382
   370.00         479.9609
   370.14         482.3802
   370.28         484.9068
   370.42         487.7250
   370.56         491.0464
   370.70         494.9931
   370.84         499.4994
   370.98         504.2757
   371.12         508.9653
   371.26         513.3629
   371.40         517.4424
   371.54         521.2553
   371.68         524.8695
   371.82         528.3891
   371.96         531.9176
   372.10         535.3520
   372.24         538.2614
   372.38         540.1298
   372.52         540.7001
   372.66         540.1250
   372.80         538.9274
   372.94         537.7809
   373.08         537.2878
   373.22         537.8339
   373.36         539.5296
   373.50         542.2597
   373.64         545.7196
   373.78         549.4475
   373.92         552.9577
   374.06         555.8726
   374.20         557.9090
   374.34         558.8712
   374.48         558.7354
   374.62         557.6964
   374.76         556.1876
   374.90         554.9089
   375.04         554.7643
   375.18         556.5571
   375.32         560.6445
   375.46         566.8191
   375.60         574.3121
   375.74         581.8942
   375.88         588.1170
   376.02         591.6822
   376.16         591.7977
   376.30         588.3740
   376.44         582.0772
   376.58         574.2137
   376.72         566.3903
   376.86         560.0669
   377.00         556.3142
   377.14         555.7849
   377.28         558.6939
   377.42         564.8232
   377.56         573.6265
   377.70         584.3255
   377.84         595.9328
   377.98         607.3214
   378.12         617.3587
   378.26         625.0243
   378.40         629.4700
   378.54         630.0824
   378.68         626.6698
   378.82         619.6189
   378.96         609.8102
   379.10         598.3908
   379.24         586.5917
   379.38         575.5953
   379.52         566.4084
   379.66         559.8191
   379.80         556.4070
   379.94         556.4765
   380.08         560.0058
   380.22         566.7006
   380.36         576.0214
   380.50         587.1596
   380.64         599.0804
   380.78         610.6474
   380.92         620.8258
   381.06         628.9135
   381.20         634.6952
   381.34         638.4601
   381.48         640.7729
   381.62         642.1150
   381.76         642.7243
   381.90         642.6024
   382.04         641.5217
   382.18         639.0501
   382.32         634.6729
   382.46         628.0290
   382.60         619.1075
   382.74         608.3263
   382.88         596.4854
   383.02         584.5625
   383.16         573.5340
   383.30         564.3402
   383.44         557.8768
   383.58         554.8769
   383.72         555.6993
   383.86         560.1930
   384.00         567.7823
   384.14         577.6258
   384.28         588.6840
   384.42         599.8134
   384.56         609.9204
   384.70         618.1092
   384.84         623.8196
   384.98         626.9351
   385.12         627.7825
   385.26         626.9597
   385.40         625.0866
   385.54         622.6432
   385.68         619.9900
   385.82         617.4363
   385.96         615.2110
   386.10         613.4136
   386.24         612.0042
   386.38         610.8601
   386.52         609.8859
   386.66         609.0540
   386.80         608.3522
   386.94         607.7225
   387.08         607.0657
   387.22         606.2356
   387.36         604.9642
   387.50         602.8236
   387.64         599.3037
   387.78         594.0014
   387.92         586.7924
   388.06         577.8811
   388.20         567.7799
   388.34         557.2492
   388.48         547.1926
   388.62         538.5334
   388.76         532.1169
   388.90         528.6099
   389.04         528.4323
   389.18         531.7167
   389.32         538.2523
   389.46         547.4783
   389.60         558.5477
   389.74         570.4305
   389.88         582.0287
   390.02         592.3285
   390.16         600.5748
   390.30         606.4327
   390.44         610.0020
   390.58         611.6282
   390.72         611.7308
   390.86         610.7142
   391.00         608.9295
   391.14         606.6775
   391.28         604.1707
   391.42         601.5285
   391.56         598.8412
   391.70         596.2184
   391.84         593.7181
   391.98         591.2314
   392.12         588.5016
   392.26         585.2786
   392.40         581.4810
   392.54         577.2356
   392.68         572.8242
   392.82         568.6130
   392.96         564.9877
   393.10         562.2604
   393.24         560.6561
   393.38         560.3211
   393.52         561.2905
   393.66         563.4984
   393.80         566.7766
   393.94         570.8573
   394.08         575.3876
   394.22         579.9397
   394.36         584.0696
   394.50         587.3759
   394.64         589.6043
   394.78         590.7771
   394.92         591.1488
   395.06         591.0049
   395.20         590.4404
   395.34         589.2936
   395.48         587.1329
   395.62         583.2824
   395.76         577.0461
   395.90         568.0180
   396.04         556.3092
   396.18         542.5740
   396.32         527.8431
   396.46         513.3334
   396.60         500.3191
   396.74         489.9798
   396.88         483.2451
   397.02         480.7065
   397.16         482.5327
   397.30         488.4458
   397.44         497.7510
   397.58         509.3905
   397.72         522.1021
   397.86         534.6291
   398.00         545.8860
   398.14         555.0384
   398.28         561.6376
   398.42         565.7416
   398.56         567.8210
   398.70         568.5146
   398.84         568.3782
   398.98         567.7783
   399.12         566.9568
   399.26         566.0700
   399.40         565.1514
   399.54         564.1250
   399.68         562.9011
   399.82         561.4647
   399.96         559.8830
   400.10         558.2532
   400.24         556.6677
   400.38         555.1964
   400.52         553.8797
   400.66         552.7230
   400.80         551.7075
   400.94         550.8253
   401.08         550.0611
   401.22         549.3423
   401.36         548.5393
   401.50         547.5083
   401.64         546.1422
   401.78         544.4221
   401.92         542.4151
   402.06         540.2491
   402.20         538.1148
   402.34         536.2344
   402.48         534.7978
   402.62         533.9290
   402.76         533.6933
   402.90         534.0906
   403.04         535.0431
   403.18         536.4478
   403.32         538.1987
   403.46         540.1402
   403.60         542.0657
   403.74         543.7697
   403.88         545.1336
   404.02         546.1550
   404.16         546.8918
   404.30         547.4184
   404.44         547.7911
   404.58         548.0243
   404.72         548.0986
   404.86         547.9915
   405.00         547.6850
   405.14         547.1585
   405.28         546.4092
   405.42         545.4412
   405.56         544.2565
   405.70         542.8855
   405.84         541.3886
   405.98         539.8057
   406.12         538.1442
   406.26         536.4191
   406.40         534.6518
   406.54         532.8476
   406.68         530.9969
   406.82         529.1282
   406.96         527.3360
   407.10         525.7120
   407.24         524.2924
   407.38         523.0711
   407.52         522.0290
   407.66         521.1373
   407.80         520.3555
   407.94         519.6409
   408.08         518.9360
   408.22         518.1608
   408.36         517.1961
   408.50         515.8459
   408.64         513.8218
   408.78         510.7338
   408.92         506.1507
   409.06         499.7914
   409.20         491.7248
   409.34         482.4150
   409.48         472.5955
   409.62         463.0926
   409.76         454.7186
   409.90         448.2219
   410.04         444.1974
   410.18         443.0054
   410.32         444.7185
   410.46         449.1017
   410.60         455.6771
   410.74         463.7882
   410.88         472.6350
   411.02         481.3483
   411.16         489.1191
   411.30         495.3127
   411.44         499.5496
   411.58         501.8040
   411.72         502.4033
   411.86         501.8526
   412.00         500.6296
   412.14         499.0893
   412.28         497.4607
   412.42         495.8912
   412.56         494.4812
   412.70         493.3045
   412.84         492.4208
   412.98         491.8388
   413.12         491.5114
   413.26         491.3757
   413.40         491.3657
   413.54         491.4300
   413.68         491.5499
   413.82         491.7288
   413.96         491.9506
   414.10         492.1653
   414.24         492.3369
   414.38         492.4706
   414.52         492.6020
   414.66         492.7677
   414.80         492.9817
   414.94         493.2260
   415.08         493.4654
   415.22         493.6675
   415.36         493.7901
   415.50         493.7678
   415.64         493.5683
   415.78         493.2300
   415.92         492.8226
   416.06         492.4136
   416.20         492.0318
   416.34         491.6575
   416.48         491.2474
   416.62         490.7568
   416.76         490.1677
   416.90         489.5095
   417.04         488.8299
   417.18         488.1615
   417.32         487.5209
   417.46         486.9262
   417.60         486.3972
   417.74         485.9370
   417.88         485.5346
   418.02         485.1638
   418.16         484.8186
   418.30         484.5291
   418.44         484.2986
   418.58         484.1128
   418.72         483.9801
   418.86         483.9162
   419.00         483.9306
   419.14         484.0329
   419.28         484.2262
   419.42         484.4881
   419.56         484.7595
   419.70         484.9538
   419.84         484.9919
   419.98         484.8189
   420.12         484.3993
   420.26         483.7187
   420.40         482.8025
   420.54         481.7248
   420.68         480.5877
   420.82         479.4997
   420.96         478.5415
   421.10         477.7629
   421.24         477.2135
   421.38         476.9064
   421.52         476.7974
   421.66         476.8161
   421.80         476.8845
   421.94         476.9051
   422.08         476.7721
   422.22         476.4110
   422.36         475.8078
   422.50         475.0064
   422.64         474.0932
   422.78         473.1755
   422.92         472.3499
   423.06         471.6869
   423.20         471.2269
   423.34         470.9710
   423.48         470.8901
   423.62         470.9422
   423.76         471.0935
   423.90         471.3132
   424.04         471.5548
   424.18         471.7762
   424.32         471.9544
   424.46         472.0634
   424.60         472.0741
   424.74         471.9753
   424.88         471.7755
   425.02         471.4987
   425.16         471.1621
   425.30         470.7531
   425.44         470.2149
   425.58         469.4676
   425.72         468.4544
   425.86         467.1544
   426.00         465.5784
   426.14         463.7845
   426.28         461.8801
   426.42         459.9913
   426.56         458.2294
   426.70         456.6771
   426.84         455.4000
   426.98         454.4426
   427.12         453.8205
   427.26         453.5316
   427.40         453.5462
   427.54         453.8076
   427.68         454.2590
   427.82         454.8411
   427.96         455.4664
   428.10         456.0282
   428.24         456.4534
   428.38         456.7167
   428.52         456.8198
   428.66         456.7871
   428.80         456.6581
   428.94         456.4597
   429.08         456.2239
   429.22         456.0054
   429.36         455.8511
   429.50         455.7891
   429.64         455.8228
   429.78         455.9306
   429.92         456.0853
   430.06         456.2679
   430.20         456.4782
   430.34         456.7223
   430.48         456.9829
   430.62         457.2158
   430.76         457.3933
   430.90         457.5250
   431.04         457.6417
   431.18         457.7945
   431.32         458.0259
   431.46         458.3409
   431.60         458.7253
   431.74         459.1740
   431.88         459.6674
   432.02         460.1427
   432.16         460.5088
   432.30         460.6445
   432.44         460.3664
   432.58         459.3935
   432.72         457.3331
   432.86         453.7550
   433.00         448.3797
   433.14         441.2461
   433.28         432.7354
   433.42         423.4814
   433.56         414.2361
   433.70         405.7735
   433.84         398.8139
   433.98         393.9318
   434.12         391.5171
   434.26         391.7631
   434.40         394.6306
   434.54         399.8276
   434.68         406.8290
   434.82         414.9324
   434.96         423.3574
   435.10         431.3471
   435.24         438.2769
   435.38         443.7646
   435.52         447.7394
   435.66         450.4100
   435.80         452.0972
   435.94         453.0605
   436.08         453.4582
   436.22         453.3958
   436.36         452.9848
   436.50         452.3504
   436.64         451.5944
   436.78         450.7929
   436.92         450.0048
   437.06         449.2478
   437.20         448.4671
   437.34         447.5456
   437.48         446.3557
   437.62         444.8006
   437.76         442.8375
   437.90         440.4891
   438.04         437.8433
   438.18         435.0428
   438.32         432.2718
   438.46         429.7442
   438.60         427.6713
   438.74         426.2238
   438.88         425.5069
   439.02         425.5433
   439.16         426.2812
   439.30         427.6031
   439.44         429.3395
   439.58         431.2884
   439.72         433.2074
   439.86         434.8293
   440.00         435.9466
   440.14         436.4679
   440.28         436.4126
   440.42         435.8666
   440.56         434.9147
   440.70         433.6132
   440.84         431.9959
   440.98         430.0790
   441.12         427.8744
   441.26         425.3845
   441.40         422.6083
   441.54         419.5817
   441.68         416.3893
   441.82         413.1416
   441.96         409.9352
   442.10         406.8545
   442.24         403.9911
   442.38         401.4135
   442.52         399.1693
   442.66         397.3187
   442.80         395.9212
   442.94         395.0047
   443.08         394.5527
   443.22         394.5306
   443.36         394.9116
   443.50         395.6707
   443.64         396.7777
   443.78         398.2002
   443.92         399.8959
   444.06         401.8033
   444.20         403.8501
   444.34         405.9512
   444.48         408.0054
   444.62         409.9079
   444.76         411.5752
   444.90         412.9475
   445.04         413.9898
   445.18         414.7158
   445.32         415.1790
   445.46         415.4448
   445.60         415.5530
   445.74         415.4791
   445.88         415.1373
   446.02         414.4346
   446.16         413.3401
   446.30         411.9086
   446.44         410.2619
   446.58         408.5478
   446.72         406.8759
   446.86         405.3050
   447.00         403.8854
   447.14         402.6862
   447.28         401.7906
   447.42         401.3019
   447.56         401.3161
   447.70         401.8674
   447.84         402.9125
   447.98         404.3316
   448.12         405.9830
   448.26         407.7408
   448.40         409.4907
   448.54         411.1627
   448.68         412.7451
   448.82         414.2365
   448.96         415.5921
   449.10         416.7251
   449.24         417.5431
   449.38         417.9794
   449.52         418.0324
   449.66         417.7872
   449.80         417.3738
   449.94         416.9134
   450.08         416.4903
   450.22         416.1528
   450.36         415.9274
   450.50         415.8280
   450.64         415.8507
   450.78         415.9820
   450.92         416.1723
   451.06         416.3193
   451.20         416.3198
   451.34         416.1062
   451.48         415.6455
   451.62         414.9428
   451.76         414.0573
   451.90         413.0804
   452.04         412.0955
   452.18         411.1800
   452.32         410.4131
   452.46         409.8534
   452.60         409.5253
   452.74         409.4143
   452.88         409.4722
   453.02         409.6163
   453.16         409.7399
   453.30         409.7441
   453.44         409.5551
   453.58         409.1333
   453.72         408.4734
   453.86         407.5961
   454.00         406.5527
   454.14         405.4215
   454.28         404.3006
   454.42         403.2874
   454.56         402.4459
   454.70         401.8171
   454.84         401.4366
   454.98         401.3201
   455.12         401.4578
   455.26         401.8272
   455.40         402.3692
   455.54         402.9857
   455.68         403.5773
   455.82         404.0733
   455.96         404.4339
   456.10         404.6326
   456.24         404.6634
   456.38         404.5554
   456.52         404.3856
   456.66         404.2689
   456.80         404.3014
   456.94         404.5145
   457.08         404.8581
   457.22         405.2267
   457.36         405.5140
   457.50         405.6358
   457.64         405.5270
   457.78         405.1591
   457.92         404.5348
   458.06         403.6609
   458.20         402.5706
   458.34         401.3434
   458.48         400.0716
   458.62         398.8237
   458.76         397.6493
   458.90         396.5980
   459.04         395.7036
   459.18         394.9605
   459.32         394.3309
   459.46         393.7713
   459.60         393.2528
   459.74         392.7728
   459.88         392.3669
   460.02         392.1051
   460.16         392.0394
   460.30         392.1708
   460.44         392.4846
   460.58         392.9563
   460.72         393.5309
   460.86         394.1392
   461.00         394.7054
   461.14         395.1642
   461.28         395.4973
   461.42         395.7174
   461.56         395.8273
   461.70         395.8208
   461.84         395.7050
   461.98         395.5029
   462.12         395.2342
   462.26         394.9077
   462.40         394.5213
   462.54         394.0700
   462.68         393.5692
   462.82         393.0408
   462.96         392.4991
   463.10         391.9668
   463.24         391.4669
   463.38         391.0255
   463.52         390.6683
   463.66         390.4101
   463.80         390.2691
   463.94         390.2368
   464.08         390.2648
   464.22         390.3017
   464.36         390.3278
   464.50         390.3498
   464.64         390.3700
   464.78         390.3930
   464.92         390.4323
   465.06         390.5076
   465.20         390.6475
   465.34         390.8801
   465.48         391.2096
   465.62         391.6153
   465.76         392.0577
   465.90         392.4782
   466.04         392.8165
   466.18         393.0254
   466.32         393.0938
   466.46         393.0431
   466.60         392.9077
   466.74         392.7449
   466.88         392.6163
   467.02         392.5811
   467.16         392.6765
   467.30         392.9188
   467.44         393.3325
   467.58         393.9195
   467.72         394.6457
   467.86         395.4539
   468.00         396.2512
   468.14         396.9140
   468.28         397.3290
   468.42         397.4096
   468.56         397.1204
   468.70         396.4916
   468.84         395.5823
   468.98         394.4703
   469.12         393.2522
   469.26         392.0303
   469.40         390.8922
   469.54         389.9331
   469.68         389.2566
   469.82         388.9144
   469.96         388.8834
   470.10         389.0610
   470.24         389.2876
   470.38         389.4250
   470.52         389.3857
   470.66         389.0976
   470.80         388.5176
   470.94         387.6601
   471.08         386.5701
   471.22         385.3137
   471.36         383.9798
   471.50         382.6690
   471.64         381.4833
   471.78         380.4813
   471.92         379.6766
   472.06         379.0838
   472.20         378.7252
   472.34         378.5761
   472.48         378.5432
   472.62         378.5150
   472.76         378.4262
   472.90         378.2920
   473.04         378.1644
   473.18         378.0690
   473.32         378.0001
   473.46         377.9568
   473.60         377.9558
   473.74         378.0163
   473.88         378.1450
   474.02         378.3326
   474.16         378.5521
   474.30         378.7571
   474.44         378.8959
   474.58         378.9460
   474.72         378.9062
   474.86         378.7716
   475.00         378.5250
   475.14         378.1366
   475.28         377.5964
   475.42         376.9262
   475.56         376.1625
   475.70         375.3436
   475.84         374.5077
   475.98         373.6876
   476.12         372.9004
   476.26         372.1275
   476.40         371.3380
   476.54         370.5245
   476.68         369.7022
   476.82         368.9073
   476.96         368.1935
   477.10         367.6100
   477.24         367.1746
   477.38         366.8694
   477.52         366.6587
   477.66         366.4843
   477.80         366.2880
   477.94         366.0572
   478.08         365.8190
   478.22         365.6093
   478.36         365.4457
   478.50         365.3256
   478.64         365.2434
   478.78         365.2021
   478.92         365.2072
   479.06         365.2664
   479.20         365.3709
   479.34         365.4803
   479.48         365.5358
   479.62         365.4725
   479.76         365.2311
   479.90         364.7708
   480.04         364.0965
   480.18         363.2579
   480.32         362.3284
   480.46         361.4050
   480.60         360.5787
   480.74         359.9021
   480.88         359.3971
   481.02         359.0763
   481.16         358.9537
   481.30         359.0287
   481.44         359.2783
   481.58         359.6477
   481.72         360.0521
   481.86         360.4233
   482.00         360.7642
   482.14         361.1134
   482.28         361.4972
   482.42         361.9407
   482.56         362.4605
   482.70         363.0662
   482.84         363.7427
   482.98         364.4386
   483.12         365.0866
   483.26         365.6032
   483.40         365.9040
   483.54         365.9286
   483.68         365.6283
   483.82         364.9626
   483.96         363.9442
   484.10         362.6323
   484.24         361.0668
   484.38         359.2824
   484.52         357.3331
   484.66         355.2298
   484.80         352.8438
   484.94         349.9698
   485.08         346.4837
   485.22         342.4021
   485.36         337.8818
   485.50         333.1817
   485.64         328.6197
   485.78         324.5297
   485.92         321.2065
   486.06         318.8753
   486.20         317.6814
   486.34         317.6897
   486.48         318.8725
   486.62         321.0723
   486.76         323.9813
   486.90         327.2212
   487.04         330.4530
   487.18         333.3766
   487.32         335.7341
   487.46         337.4020
   487.60         338.4623
   487.74         339.1436
   487.88         339.6887
   488.02         340.2640
   488.16         340.9308
   488.30         341.6605
   488.44         342.3775
   488.58         343.0047
   488.72         343.4839
   488.86         343.7818
   489.00         343.9114
   489.14         343.9098
   489.28         343.8215
   489.42         343.7419
   489.56         343.7883
   489.70         344.0193
   489.84         344.4218
   489.98         344.9742
   490.12         345.6637
   490.26         346.4326
   490.40         347.1863
   490.54         347.8313
   490.68         348.2798
   490.82         348.4543
   490.96         348.2645
   491.10         347.6022
   491.24         346.4025
   491.38         344.6872
   491.52         342.5686
   491.66         340.2334
   491.80         337.8846
   491.94         335.7132
   492.08         333.9030
   492.22         332.6069
   492.36         331.9322
   492.50         331.9408
   492.64         332.6462
   492.78         333.9934
   492.92         335.8569
   493.06         338.0790
   493.20         340.4651
   493.34         342.7751
   493.48         344.7740
   493.62         346.2787
   493.76         347.1960
   493.90         347.5562
   494.04         347.4751
   494.18         347.0841
   494.32         346.5141
   494.46         345.8857
   494.60         345.2768
   494.74         344.7169
   494.88         344.2009
   495.02         343.6987
   495.16         343.1969
   495.30         342.7224
   495.44         342.2990
   495.58         341.9207
   495.72         341.5612
   495.86         341.1820
   496.00         340.7612
   496.14         340.3179
   496.28         339.8784
   496.42         339.4613
   496.56         339.1075
   496.70         338.8528
   496.84         338.6898
   496.98         338.5829
   497.12         338.4733
   497.26         338.2946
   497.40         338.0337
   497.54         337.7384
   497.68         337.4650
   497.82         337.2661
   497.96         337.1838
   498.10         337.2185
   498.24         337.3345
   498.38         337.4932
   498.52         337.6742
   498.66         337.8798
   498.80         338.1105
   498.94         338.3638
   499.08         338.6553
   499.22         338.9825
   499.36         339.2791
   499.50         339.4537
   499.64         339.4457
   499.78         339.2447
   499.92         338.8678
   500.06         338.3151
   500.20         337.5621
   500.34         336.5707
   500.48         335.3051
   500.62         333.7327
   500.76         331.8316
   500.90         329.6467
   501.04         327.3082
   501.18         324.9775
   501.32         322.8171
   501.46         320.9834
   501.60         319.6038
   501.74         318.7339
   501.88         318.3415
   502.02         318.3466
   502.16         318.6538
   502.30         319.1689
   502.44         319.8116
   502.58         320.5035
   502.72         321.1719
   502.86         321.7556
   503.00         322.2045
   503.14         322.5078
   503.28         322.7124
   503.42         322.8875
   503.56         323.0699
   503.70         323.2503
   503.84         323.3911
   503.98         323.4730
   504.12         323.5028
   504.26         323.4598
   504.40         323.2808
   504.54         322.8959
   504.68         322.2936
   504.82         321.5395
   504.96         320.7436
   505.10         320.0141
   505.24         319.4145
   505.38         318.9619
   505.52         318.6518
   505.66         318.4928
   505.80         318.5095
   505.94         318.7137
   506.08         319.0760
   506.22         319.5404
   506.36         320.0658
   506.50         320.6233
   506.64         321.1936
   506.78         321.7526
   506.92         322.2504
   507.06         322.6456
   507.20         322.9409
   507.34         323.1703
   507.48         323.3407
   507.62         323.4263
   507.76         323.4135
   507.90         323.3100
   508.04         323.1233
   508.18         322.8396
   508.32         322.4424
   508.46         321.9375
   508.60         321.3416
   508.74         320.6631
   508.88         319.9072
   509.02         319.0887
   509.16         318.2407
   509.30         317.4107
   509.44         316.6467
   509.58         315.9947
   509.72         315.4914
   509.86         315.1479
   510.00         314.9469
   510.14         314.8647
   510.28         314.8748
   510.42         314.9280
   510.56         314.9635
   510.70         314.9343
   510.84         314.8085
   510.98         314.5727
   511.12         314.2464
   511.26         313.8678
   511.40         313.4586
   511.54         313.0199
   511.68         312.5584
   511.82         312.1018
   511.96         311.6964
   512.10         311.3970
   512.24         311.2399
   512.38         311.2196
   512.52         311.3055
   512.66         311.4636
   512.80         311.6573
   512.94         311.8532
   513.08         312.0336
   513.22         312.1949
   513.36         312.3228
   513.50         312.3884
   513.64         312.3701
   513.78         312.2691
   513.92         312.0951
   514.06         311.8349
   514.20         311.4509
   514.34         310.9243
   514.48         310.2865
   514.62         309.5940
   514.76         308.8866
   514.90         308.1781
   515.04         307.4732
   515.18         306.7888
   515.32         306.1444
   515.46         305.5478
   515.60         305.0008
   515.74         304.4871
   515.88         303.9736
   516.02         303.4460
   516.16         302.9270
   516.30         302.4630
   516.44         302.1042
   516.58         301.8799
   516.72         301.7791
   516.86         301.7815
   517.00         301.8938
   517.14         302.1384
   517.28         302.5258
   517.42         303.0372
   517.56         303.6314
   517.70         304.2590
   517.84         304.8705
   517.98         305.4227
   518.12         305.8765
   518.26         306.1959
   518.40         306.3771
   518.54         306.4473
   518.68         306.4362
   518.82         306.3700
   518.96         306.2575
   519.10         306.0789
   519.24         305.8038
   519.38         305.4185
   519.52         304.9236
   519.66         304.3396
   519.80         303.7098
   519.94         303.0585
   520.08         302.3758
   520.22         301.6522
   520.36         300.8855
   520.50         300.1041
   520.64         299.3754
   520.78         298.7462
   520.92         298.2280
   521.06         297.8280
   521.20         297.5317
   521.34         297.3079
   521.48         297.1284
   521.62         296.9666
   521.76         296.7993
   521.90         296.6066
   522.04         296.3756
   522.18         296.0929
   522.32         295.7411
   522.46         295.3041
   522.60         294.7834
   522.74         294.2013
   522.88         293.5877
   523.02         292.9839
   523.16         292.4423
   523.30         291.9847
   523.44         291.5783
   523.58         291.1923
   523.72         290.8355
   523.86         290.5212
   524.00         290.2435
   524.14         289.9865
   524.28         289.7365
   524.42         289.4792
   524.56         289.2112
   524.70         288.9529
   524.84         288.7296
   524.98         288.5598
   525.12         288.4611
   525.26         288.4393
   525.40         288.4705
   525.54         288.5112
   525.68         288.5199
   525.82         288.4511
   525.96         288.2595
   526.10         287.9163
   526.24         287.4168
   526.38         286.7840
   526.52         286.0518
   526.66         285.2625
   526.80         284.4706
   526.94         283.7383
   527.08         283.1327
   527.22         282.7077
   527.36         282.4767
   527.50         282.4037
   527.64         282.4286
   527.78         282.5012
   527.92         282.5861
   528.06         282.6509
   528.20         282.6715
   528.34         282.6518
   528.48         282.6168
   528.62         282.5995
   528.76         282.6272
   528.90         282.7091
   529.04         282.8378
   529.18         282.9980
   529.32         283.1866
   529.46         283.4144
   529.60         283.6856
   529.74         283.9738
   529.88         284.2265
   530.02         284.3963
   530.16         284.4563
   530.30         284.3958
   530.44         284.2119
   530.58         283.9018
   530.72         283.4591
   530.86         282.8841
   531.00         282.1966
   531.14         281.4206
   531.28         280.5685
   531.42         279.6602
   531.56         278.7487
   531.70         277.9022
   531.84         277.1771
   531.98         276.6050
   532.12         276.1765
   532.26         275.8602
   532.40         275.6298
   532.54         275.4648
   532.68         275.3418
   532.82         275.2326
   532.96         275.1083
   533.10         274.9366
   533.24         274.6884
   533.38         274.3516
   533.52         273.9409
   533.66         273.4920
   533.80         273.0370
   533.94         272.5969
   534.08         272.1934
   534.22         271.8496
   534.36         271.5755
   534.50         271.3711
   534.64         271.2314
   534.78         271.1486
   534.92         271.1218
   535.06         271.1364
   535.20         271.1557
   535.34         271.1478
   535.48         271.0968
   535.62         271.0004
   535.76         270.8736
   535.90         270.7579
   536.04         270.6960
   536.18         270.6842
   536.32         270.6808
   536.46         270.6472
   536.60         270.5598
   536.74         270.4132
   536.88         270.2139
   537.02         269.9587
   537.16         269.6253
   537.30         269.1847
   537.44         268.6269
   537.58         267.9644
   537.72         267.2171
   537.86         266.4176
   538.00         265.6216
   538.14         264.8981
   538.28         264.3092
   538.42         263.8816
   538.56         263.5950
   538.70         263.4076
   538.84         263.2879
   538.98         263.2179
   539.12         263.1769
   539.26         263.1399
   539.40         263.0942
   539.54         263.0335
   539.68         262.9442
   539.82         262.8062
   539.96         262.6043
   540.10         262.3544
   540.24         262.0987
   540.38         261.8725
   540.52         261.7017
   540.66         261.6104
   540.80         261.6126
   540.94         261.7024
   541.08         261.8536
   541.22         262.0365
   541.36         262.2315
   541.50         262.4068
   541.64         262.5107
   541.78         262.5118
   541.92         262.4086
   542.06         262.1926
   542.20         261.8321
   542.34         261.3075
   542.48         260.6358
   542.62         259.8627
   542.76         259.0578
   542.90         258.2942
   543.04         257.6328
   543.18         257.1142
   543.32         256.7445
   543.46         256.5013
   543.60         256.3405
   543.74         256.2022
   543.88         256.0443
   544.02         255.8446
   544.16         255.5709
   544.30         255.1866
   544.44         254.6840
   544.58         254.0974
   544.72         253.4889
   544.86         252.9332
   545.00         252.5115
   545.14         252.2974
   545.28         252.3335
   545.42         252.6139
   545.56         253.0794
   545.70         253.6387
   545.84         254.1945
   545.98         254.6629
   546.12         254.9901
   546.26         255.1487
   546.40         255.1374
   546.54         254.9782
   546.68         254.6976
   546.82         254.3195
   546.96         253.8787
   547.10         253.4306
   547.24         253.0304
   547.38         252.6936
   547.52         252.3968
   547.66         252.1086
   547.80         251.7910
   547.94         251.3925
   548.08         250.8753
   548.22         250.2450
   548.36         249.5504
   548.50         248.8675
   548.64         248.2770
   548.78         247.8372
   548.92         247.5887
   549.06         247.5709
   549.20         247.8004
   549.34         248.2491
   549.48         248.8406
   549.62         249.4692
   549.76         250.0336
   549.90         250.4439
   550.04         250.6157
   550.18         250.4928
   550.32         250.0752
   550.46         249.4103
   550.60         248.5742
   550.74         247.6677
   550.88         246.8043
   551.02         246.0760
   551.16         245.5243
   551.30         245.1445
   551.44         244.9174
   551.58         244.8333
   551.72         244.8709
   551.86         244.9758
   552.00         245.0788
   552.14         245.1191
   552.28         245.0491
   552.42         244.8412
   552.56         244.4993
   552.70         244.0505
   552.84         243.5353
   552.98         242.9979
   553.12         242.4616
   553.26         241.9355
   553.40         241.4345
   553.54         240.9786
   553.68         240.5830
   553.82         240.2667
   553.96         240.0625
   554.10         239.9893
   554.24         240.0257
   554.38         240.1353
   554.52         240.2786
   554.66         240.4012
   554.80         240.4452
   554.94         240.3766
   555.08         240.2013
   555.22         239.9531
   555.36         239.6670
   555.50         239.3771
   555.64         239.1098
   555.78         238.8853
   555.92         238.7376
   556.06         238.7035
   556.20         238.8041
   556.34         239.0371
   556.48         239.3760
   556.62         239.7798
   556.76         240.1947
   556.90         240.5621
   557.04         240.8336
   557.18         240.9614
   557.32         240.9106
   557.46         240.6826
   557.60         240.3007
   557.74         239.7968
   557.88         239.2108
   558.02         238.5848
   558.16         237.9608
   558.30         237.3827
   558.44         236.9044
   558.58         236.5706
   558.72         236.3821
   558.86         236.3052
   559.00         236.2983
   559.14         236.3170
   559.28         236.3125
   559.42         236.2373
   559.56         236.0669
   559.70         235.8161
   559.84         235.5181
   559.98         235.2062
   560.12         234.9095
   560.26         234.6433
   560.40         234.4054
   560.54         234.1865
   560.68         233.9726
   560.82         233.7482
   560.96         233.5092
   561.10         233.2581
   561.24         232.9979
   561.38         232.7421
   561.52         232.5137
   561.66         232.3341
   561.80         232.2144
   561.94         232.1576
   562.08         232.1661
   562.22         232.2403
   562.36         232.3737
   562.50         232.5474
   562.64         232.7356
   562.78         232.8962
   562.92         232.9706
   563.06         232.9214
   563.20         232.7492
   563.34         232.4681
   563.48         232.0972
   563.62         231.6634
   563.76         231.1821
   563.90         230.6599
   564.04         230.1130
   564.18         229.5597
   564.32         229.0155
   564.46         228.5013
   564.60         228.0431
   564.74         227.6582
   564.88         227.3464
   565.02         227.0929
   565.16         226.8705
   565.30         226.6388
   565.44         226.3555
   565.58         226.0073
   565.72         225.6090
   565.86         225.1724
   566.00         224.7073
   566.14         224.2382
   566.28         223.7971
   566.42         223.4052
   566.56         223.0743
   566.70         222.8171
   566.84         222.6380
   566.98         222.5283
   567.12         222.4802
   567.26         222.4926
   567.40         222.5625
   567.54         222.6744
   567.68         222.8004
   567.82         222.9172
   567.96         223.0189
   568.10         223.1090
   568.24         223.1879
   568.38         223.2436
   568.52         223.2575
   568.66         223.2161
   568.80         223.1110
   568.94         222.9314
   569.08         222.6643
   569.22         222.3170
   569.36         221.9208
   569.50         221.5057
   569.64         221.0890
   569.78         220.6808
   569.92         220.2908
   570.06         219.9241
   570.20         219.5762
   570.34         219.2454
   570.48         218.9424
   570.62         218.6774
   570.76         218.4388
   570.90         218.2003
   571.04         217.9513
   571.18         217.7100
   571.32         217.5007
   571.46         217.3435
   571.60         217.2550
   571.74         217.2384
   571.88         217.2875
   572.02         217.3957
   572.16         217.5566
   572.30         217.7575
   572.44         217.9674
   572.58         218.1427
   572.72         218.2413
   572.86         218.2257
   573.00         218.0632
   573.14         217.7411
   573.28         217.2657
   573.42         216.6523
   573.56         215.9394
   573.70         215.1968
   573.84         214.4946
   573.98         213.8816
   574.12         213.3932
   574.26         213.0540
   574.40         212.8813
   574.54         212.8854
   574.68         213.0515
   574.82         213.3324
   574.96         213.6618
   575.10         213.9779
   575.24         214.2383
   575.38         214.4172
   575.52         214.4911
   575.66         214.4398
   575.80         214.2589
   575.94         213.9518
   576.08         213.5251
   576.22         213.0000
   576.36         212.4060
   576.50         211.7594
   576.64         211.0566
   576.78         210.2685
   576.92         209.3411
   577.06         208.2153
   577.20         206.8509
   577.34         205.2581
   577.48         203.5228
   577.62         201.7823
   577.76         200.1733
   577.90         198.8045
   578.04         197.7666
   578.18         197.1355
   578.32         196.9503
   578.46         197.1908
   578.60         197.7822
   578.74         198.6227
   578.88         199.6007
   579.02         200.6041
   579.16         201.5396
   579.30         202.3366
   579.44         202.9401
   579.58         203.3270
   579.72         203.5310
   579.86         203.6237
   580.00         203.6740
   580.14         203.7314
   580.28         203.8196
   580.42         203.9382
   580.56         204.0784
   580.70         204.2286
   580.84         204.3755
   580.98         204.5126
   581.12         204.6436
   581.26         204.7788
   581.40         204.9342
   581.54         205.1269
   581.68         205.3628
   581.82         205.6328
   581.96         205.9117
   582.10         206.1556
   582.24         206.3314
   582.38         206.4413
   582.52         206.5031
   582.66         206.5315
   582.80         206.5405
   582.94         206.5430
   583.08         206.5472
   583.22         206.5493
   583.36         206.5328
   583.50         206.4783
   583.64         206.3612
   583.78         206.1487
   583.92         205.8169
   584.06         205.3706
   584.20         204.8299
   584.34         204.2081
   584.48         203.5371
   584.62         202.8779
   584.76         202.2874
   584.90         201.8156
   585.04         201.5077
   585.18         201.3765
   585.32         201.4074
   585.46         201.5814
   585.60         201.8757
   585.74         202.2573
   585.88         202.6759
   586.02         203.0523
   586.16         203.2758
   586.30         203.2124
   586.44         202.7351
   586.58         201.7861
   586.72         200.4092
   586.86         198.7171
   587.00         196.8548
   587.14         194.9857
   587.28         193.2567
   587.42         191.7615
   587.56         190.5164
   587.70         189.4220
   587.84         188.2995
   587.98         187.0268
   588.12         185.5709
   588.26         183.8856
   588.40         181.8874
   588.54         179.5504
   588.68         176.9700
   588.82         174.3493
   588.96         171.9692
   589.10         170.1515
   589.24         169.2017
   589.38         169.3298
   589.52         170.5921
   589.66         172.8947
   589.80         176.0221
   589.94         179.6707
   590.08         183.4962
   590.22         187.1608
   590.36         190.3979
   590.50         193.0818
   590.64         195.1941
   590.78         196.7075
   590.92         197.5823
   591.06         197.8829
   591.20         197.7872
   591.34         197.4657
   591.48         197.0141
   591.62         196.4868
   591.76         195.9238
   591.90         195.3453
   592.04         194.7459
   592.18         194.1098
   592.32         193.4423
   592.46         192.7830
   592.60         192.1867
   592.74         191.6989
   592.88         191.3414
   593.02         191.1088
   593.16         190.9765
   593.30         190.9120
   593.44         190.8847
   593.58         190.8739
   593.72         190.8586
   593.86         190.8025
   594.00         190.6688
   594.14         190.4462
   594.28         190.1513
   594.42         189.8100
   594.56         189.4508
   594.70         189.1182
   594.84         188.8751
   594.98         188.7813
   595.12         188.8565
   595.26         189.0690
   595.40         189.3588
   595.54         189.6591
   595.68         189.9148
   595.82         190.0936
   595.96         190.1791
   596.10         190.1436
   596.24         189.9533
   596.38         189.5930
   596.52         189.0583
   596.66         188.3455
   596.80         187.4700
   596.94         186.4831
   597.08         185.4621
   597.22         184.4799
   597.36         183.5943
   597.50         182.8524
   597.64         182.2819
   597.78         181.8888
   597.92         181.6745
   598.06         181.6450
   598.20         181.7990
   598.34         182.1220
   598.48         182.5875
   598.62         183.1462
   598.76         183.7285
   598.90         184.2826
   599.04         184.7799
   599.18         185.1918
   599.32         185.4963
   599.46         185.6759
   599.60         185.7047
   599.74         185.5522
   599.88         185.1944
   600.02         184.6391
   600.16         183.9327
   600.30         183.1409
   600.44         182.3433
   600.58         181.6255
   600.72         181.0564
   600.86         180.6753
   601.00         180.5050
   601.14         180.5556
   601.28         180.8065
   601.42         181.2069
   601.56         181.6821
   601.70         182.1362
   601.84         182.4780
   601.98         182.6380
   602.12         182.5600
   602.26         182.2283
   602.40         181.6806
   602.54         180.9800
   602.68         180.1934
   602.82         179.3853
   602.96         178.6162
   603.10         177.9425
   603.24         177.4119
   603.38         177.0490
   603.52         176.8544
   603.66         176.8198
   603.80         176.9294
   603.94         177.1551
   604.08         177.4598
   604.22         177.8058
   604.36         178.1648
   604.50         178.5169
   604.64         178.8378
   604.78         179.1045
   604.92         179.3175
   605.06         179.4925
   605.20         179.6418
   605.34         179.7678
   605.48         179.8672
   605.62         179.9378
   605.76         179.9758
   605.90         179.9778
   606.04         179.9379
   606.18         179.8510
   606.32         179.7177
   606.46         179.5455
   606.60         179.3473
   606.74         179.1388
   606.88         178.9364
   607.02         178.7475
   607.16         178.5721
   607.30         178.4155
   607.44         178.2880
   607.58         178.1894
   607.72         178.1028
   607.86         178.0034
   608.00         177.8702
   608.14         177.6937
   608.28         177.4788
   608.42         177.2418
   608.56         177.0029
   608.70         176.7831
   608.84         176.6016
   608.98         176.4731
   609.12         176.4030
   609.26         176.3813
   609.40         176.3829
   609.54         176.3767
   609.68         176.3415
   609.82         176.2753
   609.96         176.1845
   610.10         176.0743
   610.24         175.9528
   610.38         175.8348
   610.52         175.7358
   610.66         175.6679
   610.80         175.6413
   610.94         175.6657
   611.08         175.7399
   611.22         175.8475
   611.36         175.9616
   611.50         176.0524
   611.64         176.0944
   611.78         176.0724
   611.92         175.9812
   612.06         175.8291
   612.20         175.6370
   612.34         175.4217
   612.48         175.1845
   612.62         174.9248
   612.76         174.6565
   612.90         174.3947
   613.04         174.1413
   613.18         173.8936
   613.32         173.6492
   613.46         173.4029
   613.60         173.1476
   613.74         172.8785
   613.88         172.6025
   614.02         172.3390
   614.16         172.1074
   614.30         171.9171
   614.44         171.7631
   614.58         171.6299
   614.72         171.5035
   614.86         171.3697
   615.00         171.2109
   615.14         171.0163
   615.28         170.7891
   615.42         170.5345
   615.56         170.2460
   615.70         169.9143
   615.84         169.5389
   615.98         169.1241
   616.12         168.6806
   616.26         168.2272
   616.40         167.7854
   616.54         167.3749
   616.68         167.0120
   616.82         166.7068
   616.96         166.4640
   617.10         166.2866
   617.24         166.1764
   617.38         166.1285
   617.52         166.1247
   617.66         166.1413
   617.80         166.1624
   617.94         166.1850
   618.08         166.2044
   618.22         166.2070
   618.36         166.1859
   618.50         166.1510
   618.64         166.1246
   618.78         166.1292
   618.92         166.1739
   619.06         166.2510
   619.20         166.3421
   619.34         166.4230
   619.48         166.4711
   619.62         166.4741
   619.76         166.4370
   619.90         166.3776
   620.04         166.3159
   620.18         166.2723
   620.32         166.2678
   620.46         166.3167
   620.60         166.4213
   620.74         166.5691
   620.88         166.7410
   621.02         166.9216
   621.16         167.0983
   621.30         167.2529
   621.44         167.3591
   621.58         167.3944
   621.72         167.3572
   621.86         167.2698
   622.00         167.1637
   622.14         167.0646
   622.28         166.9868
   622.42         166.9370
   622.56         166.9093
   622.70         166.8858
   622.84         166.8522
   622.98         166.8042
   623.12         166.7430
   623.26         166.6723
   623.40         166.5971
   623.54         166.5235
   623.68         166.4586
   623.82         166.4114
   623.96         166.3876
   624.10         166.3846
   624.24         166.3968
   624.38         166.4274
   624.52         166.4940
   624.66         166.6138
   624.80         166.7907
   624.94         167.0139
   625.08         167.2349
   625.22         167.3570
   625.36         167.2788
   625.50         166.9401
   625.64         166.3214
   625.78         165.4327
   625.92         164.3119
   626.06         163.0238
   626.20         161.6536
   626.34         160.2934
   626.48         159.0218
   626.62         157.8801
   626.76         156.8739
   626.90         155.9938
   627.04         155.2093
   627.18         154.4520
   627.32         153.6263
   627.46         152.6529
   627.60         151.5061
   627.74         150.2200
   627.88         148.8963
   628.02         147.7018
   628.16         146.8199
   628.30         146.3937
   628.44         146.5055
   628.58         147.1753
   628.72         148.3625
   628.86         149.9702
   629.00         151.8561
   629.14         153.8557
   629.28         155.8070
   629.42         157.5753
   629.56         159.0573
   629.70         160.1798
   629.84         160.9169
   629.98         161.3031
   630.12         161.4159
   630.26         161.3392
   630.40         161.1427
   630.54         160.8811
   630.68         160.5946
   630.82         160.3084
   630.96         160.0369
   631.10         159.7881
   631.24         159.5699
   631.38         159.3923
   631.52         159.2663
   631.66         159.2024
   631.80         159.2029
   631.94         159.2586
   632.08         159.3561
   632.22         159.4857
   632.36         159.6445
   632.50         159.8279
   632.64         160.0258
   632.78         160.2216
   632.92         160.3970
   633.06         160.5374
   633.20         160.6262
   633.34         160.6226
   633.48         160.4661
   633.62         160.1137
   633.76         159.5612
   633.90         158.8429
   634.04         158.0194
   634.18         157.1572
   634.32         156.3191
   634.46         155.5628
   634.60         154.9406
   634.74         154.4969
   634.88         154.2609
   635.02         154.2364
   635.16         154.4014
   635.30         154.7156
   635.44         155.1230
   635.58         155.5523
   635.72         155.9141
   635.86         156.1047
   636.00         156.0382
   636.14         155.6935
   636.28         155.1236
   636.42         154.4120
   636.56         153.6343
   636.70         152.8488
   636.84         152.1026
   636.98         151.4386
   637.12         150.8986
   637.26         150.5222
   637.40         150.3362
   637.54         150.3439
   637.68         150.5277
   637.82         150.8558
   637.96         151.2874
   638.10         151.7738
   638.24         152.2635
   638.38         152.7102
   638.52         153.0912
   638.66         153.4196
   638.80         153.7212
   638.94         154.0033
   639.08         154.2540
   639.22         154.4578
   639.36         154.6078
   639.50         154.7112
   639.64         154.7830
   639.78         154.8363
   639.92         154.8783
   640.06         154.9072
   640.20         154.9175
   640.34         154.9032
   640.48         154.8608
   640.62         154.7913
   640.76         154.6959
   640.90         154.5759
   641.04         154.4365
   641.18         154.2862
   641.32         154.1290
   641.46         153.9601
   641.60         153.7794
   641.74         153.6032
   641.88         153.4543
   642.02         153.3466
   642.16         153.2814
   642.30         153.2520
   642.44         153.2497
   642.58         153.2659
   642.72         153.2884
   642.86         153.2997
   643.00         153.2837
   643.14         153.2345
   643.28         153.1504
   643.42         153.0248
   643.56         152.8523
   643.70         152.6368
   643.84         152.3893
   643.98         152.1239
   644.12         151.8587
   644.26         151.6098
   644.40         151.3834
   644.54         151.1784
   644.68         150.9934
   644.82         150.8294
   644.96         150.6897
   645.10         150.5710
   645.24         150.4589
   645.38         150.3365
   645.52         150.1945
   645.66         150.0349
   645.80         149.8721
   645.94         149.7218
   646.08         149.5946
   646.22         149.4978
   646.36         149.4306
   646.50         149.3841
   646.64         149.3482
   646.78         149.3130
   646.92         149.2684
   647.06         149.2110
   647.20         149.1482
   647.34         149.0882
   647.48         149.0323
   647.62         148.9742
   647.76         148.9030
   647.90         148.8048
   648.04         148.6697
   648.18         148.5028
   648.32         148.3234
   648.46         148.1539
   648.60         148.0117
   648.74         147.9100
   648.88         147.8628
   649.02         147.8888
   649.16         148.0062
   649.30         148.2209
   649.44         148.5233
   649.58         148.8986
   649.72         149.3310
   649.86         149.7956
   650.00         150.2536
   650.14         150.6603
   650.28         150.9752
   650.42         151.1705
   650.56         151.2350
   650.70         151.1764
   650.84         151.0183
   650.98         150.7914
   651.12         150.5279
   651.26         150.2589
   651.40         150.0131
   651.54         149.8137
   651.68         149.6707
   651.82         149.5776
   651.96         149.5209
   652.10         149.4911
   652.24         149.4836
   652.38         149.4940
   652.52         149.5154
   652.66         149.5451
   652.80         149.5875
   652.94         149.6503
   653.08         149.7392
   653.22         149.8570
   653.36         150.0048
   653.50         150.1797
   653.64         150.3701
   653.78         150.5519
   653.92         150.6944
   654.06         150.7684
   654.20         150.7525
   654.34         150.6387
   654.48         150.4299
   654.62         150.1288
   654.76         149.7346
   654.90         149.2467
   655.04         148.6659
   655.18         147.9969
   655.32         147.2577
   655.46         146.4850
   655.60         145.7299
   655.74         145.0507
   655.88         144.5040
   656.02         144.1322
   656.16         143.9515
   656.30         143.9501
   656.44         144.0940
   656.58         144.3420
   656.72         144.6549
   656.86         144.9903
   657.00         145.2974
   657.14         145.5268
   657.28         145.6506
   657.42         145.6694
   657.56         145.6062
   657.70         145.4984
   657.84         145.3922
   657.98         145.3342
   658.12         145.3574
   658.26         145.4706
   658.40         145.6593
   658.54         145.8934
   658.68         146.1379
   658.82         146.3680
   658.96         146.5755
   659.10         146.7658
   659.24         146.9526
   659.38         147.1465
   659.52         147.3461
   659.66         147.5429
   659.80         147.7231
   659.94         147.8569
   660.08         147.8993
   660.22         147.8125
   660.36         147.5894
   660.50         147.2509
   660.64         146.8325
   660.78         146.3766
   660.92         145.9260
   661.06         145.5199
   661.20         145.1915
   661.34         144.9670
   661.48         144.8630
   661.62         144.8786
   661.76         144.9917
   661.90         145.1688
   662.04         145.3726
   662.18         145.5618
   662.32         145.6920
   662.46         145.7264
   662.60         145.6491
   662.74         145.4707
   662.88         145.2221
   663.02         144.9378
   663.16         144.6397
   663.30         144.3368
   663.44         144.0307
   663.58         143.7205
   663.72         143.4080
   663.86         143.0986
   664.00         142.7969
   664.14         142.5044
   664.28         142.2185
   664.42         141.9333
   664.56         141.6404
   664.70         141.3303
   664.84         140.9977
   664.98         140.6479
   665.12         140.2959
   665.26         139.9600
   665.40         139.6590
   665.54         139.4137
   665.68         139.2417
   665.82         139.1476
   665.96         139.1203
   666.10         139.1370
   666.24         139.1594
   666.38         139.1241
   666.52         138.9526
   666.66         138.5889
   666.80         138.0267
   666.94         137.3023
   667.08         136.4800
   667.22         135.6391
   667.36         134.8649
   667.50         134.2402
   667.64         133.8279
   667.78         133.6613
   667.92         133.7483
   668.06         134.0731
   668.20         134.5934
   668.34         135.2403
   668.48         135.9298
   668.62         136.5802
   668.76         137.1216
   668.90         137.5036
   669.04         137.7115
   669.18         137.7785
   669.32         137.7735
   669.46         137.7642
   669.60         137.7893
   669.74         137.8572
   669.88         137.9548
   670.02         138.0607
   670.16         138.1566
   670.30         138.2248
   670.44         138.2510
   670.58         138.2277
   670.72         138.1556
   670.86         138.0434
   671.00         137.9022
   671.14         137.7458
   671.28         137.5923
   671.42         137.4604
   671.56         137.3666
   671.70         137.3179
   671.84         137.3024
   671.98         137.2946
   672.12         137.2677
   672.26         137.2004
   672.40         137.0805
   672.54         136.9088
   672.68         136.7014
   672.82         136.4832
   672.96         136.2792
   673.10         136.1090
   673.24         135.9872
   673.38         135.9194
   673.52         135.8977
   673.66         135.9054
   673.80         135.9277
   673.94         135.9541
   674.08         135.9758
   674.22         135.9839
   674.36         135.9679
   674.50         135.9197
   674.64         135.8423
   674.78         135.7475
   674.92         135.6463
   675.06         135.5467
   675.20         135.4597
   675.34         135.3957
   675.48         135.3588
   675.62         135.3431
   675.76         135.3324
   675.90         135.3076
   676.04         135.2531
   676.18         135.1624
   676.32         135.0381
   676.46         134.8871
   676.60         134.7142
   676.74         134.5212
   676.88         134.3095
   677.02         134.0825
   677.16         133.8483
   677.30         133.6202
   677.44         133.4153
   677.58         133.2535
   677.72         133.1540
   677.86         133.1272
   678.00         133.1670
   678.14         133.2566
   678.28         133.3771
   678.42         133.5115
   678.56         133.6476
   678.70         133.7787
   678.84         133.9004
   678.98         134.0040
   679.12         134.0805
   679.26         134.1278
   679.40         134.1516
   679.54         134.1623
   679.68         134.1713
   679.82         134.1885
   679.96         134.2237
   680.10         134.2864
   680.24         134.3815
   680.38         134.5069
   680.52         134.6536
   680.66         134.8075
   680.80         134.9480
   680.94         135.0470
   681.08         135.0769
   681.22         135.0212
   681.36         134.8767
   681.50         134.6450
   681.64         134.3318
   681.78         133.9540
   681.92         133.5353
   682.06         133.1013
   682.20         132.6794
   682.34         132.2926
   682.48         131.9552
   682.62         131.6761
   682.76         131.4624
   682.90         131.3184
   683.04         131.2398
   683.18         131.2083
   683.32         131.1961
   683.46         131.1746
   683.60         131.1246
   683.74         131.0407
   683.88         130.9234
   684.02         130.7718
   684.16         130.5843
   684.30         130.3680
   684.44         130.1389
   684.58         129.9131
   684.72         129.7055
   684.86         129.5291
   685.00         129.3908
   685.14         129.2939
   685.28         129.2311
   685.42         129.1620
   685.56         128.9903
   685.70         128.5713
   685.84         127.7556
   685.98         126.4363
   686.12         124.5736
   686.26         122.1997
   686.40         119.4145
   686.54         116.3765
   686.68         113.2896
   686.82         110.3889
   686.96         107.9137
   687.10         106.0682
   687.24         104.9873
   687.38         104.7182
   687.52         105.2163
   687.66         106.3505
   687.80         107.9240
   687.94         109.7034
   688.08         111.4521
   688.22         112.9692
   688.36         114.1305
   688.50         114.9015
   688.64         115.3228
   688.78         115.4772
   688.92         115.4625
   689.06         115.3807
   689.20         115.3269
   689.34         115.3797
   689.48         115.5905
   689.62         115.9695
   689.76         116.4818
   689.90         117.0699
   690.04         117.6770
   690.18         118.2592
   690.32         118.7931
   690.46         119.2767
   690.60         119.7176
   690.74         120.1191
   690.88         120.4812
   691.02         120.8041
   691.16         121.0867
   691.30         121.3307
   691.44         121.5401
   691.58         121.7190
   691.72         121.8690
   691.86         121.9876
   692.00         122.0692
   692.14         122.1081
   692.28         122.1004
   692.42         122.0489
   692.56         121.9651
   692.70         121.8613
   692.84         121.7437
   692.98         121.6184
   693.12         121.4907
   693.26         121.3606
   693.40         121.2279
   693.54         121.0989
   693.68         120.9805
   693.82         120.8799
   693.96         120.8095
   694.10         120.7838
   694.24         120.8087
   694.38         120.8773
   694.52         120.9799
   694.66         121.1082
   694.80         121.2548
   694.94         121.4122
   695.08         121.5704
   695.22         121.7184
   695.36         121.8520
   695.50         121.9805
   695.64         122.1250
   695.78         122.3060
   695.92         122.5315
   696.06         122.7997
   696.20         123.1077
   696.34         123.4515
   696.48         123.8225
   696.62         124.2058
   696.76         124.5785
   696.90         124.9111
   697.04         125.1759
   697.18         125.3557
   697.32         125.4451
   697.46         125.4459
   697.60         125.3610
   697.74         125.1918
   697.88         124.9375
   698.02         124.5970
   698.16         124.1759
   698.30         123.6895
   698.44         123.1629
   698.58         122.6242
   698.72         122.1032
   698.86         121.6320
   699.00         121.2358
   699.14         120.9245
   699.28         120.6961
   699.42         120.5454
   699.56         120.4669
   699.70         120.4516
   699.84         120.4841
   699.98         120.5448
   700.12         120.6173
   700.26         120.6920
   700.40         120.7629
   700.54         120.8241
   700.68         120.8749
   700.82         120.9179
   700.96         120.9482
   701.10         120.9477
   701.24         120.8925
   701.38         120.7650
   701.52         120.5590
   701.66         120.2758
   701.80         119.9251
   701.94         119.5310
   702.08         119.1291
   702.22         118.7555
   702.36         118.4366
   702.50         118.1929
   702.64         118.0440
   702.78         118.0015
   702.92         118.0576
   703.06         118.1838
   703.20         118.3457
   703.34         118.5119
   703.48         118.6537
   703.62         118.7481
   703.76         118.7884
   703.90         118.7792
   704.04         118.7258
   704.18         118.6368
   704.32         118.5258
   704.46         118.4018
   704.60         118.2661
   704.74         118.1169
   704.88         117.9481
   705.02         117.7467
   705.16         117.4887
   705.30         117.1434
   705.44         116.6954
   705.58         116.1616
   705.72         115.5860
   705.86         115.0244
   706.00         114.5313
   706.14         114.1539
   706.28         113.9314
   706.42         113.8881
   706.56         114.0239
   706.70         114.3168
   706.84         114.7342
   706.98         115.2344
   707.12         115.7723
   707.26         116.3102
   707.40         116.8158
   707.54         117.2548
   707.68         117.5983
   707.82         117.8353
   707.96         117.9832
   708.10         118.0829
   708.24         118.1685
   708.38         118.2489
   708.52         118.3206
   708.66         118.3893
   708.80         118.4676
   708.94         118.5628
   709.08         118.6773
   709.22         118.8133
   709.36         118.9716
   709.50         119.1456
   709.64         119.3217
   709.78         119.4825
   709.92         119.6083
   710.06         119.6797
   710.20         119.6851
   710.34         119.6273
   710.48         119.5213
   710.62         119.3878
   710.76         119.2486
   710.90         119.1230
   711.04         119.0258
   711.18         118.9701
   711.32         118.9645
   711.46         119.0009
   711.60         119.0599
   711.74         119.1314
   711.88         119.2165
   712.02         119.3171
   712.16         119.4316
   712.30         119.5571
   712.44         119.6914
   712.58         119.8360
   712.72         119.9897
   712.86         120.1409
   713.00         120.2727
   713.14         120.3668
   713.28         120.4059
   713.42         120.3766
   713.56         120.2689
   713.70         120.0795
   713.84         119.8178
   713.98         119.5041
   714.12         119.1654
   714.26         118.8305
   714.40         118.5251
   714.54         118.2643
   714.68         118.0523
   714.82         117.8863
   714.96         117.7586
   715.10         117.6611
   715.24         117.5850
   715.38         117.5097
   715.52         117.4053
   715.66         117.2465
   715.80         117.0127
   715.94         116.6842
   716.08         116.2415
   716.22         115.6694
   716.36         114.9652
   716.50         114.1379
   716.64         113.2110
   716.78         112.2230
   716.92         111.2164
   717.06         110.2300
   717.20         109.2927
   717.34         108.4146
   717.48         107.5869
   717.62         106.8010
   717.76         106.0633
   717.90         105.3877
   718.04         104.7828
   718.18         104.2570
   718.32         103.8201
   718.46         103.4768
   718.60         103.2251
   718.74         103.0589
   718.88         102.9708
   719.02         102.9534
   719.16         103.0000
   719.30         103.1057
   719.44         103.2651
   719.58         103.4736
   719.72         103.7381
   719.86         104.0825
   720.00         104.5490
   720.14         105.1922
   720.28         106.0551
   720.42         107.1414
   720.56         108.4117
   720.70         109.8034
   720.84         111.2493
   720.98         112.6738
   721.12         113.9863
   721.26         115.0929
   721.40         115.9221
   721.54         116.4448
   721.68         116.6680
   721.82         116.6212
   721.96         116.3428
   722.10         115.8678
   722.24         115.2254
   722.38         114.4413
   722.52         113.5440
   722.66         112.5727
   722.80         111.5700
   722.94         110.5649
   723.08         109.5754
   723.22         108.6270
   723.36         107.7597
   723.50         107.0184
   723.64         106.4359
   723.78         106.0284
   723.92         105.8008
   724.06         105.7402
   724.20         105.8133
   724.34         105.9750
   724.48         106.1833
   724.62         106.4033
   724.76         106.6111
   724.90         106.8000
   725.04         106.9755
   725.18         107.1433
   725.32         107.2966
   725.46         107.4128
   725.60         107.4734
   725.74         107.4862
   725.88         107.4771
   726.02         107.4641
   726.16         107.4393
   726.30         107.3687
   726.44         107.2078
   726.58         106.9172
   726.72         106.4807
   726.86         105.9225
   727.00         105.2986
   727.14         104.6690
   727.28         104.0866
   727.42         103.5992
   727.56         103.2425
   727.70         103.0341
   727.84         102.9743
   727.98         103.0495
   728.12         103.2371
   728.26         103.5045
   728.40         103.8051
   728.54         104.0881
   728.68         104.3154
   728.82         104.4667
   728.96         104.5329
   729.10         104.5112
   729.24         104.4095
   729.38         104.2492
   729.52         104.0616
   729.66         103.8748
   729.80         103.6981
   729.94         103.5248
   730.08         103.3407
   730.22         103.1331
   730.36         102.8979
   730.50         102.6393
   730.64         102.3680
   730.78         102.0989
   730.92         101.8494
   731.06         101.6453
   731.20         101.5148
   731.34         101.4734
   731.48         101.5210
   731.62         101.6512
   731.76         101.8603
   731.90         102.1497
   732.04         102.5165
   732.18         102.9442
   732.32         103.4009
   732.46         103.8461
   732.60         104.2468
   732.74         104.5810
   732.88         104.8312
   733.02         104.9847
   733.16         105.0383
   733.30         105.0012
   733.44         104.8914
   733.58         104.7350
   733.72         104.5636
   733.86         104.4031
   734.00         104.2692
   734.14         104.1717
   734.28         104.1158
   734.42         104.1007
   734.56         104.1181
   734.70         104.1545
   734.84         104.1944
   734.98         104.2268
   735.12         104.2482
   735.26         104.2534
   735.40         104.2282
   735.54         104.1549
   735.68         104.0222
   735.82         103.8273
   735.96         103.5745
   736.10         103.2743
   736.24         102.9445
   736.38         102.6108
   736.52         102.2998
   736.66         102.0264
   736.80         101.7947
   736.94         101.6053
   737.08         101.4551
   737.22         101.3421
   737.36         101.2665
   737.50         101.2266
   737.64         101.2222
   737.78         101.2552
   737.92         101.3228
   738.06         101.4190
   738.20         101.5400
   738.34         101.6840
   738.48         101.8459
   738.62         102.0102
   738.76         102.1503
   738.90         102.2402
   739.04         102.2650
   739.18         102.2189
   739.32         102.1035
   739.46         101.9297
   739.60         101.7120
   739.74         101.4655
   739.88         101.2060
   740.02         100.9434
   740.16         100.6809
   740.30         100.4183
   740.44         100.1521
   740.58         99.8789
   740.72         99.5986
   740.86         99.3159
   741.00         99.0367
   741.14         98.7650
   741.28         98.5057
   741.42         98.2677
   741.56         98.0668
   741.70         97.9178
   741.84         97.8229
   741.98         97.7727
   742.12         97.7540
   742.26         97.7566
   742.40         97.7751
   742.54         97.8024
   742.68         97.8291
   742.82         97.8457
   742.96         97.8457
   743.10         97.8291
   743.24         97.8024
   743.38         97.7751
   743.52         97.7566
   743.66         97.7540
   743.80         97.7727
   743.94         97.8229
   744.08         97.9178
   744.22         98.0668
