# File HD17647
# Wavelength [nm]    Normalized Amplitude
   349.70         10.6625
   349.84         10.5756
   349.98         10.5390
   350.12         10.5390
   350.26         10.5604
   350.40         10.5920
   350.54         10.6268
   350.68         10.6602
   350.82         10.6895
   350.96         10.7109
   351.10         10.7190
   351.24         10.7109
   351.38         10.6895
   351.52         10.6602
   351.66         10.6268
   351.80         10.5920
   351.94         10.5604
   352.08         10.5390
   352.22         10.5390
   352.36         10.5756
   352.50         10.6625
   352.64         10.8065
   352.78         11.0071
   352.92         11.2582
   353.06         11.5456
   353.20         11.8484
   353.34         12.1439
   353.48         12.4114
   353.62         12.6347
   353.76         12.8033
   353.90         12.9139
   354.04         12.9677
   354.18         12.9679
   354.32         12.9202
   354.46         12.8344
   354.60         12.7217
   354.74         12.5927
   354.88         12.4562
   355.02         12.3156
   355.16         12.1674
   355.30         12.0033
   355.44         11.8167
   355.58         11.6059
   355.72         11.3729
   355.86         11.1229
   356.00         10.8655
   356.14         10.6126
   356.28         10.3758
   356.42         10.1653
   356.56         9.9874
   356.70         9.8423
   356.84         9.7246
   356.98         9.6258
   357.12         9.5357
   357.26         9.4432
   357.40         9.3378
   357.54         9.2128
   357.68         9.0693
   357.82         8.9174
   357.96         8.7767
   358.10         8.6724
   358.24         8.6281
   358.38         8.6628
   358.52         8.7896
   358.66         9.0140
   358.80         9.3291
   358.94         9.7155
   359.08         10.1413
   359.22         10.5667
   359.36         10.9517
   359.50         11.2634
   359.64         11.4790
   359.78         11.5863
   359.92         11.5850
   360.06         11.4878
   360.20         11.3189
   360.34         11.1090
   360.48         10.8848
   360.62         10.6646
   360.76         10.4618
   360.90         10.2900
   361.04         10.1642
   361.18         10.0977
   361.32         10.0981
   361.46         10.1659
   361.60         10.2938
   361.74         10.4660
   361.88         10.6610
   362.02         10.8559
   362.16         11.0295
   362.30         11.1669
   362.44         11.2618
   362.58         11.3171
   362.72         11.3415
   362.86         11.3456
   363.00         11.3374
   363.14         11.3213
   363.28         11.3011
   363.42         11.2829
   363.56         11.2723
   363.70         11.2707
   363.84         11.2755
   363.98         11.2833
   364.12         11.2921
   364.26         11.3028
   364.40         11.3199
   364.54         11.3538
   364.68         11.4197
   364.82         11.5339
   364.96         11.7077
   365.10         11.9430
   365.24         12.2321
   365.38         12.5577
   365.52         12.8949
   365.66         13.2154
   365.80         13.4945
   365.94         13.7155
   366.08         13.8721
   366.22         13.9676
   366.36         14.0112
   366.50         14.0122
   366.64         13.9763
   366.78         13.9059
   366.92         13.8021
   367.06         13.6677
   367.20         13.5059
   367.34         13.3197
   367.48         13.1113
   367.62         12.8849
   367.76         12.6510
   367.90         12.4269
   368.04         12.2322
   368.18         12.0840
   368.32         11.9950
   368.46         11.9744
   368.60         12.0275
   368.74         12.1544
   368.88         12.3470
   369.02         12.5863
   369.16         12.8444
   369.30         13.0898
   369.44         13.2937
   369.58         13.4332
   369.72         13.4942
   369.86         13.4743
   370.00         13.3852
   370.14         13.2520
   370.28         13.1080
   370.42         12.9850
   370.56         12.9013
   370.70         12.8578
   370.84         12.8406
   370.98         12.8299
   371.12         12.8098
   371.26         12.7694
   371.40         12.7010
   371.54         12.5971
   371.68         12.4541
   371.82         12.2766
   371.96         12.0751
   372.10         11.8607
   372.24         11.6408
   372.38         11.4200
   372.52         11.2030
   372.66         10.9946
   372.80         10.7983
   372.94         10.6155
   373.08         10.4425
   373.22         10.2725
   373.36         10.1010
   373.50         9.9301
   373.64         9.7681
   373.78         9.6271
   373.92         9.5197
   374.06         9.4574
   374.20         9.4500
   374.34         9.5034
   374.48         9.6131
   374.62         9.7612
   374.76         9.9257
   374.90         10.0928
   375.04         10.2591
   375.18         10.4271
   375.32         10.5980
   375.46         10.7676
   375.60         10.9255
   375.74         11.0614
   375.88         11.1718
   376.02         11.2648
   376.16         11.3582
   376.30         11.4747
   376.44         11.6366
   376.58         11.8615
   376.72         12.1570
   376.86         12.5179
   377.00         12.9270
   377.14         13.3598
   377.28         13.7908
   377.42         14.1964
   377.56         14.5537
   377.70         14.8408
   377.84         15.0407
   377.98         15.1442
   378.12         15.1493
   378.26         15.0601
   378.40         14.8857
   378.54         14.6375
   378.68         14.3304
   378.82         13.9862
   378.96         13.6334
   379.10         13.3059
   379.24         13.0372
   379.38         12.8532
   379.52         12.7669
   379.66         12.7798
   379.80         12.8834
   379.94         13.0598
   380.08         13.2814
   380.22         13.5158
   380.36         13.7305
   380.50         13.8962
   380.64         13.9875
   380.78         13.9829
   380.92         13.8693
   381.06         13.6460
   381.20         13.3241
   381.34         12.9233
   381.48         12.4671
   381.62         11.9782
   381.76         11.4764
   381.90         10.9777
   382.04         10.4937
   382.18         10.0339
   382.32         9.6081
   382.46         9.2241
   382.60         8.8849
   382.74         8.5919
   382.88         8.3513
   383.02         8.1772
   383.16         8.0888
   383.30         8.1029
   383.44         8.2300
   383.58         8.4739
   383.72         8.8291
   383.86         9.2784
   384.00         9.7972
   384.14         10.3577
   384.28         10.9295
   384.42         11.4782
   384.56         11.9663
   384.70         12.3565
   384.84         12.6221
   384.98         12.7553
   385.12         12.7673
   385.26         12.6839
   385.40         12.5417
   385.54         12.3828
   385.68         12.2446
   385.82         12.1514
   385.96         12.1116
   386.10         12.1223
   386.24         12.1749
   386.38         12.2575
   386.52         12.3551
   386.66         12.4513
   386.80         12.5304
   386.94         12.5789
   387.08         12.5880
   387.22         12.5543
   387.36         12.4801
   387.50         12.3731
   387.64         12.2440
   387.78         12.1038
   387.92         11.9628
   388.06         11.8322
   388.20         11.7218
   388.34         11.6395
   388.48         11.5932
   388.62         11.5924
   388.76         11.6456
   388.90         11.7558
   389.04         11.9163
   389.18         12.1123
   389.32         12.3263
   389.46         12.5421
   389.60         12.7474
   389.74         12.9352
   389.88         13.1033
   390.02         13.2544
   390.16         13.3955
   390.30         13.5362
   390.44         13.6847
   390.58         13.8419
   390.72         13.9986
   390.86         14.1380
   391.00         14.2413
   391.14         14.2923
   391.28         14.2754
   391.42         14.1754
   391.56         13.9789
   391.70         13.6761
   391.84         13.2625
   391.98         12.7405
   392.12         12.1204
   392.26         11.4205
   392.40         10.6662
   392.54         9.8897
   392.68         9.1304
   392.82         8.4328
   392.96         7.8406
   393.10         7.3911
   393.24         7.1124
   393.38         7.0225
   393.52         7.1291
   393.66         7.4283
   393.80         7.9012
   393.94         8.5148
   394.08         9.2258
   394.22         9.9864
   394.36         10.7496
   394.50         11.4733
   394.64         12.1239
   394.78         12.6758
   394.92         13.1078
   395.06         13.4028
   395.20         13.5482
   395.34         13.5343
   395.48         13.3542
   395.62         13.0066
   395.76         12.5023
   395.90         11.8699
   396.04         11.1551
   396.18         10.4163
   396.32         9.7181
   396.46         9.1250
   396.60         8.6957
   396.74         8.4766
   396.88         8.4966
   397.02         8.7618
   397.16         9.2561
   397.30         9.9431
   397.44         10.7706
   397.58         11.6789
   397.72         12.6103
   397.86         13.5142
   398.00         14.3505
   398.14         15.0909
   398.28         15.7207
   398.42         16.2373
   398.56         16.6476
   398.70         16.9658
   398.84         17.2104
   398.98         17.4000
   399.12         17.5481
   399.26         17.6601
   399.40         17.7367
   399.54         17.7783
   399.68         17.7893
   399.82         17.7789
   399.96         17.7601
   400.10         17.7480
   400.24         17.7566
   400.38         17.7938
   400.52         17.8616
   400.66         17.9576
   400.80         18.0767
   400.94         18.2134
   401.08         18.3619
   401.22         18.5175
   401.36         18.6769
   401.50         18.8345
   401.64         18.9798
   401.78         19.0978
   401.92         19.1753
   402.06         19.2053
   402.20         19.1898
   402.34         19.1375
   402.48         19.0610
   402.62         18.9754
   402.76         18.8945
   402.90         18.8269
   403.04         18.7741
   403.18         18.7314
   403.32         18.6887
   403.46         18.6372
   403.60         18.5741
   403.74         18.5034
   403.88         18.4335
   404.02         18.3720
   404.16         18.3205
   404.30         18.2764
   404.44         18.2375
   404.58         18.2064
   404.72         18.1889
   404.86         18.1895
   405.00         18.2034
   405.14         18.2171
   405.28         18.2137
   405.42         18.1778
   405.56         18.1002
   405.70         17.9807
   405.84         17.8277
   405.98         17.6585
   406.12         17.4981
   406.26         17.3697
   406.40         17.2851
   406.54         17.2444
   406.68         17.2419
   406.82         17.2728
   406.96         17.3353
   407.10         17.4283
   407.24         17.5502
   407.38         17.6979
   407.52         17.8688
   407.66         18.0631
   407.80         18.2831
   407.94         18.5289
   408.08         18.7941
   408.22         19.0644
   408.36         19.3185
   408.50         19.5311
   408.64         19.6781
   408.78         19.7388
   408.92         19.6963
   409.06         19.5434
   409.20         19.2901
   409.34         18.9631
   409.48         18.5976
   409.62         18.2297
   409.76         17.8944
   409.90         17.6244
   410.04         17.4464
   410.18         17.3779
   410.32         17.4231
   410.46         17.5712
   410.60         17.8007
   410.74         18.0844
   410.88         18.3932
   411.02         18.6981
   411.16         18.9740
   411.30         19.2027
   411.44         19.3740
   411.58         19.4872
   411.72         19.5496
   411.86         19.5715
   412.00         19.5598
   412.14         19.5179
   412.28         19.4507
   412.42         19.3666
   412.56         19.2777
   412.70         19.1974
   412.84         19.1362
   412.98         19.0971
   413.12         19.0749
   413.26         19.0624
   413.40         19.0560
   413.54         19.0554
   413.68         19.0605
   413.82         19.0711
   413.96         19.0862
   414.10         19.1028
   414.24         19.1159
   414.38         19.1201
   414.52         19.1127
   414.66         19.0970
   414.80         19.0821
   414.94         19.0793
   415.08         19.0982
   415.22         19.1428
   415.36         19.2107
   415.50         19.2929
   415.64         19.3781
   415.78         19.4569
   415.92         19.5224
   416.06         19.5675
   416.20         19.5842
   416.34         19.5659
   416.48         19.5101
   416.62         19.4193
   416.76         19.3015
   416.90         19.1680
   417.04         19.0321
   417.18         18.9079
   417.32         18.8065
   417.46         18.7320
   417.60         18.6814
   417.74         18.6489
   417.88         18.6292
   418.02         18.6185
   418.16         18.6154
   418.30         18.6183
   418.44         18.6232
   418.58         18.6237
   418.72         18.6140
   418.86         18.5908
   419.00         18.5533
   419.14         18.5023
   419.28         18.4414
   419.42         18.3771
   419.56         18.3170
   419.70         18.2706
   419.84         18.2482
   419.98         18.2594
   420.12         18.3111
   420.26         18.4065
   420.40         18.5428
   420.54         18.7115
   420.68         18.8983
   420.82         19.0849
   420.96         19.2513
   421.10         19.3760
   421.24         19.4377
   421.38         19.4169
   421.52         19.3019
   421.66         19.0963
   421.80         18.8188
   421.94         18.4985
   422.08         18.1665
   422.22         17.8501
   422.36         17.5703
   422.50         17.3418
   422.64         17.1743
   422.78         17.0731
   422.92         17.0392
   423.06         17.0706
   423.20         17.1632
   423.34         17.3080
   423.48         17.4879
   423.62         17.6775
   423.76         17.8476
   423.90         17.9748
   424.04         18.0487
   424.18         18.0729
   424.32         18.0599
   424.46         18.0225
   424.60         17.9678
   424.74         17.8958
   424.88         17.8042
   425.02         17.6968
   425.16         17.5864
   425.30         17.4901
   425.44         17.4234
   425.58         17.3940
   425.72         17.3997
   425.86         17.4277
   426.00         17.4575
   426.14         17.4671
   426.28         17.4416
   426.42         17.3774
   426.56         17.2829
   426.70         17.1735
   426.84         17.0642
   426.98         16.9682
   427.12         16.8963
   427.26         16.8542
   427.40         16.8424
   427.54         16.8580
   427.68         16.8958
   427.82         16.9445
   427.96         16.9873
   428.10         17.0069
   428.24         16.9886
   428.38         16.9219
   428.52         16.8022
   428.66         16.6308
   428.80         16.4142
   428.94         16.1620
   429.08         15.8850
   429.22         15.5940
   429.36         15.2959
   429.50         14.9932
   429.64         14.6855
   429.78         14.3736
   429.92         14.0635
   430.06         13.7694
   430.20         13.5136
   430.34         13.3263
   430.48         13.2424
   430.62         13.2941
   430.76         13.5003
   430.90         13.8594
   431.04         14.3477
   431.18         14.9226
   431.32         15.5306
   431.46         16.1205
   431.60         16.6534
   431.74         17.1051
   431.88         17.4635
   432.02         17.7264
   432.16         17.9026
   432.30         18.0102
   432.44         18.0736
   432.58         18.1155
   432.72         18.1490
   432.86         18.1773
   433.00         18.1988
   433.14         18.2093
   433.28         18.2029
   433.42         18.1737
   433.56         18.1200
   433.70         18.0473
   433.84         17.9672
   433.98         17.8959
   434.12         17.8520
   434.26         17.8524
   434.40         17.9066
   434.54         18.0153
   434.68         18.1710
   434.82         18.3601
   434.96         18.5650
   435.10         18.7695
   435.24         18.9633
   435.38         19.1433
   435.52         19.3125
   435.66         19.4766
   435.80         19.6406
   435.94         19.8050
   436.08         19.9629
   436.22         20.1009
   436.36         20.2030
   436.50         20.2564
   436.64         20.2561
   436.78         20.2056
   436.92         20.1105
   437.06         19.9716
   437.20         19.7844
   437.34         19.5469
   437.48         19.2659
   437.62         18.9573
   437.76         18.6406
   437.90         18.3358
   438.04         18.0615
   438.18         17.8350
   438.32         17.6725
   438.46         17.5882
   438.60         17.5889
   438.74         17.6713
   438.88         17.8232
   439.02         18.0267
   439.16         18.2574
   439.30         18.4841
   439.44         18.6745
   439.58         18.8057
   439.72         18.8696
   439.86         18.8767
   440.00         18.8510
   440.14         18.8172
   440.28         18.7922
   440.42         18.7863
   440.56         18.8087
   440.70         18.8695
   440.84         18.9765
   440.98         19.1313
   441.12         19.3274
   441.26         19.5512
   441.40         19.7843
   441.54         20.0092
   441.68         20.2120
   441.82         20.3830
   441.96         20.5176
   442.10         20.6166
   442.24         20.6821
   442.38         20.7157
   442.52         20.7201
   442.66         20.6996
   442.80         20.6596
   442.94         20.6061
   443.08         20.5474
   443.22         20.4949
   443.36         20.4593
   443.50         20.4465
   443.64         20.4563
   443.78         20.4852
   443.92         20.5288
   444.06         20.5804
   444.20         20.6291
   444.34         20.6618
   444.48         20.6659
   444.62         20.6328
   444.76         20.5586
   444.90         20.4450
   445.04         20.3008
   445.18         20.1406
   445.32         19.9807
   445.46         19.8351
   445.60         19.7168
   445.74         19.6393
   445.88         19.6142
   446.02         19.6478
   446.16         19.7400
   446.30         19.8846
   446.44         20.0719
   446.58         20.2894
   446.72         20.5206
   446.86         20.7456
   447.00         20.9468
   447.14         21.1137
   447.28         21.2433
   447.42         21.3393
   447.56         21.4081
   447.70         21.4572
   447.84         21.4934
   447.98         21.5226
   448.12         21.5480
   448.26         21.5709
   448.40         21.5912
   448.54         21.6091
   448.68         21.6268
   448.82         21.6474
   448.96         21.6735
   449.10         21.7085
   449.24         21.7558
   449.38         21.8176
   449.52         21.8952
   449.66         21.9907
   449.80         22.1055
   449.94         22.2358
   450.08         22.3707
   450.22         22.4953
   450.36         22.5965
   450.50         22.6656
   450.64         22.6973
   450.78         22.6898
   450.92         22.6459
   451.06         22.5716
   451.20         22.4744
   451.34         22.3608
   451.48         22.2323
   451.62         22.0878
   451.76         21.9268
   451.90         21.7504
   452.04         21.5608
   452.18         21.3601
   452.32         21.1530
   452.46         20.9495
   452.60         20.7644
   452.74         20.6132
   452.88         20.5085
   453.02         20.4585
   453.16         20.4641
   453.30         20.5185
   453.44         20.6085
   453.58         20.7167
   453.72         20.8236
   453.86         20.9118
   454.00         20.9688
   454.14         20.9892
   454.28         20.9766
   454.42         20.9423
   454.56         20.9011
   454.70         20.8673
   454.84         20.8550
   454.98         20.8759
   455.12         20.9371
   455.26         21.0380
   455.40         21.1717
   455.54         21.3291
   455.68         21.5005
   455.82         21.6757
   455.96         21.8439
   456.10         21.9971
   456.24         22.1316
   456.38         22.2468
   456.52         22.3437
   456.66         22.4220
   456.80         22.4791
   456.94         22.5115
   457.08         22.5160
   457.22         22.4908
   457.36         22.4364
   457.50         22.3552
   457.64         22.2513
   457.78         22.1327
   457.92         22.0110
   458.06         21.8980
   458.20         21.8030
   458.34         21.7316
   458.48         21.6854
   458.62         21.6630
   458.76         21.6618
   458.90         21.6776
   459.04         21.7050
   459.18         21.7385
   459.32         21.7743
   459.46         21.8110
   459.60         21.8510
   459.74         21.8987
   459.88         21.9570
   460.02         22.0255
   460.16         22.0994
   460.30         22.1720
   460.44         22.2370
   460.58         22.2898
   460.72         22.3281
   460.86         22.3518
   461.00         22.3612
   461.14         22.3587
   461.28         22.3485
   461.42         22.3355
   461.56         22.3249
   461.70         22.3214
   461.84         22.3277
   461.98         22.3433
   462.12         22.3656
   462.26         22.3916
   462.40         22.4156
   462.54         22.4299
   462.68         22.4280
   462.82         22.4079
   462.96         22.3722
   463.10         22.3258
   463.24         22.2723
   463.38         22.2131
   463.52         22.1472
   463.66         22.0743
   463.80         21.9967
   463.94         21.9196
   464.08         21.8493
   464.22         21.7900
   464.36         21.7431
   464.50         21.7090
   464.64         21.6887
   464.78         21.6845
   464.92         21.6977
   465.06         21.7279
   465.20         21.7719
   465.34         21.8242
   465.48         21.8753
   465.62         21.9117
   465.76         21.9210
   465.90         21.8965
   466.04         21.8384
   466.18         21.7535
   466.32         21.6530
   466.46         21.5490
   466.60         21.4525
   466.74         21.3707
   466.88         21.3074
   467.02         21.2670
   467.16         21.2561
   467.30         21.2800
   467.44         21.3388
   467.58         21.4269
   467.72         21.5337
   467.86         21.6452
   468.00         21.7473
   468.14         21.8319
   468.28         21.8981
   468.42         21.9496
   468.56         21.9908
   468.70         22.0214
   468.84         22.0363
   468.98         22.0280
   469.12         21.9904
   469.26         21.9215
   469.40         21.8251
   469.54         21.7091
   469.68         21.5814
   469.82         21.4495
   469.96         21.3205
   470.10         21.2023
   470.24         21.1016
   470.38         21.0244
   470.52         20.9768
   470.66         20.9652
   470.80         20.9936
   470.94         21.0592
   471.08         21.1546
   471.22         21.2714
   471.36         21.4011
   471.50         21.5347
   471.64         21.6618
   471.78         21.7717
   471.92         21.8560
   472.06         21.9089
   472.20         21.9257
   472.34         21.9038
   472.48         21.8464
   472.62         21.7620
   472.76         21.6627
   472.90         21.5612
   473.04         21.4696
   473.18         21.3988
   473.32         21.3565
   473.46         21.3469
   473.60         21.3709
   473.74         21.4268
   473.88         21.5096
   474.02         21.6092
   474.16         21.7118
   474.30         21.8048
   474.44         21.8809
   474.58         21.9379
   474.72         21.9762
   474.86         21.9964
   475.00         21.9998
   475.14         21.9875
   475.28         21.9586
   475.42         21.9108
   475.56         21.8437
   475.70         21.7601
   475.84         21.6649
   475.98         21.5645
   476.12         21.4656
   476.26         21.3762
   476.40         21.3062
   476.54         21.2648
   476.68         21.2575
   476.82         21.2867
   476.96         21.3511
   477.10         21.4438
   477.24         21.5530
   477.38         21.6640
   477.52         21.7616
   477.66         21.8315
   477.80         21.8637
   477.94         21.8563
   478.08         21.8159
   478.22         21.7540
   478.36         21.6826
   478.50         21.6126
   478.64         21.5544
   478.78         21.5158
   478.92         21.5023
   479.06         21.5146
   479.20         21.5482
   479.34         21.5959
   479.48         21.6499
   479.62         21.7019
   479.76         21.7450
   479.90         21.7753
   480.04         21.7935
   480.18         21.8029
   480.32         21.8079
   480.46         21.8135
   480.60         21.8236
   480.74         21.8401
   480.88         21.8636
   481.02         21.8933
   481.16         21.9261
   481.30         21.9574
   481.44         21.9821
   481.58         21.9955
   481.72         21.9928
   481.86         21.9717
   482.00         21.9349
   482.14         21.8875
   482.28         21.8338
   482.42         21.7779
   482.56         21.7245
   482.70         21.6776
   482.84         21.6388
   482.98         21.6083
   483.12         21.5864
   483.26         21.5728
   483.40         21.5663
   483.54         21.5635
   483.68         21.5606
   483.82         21.5546
   483.96         21.5452
   484.10         21.5327
   484.24         21.5139
   484.38         21.4839
   484.52         21.4380
   484.66         21.3706
   484.80         21.2699
   484.94         21.1200
   485.08         20.9101
   485.22         20.6386
   485.36         20.3142
   485.50         19.9553
   485.64         19.5877
   485.78         19.2390
   485.92         18.9317
   486.06         18.6827
   486.20         18.5051
   486.34         18.4095
   486.48         18.4019
   486.62         18.4801
   486.76         18.6315
   486.90         18.8374
   487.04         19.0798
   487.18         19.3410
   487.32         19.6018
   487.46         19.8426
   487.60         20.0495
   487.74         20.2159
   487.88         20.3394
   488.02         20.4179
   488.16         20.4516
   488.30         20.4461
   488.44         20.4120
   488.58         20.3646
   488.72         20.3220
   488.86         20.3014
   489.00         20.3172
   489.14         20.3771
   489.28         20.4803
   489.42         20.6229
   489.56         20.8000
   489.70         21.0005
   489.84         21.2054
   489.98         21.3928
   490.12         21.5434
   490.26         21.6431
   490.40         21.6871
   490.54         21.6791
   490.68         21.6264
   490.82         21.5363
   490.96         21.4126
   491.10         21.2564
   491.24         21.0719
   491.38         20.8679
   491.52         20.6577
   491.66         20.4590
   491.80         20.2906
   491.94         20.1691
   492.08         20.1069
   492.22         20.1073
   492.36         20.1636
   492.50         20.2649
   492.64         20.3983
   492.78         20.5469
   492.92         20.6928
   493.06         20.8220
   493.20         20.9243
   493.34         20.9925
   493.48         21.0253
   493.62         21.0314
   493.76         21.0266
   493.90         21.0283
   494.04         21.0502
   494.18         21.0986
   494.32         21.1729
   494.46         21.2650
   494.60         21.3580
   494.74         21.4300
   494.88         21.4631
   495.02         21.4483
   495.16         21.3851
   495.30         21.2815
   495.44         21.1513
   495.58         21.0121
   495.72         20.8814
   495.86         20.7717
   496.00         20.6894
   496.14         20.6382
   496.28         20.6202
   496.42         20.6357
   496.56         20.6812
   496.70         20.7468
   496.84         20.8173
   496.98         20.8769
   497.12         20.9105
   497.26         20.9054
   497.40         20.8565
   497.54         20.7684
   497.68         20.6507
   497.82         20.5160
   497.96         20.3773
   498.10         20.2446
   498.24         20.1253
   498.38         20.0292
   498.52         19.9673
   498.66         19.9472
   498.80         19.9717
   498.94         20.0378
   499.08         20.1364
   499.22         20.2521
   499.36         20.3657
   499.50         20.4585
   499.64         20.5156
   499.78         20.5281
   499.92         20.4959
   500.06         20.4255
   500.20         20.3261
   500.34         20.2062
   500.48         20.0727
   500.62         19.9314
   500.76         19.7881
   500.90         19.6503
   501.04         19.5264
   501.18         19.4203
   501.32         19.3332
   501.46         19.2668
   501.60         19.2230
   501.74         19.2010
   501.88         19.1991
   502.02         19.2162
   502.16         19.2524
   502.30         19.3085
   502.44         19.3840
   502.58         19.4738
   502.72         19.5691
   502.86         19.6596
   503.00         19.7345
   503.14         19.7848
   503.28         19.8067
   503.42         19.8027
   503.56         19.7796
   503.70         19.7460
   503.84         19.7094
   503.98         19.6761
   504.12         19.6517
   504.26         19.6387
   504.40         19.6376
   504.54         19.6496
   504.68         19.6764
   504.82         19.7179
   504.96         19.7715
   505.10         19.8339
   505.24         19.9005
   505.38         19.9665
   505.52         20.0258
   505.66         20.0732
   505.80         20.1082
   505.94         20.1342
   506.08         20.1531
   506.22         20.1615
   506.36         20.1539
   506.50         20.1260
   506.64         20.0779
   506.78         20.0132
   506.92         19.9347
   507.06         19.8447
   507.20         19.7471
   507.34         19.6480
   507.48         19.5535
   507.62         19.4701
   507.76         19.4039
   507.90         19.3594
   508.04         19.3399
   508.18         19.3486
   508.32         19.3880
   508.46         19.4582
   508.60         19.5540
   508.74         19.6646
   508.88         19.7766
   509.02         19.8779
   509.16         19.9604
   509.30         20.0190
   509.44         20.0502
   509.58         20.0531
   509.72         20.0305
   509.86         19.9903
   510.00         19.9420
   510.14         19.8941
   510.28         19.8531
   510.42         19.8232
   510.56         19.8076
   510.70         19.8090
   510.84         19.8283
   510.98         19.8630
   511.12         19.9086
   511.26         19.9575
   511.40         19.9993
   511.54         20.0247
   511.68         20.0282
   511.82         20.0070
   511.96         19.9599
   512.10         19.8885
   512.24         19.7973
   512.38         19.6934
   512.52         19.5863
   512.66         19.4843
   512.80         19.3909
   512.94         19.3076
   513.08         19.2363
   513.22         19.1783
   513.36         19.1327
   513.50         19.0981
   513.64         19.0717
   513.78         19.0504
   513.92         19.0318
   514.06         19.0156
   514.20         19.0030
   514.34         18.9962
   514.48         18.9974
   514.62         19.0096
   514.76         19.0343
   514.90         19.0701
   515.04         19.1132
   515.18         19.1578
   515.32         19.1956
   515.46         19.2144
   515.60         19.1994
   515.74         19.1352
   515.88         19.0093
   516.02         18.8145
   516.16         18.5484
   516.30         18.2152
   516.44         17.8320
   516.58         17.4281
   516.72         17.0383
   516.86         16.6956
   517.00         16.4263
   517.14         16.2434
   517.28         16.1432
   517.42         16.1113
   517.56         16.1324
   517.70         16.1938
   517.84         16.2834
   517.98         16.3881
   518.12         16.4961
   518.26         16.6006
   518.40         16.7029
   518.54         16.8108
   518.68         16.9327
   518.82         17.0776
   518.96         17.2555
   519.10         17.4719
   519.24         17.7192
   519.38         17.9764
   519.52         18.2145
   519.66         18.4060
   519.80         18.5324
   519.94         18.5916
   520.08         18.5988
   520.22         18.5786
   520.36         18.5509
   520.50         18.5277
   520.64         18.5174
   520.78         18.5270
   520.92         18.5630
   521.06         18.6316
   521.20         18.7340
   521.34         18.8637
   521.48         19.0059
   521.62         19.1407
   521.76         19.2485
   521.90         19.3152
   522.04         19.3348
   522.18         19.3089
   522.32         19.2462
   522.46         19.1617
   522.60         19.0746
   522.74         19.0040
   522.88         18.9628
   523.02         18.9588
   523.16         18.9970
   523.30         19.0795
   523.44         19.2029
   523.58         19.3573
   523.72         19.5276
   523.86         19.6943
   524.00         19.8377
   524.14         19.9432
   524.28         20.0043
   524.42         20.0219
   524.56         20.0019
   524.70         19.9541
   524.84         19.8896
   524.98         19.8189
   525.12         19.7480
   525.26         19.6771
   525.40         19.6001
   525.54         19.5074
   525.68         19.3902
   525.82         19.2412
   525.96         19.0553
   526.10         18.8334
   526.24         18.5840
   526.38         18.3225
   526.52         18.0697
   526.66         17.8503
   526.80         17.6883
   526.94         17.6018
   527.08         17.5999
   527.22         17.6814
   527.36         17.8351
   527.50         18.0415
   527.64         18.2778
   527.78         18.5226
   527.92         18.7596
   528.06         18.9780
   528.20         19.1714
   528.34         19.3363
   528.48         19.4695
   528.62         19.5690
   528.76         19.6350
   528.90         19.6697
   529.04         19.6776
   529.18         19.6652
   529.32         19.6396
   529.46         19.6075
   529.60         19.5750
   529.74         19.5484
   529.88         19.5341
   530.02         19.5383
   530.16         19.5659
   530.30         19.6168
   530.44         19.6872
   530.58         19.7690
   530.72         19.8511
   530.86         19.9218
   531.00         19.9713
   531.14         19.9932
   531.28         19.9838
   531.42         19.9421
   531.56         19.8684
   531.70         19.7619
   531.84         19.6228
   531.98         19.4569
   532.12         19.2740
   532.26         19.0871
   532.40         18.9100
   532.54         18.7561
   532.68         18.6358
   532.82         18.5548
   532.96         18.5142
   533.10         18.5116
   533.24         18.5422
   533.38         18.5999
   533.52         18.6778
   533.66         18.7664
   533.80         18.8549
   533.94         18.9334
   534.08         18.9967
   534.22         19.0453
   534.36         19.0858
   534.50         19.1297
   534.64         19.1877
   534.78         19.2652
   534.92         19.3618
   535.06         19.4728
   535.20         19.5882
   535.34         19.6951
   535.48         19.7806
   535.62         19.8348
   535.76         19.8517
   535.90         19.8279
   536.04         19.7614
   536.18         19.6532
   536.32         19.5099
   536.46         19.3456
   536.60         19.1785
   536.74         19.0271
   536.88         18.9076
   537.02         18.8306
   537.16         18.8003
   537.30         18.8138
   537.44         18.8643
   537.58         18.9425
   537.72         19.0365
   537.86         19.1316
   538.00         19.2141
   538.14         19.2739
   538.28         19.3051
   538.42         19.3055
   538.56         19.2749
   538.70         19.2171
   538.84         19.1413
   538.98         19.0586
   539.12         18.9773
   539.26         18.9008
   539.40         18.8282
   539.54         18.7573
   539.68         18.6877
   539.82         18.6210
   539.96         18.5594
   540.10         18.5078
   540.24         18.4714
   540.38         18.4529
   540.52         18.4538
   540.66         18.4767
   540.80         18.5246
   540.94         18.5988
   541.08         18.6961
   541.22         18.8096
   541.36         18.9310
   541.50         19.0517
   541.64         19.1617
   541.78         19.2504
   541.92         19.3089
   542.06         19.3327
   542.20         19.3224
   542.34         19.2825
   542.48         19.2195
   542.62         19.1418
   542.76         19.0611
   542.90         18.9905
   543.04         18.9414
   543.18         18.9226
   543.32         18.9366
   543.46         18.9789
   543.60         19.0386
   543.74         19.1033
   543.88         19.1650
   544.02         19.2210
   544.16         19.2697
   544.30         19.3058
   544.44         19.3235
   544.58         19.3208
   544.72         19.3014
   544.86         19.2726
   545.00         19.2427
   545.14         19.2190
   545.28         19.2064
   545.42         19.2064
   545.56         19.2158
   545.70         19.2288
   545.84         19.2396
   545.98         19.2439
   546.12         19.2402
   546.26         19.2300
   546.40         19.2162
   546.54         19.1999
   546.68         19.1784
   546.82         19.1469
   546.96         19.1032
   547.10         19.0506
   547.24         18.9963
   547.38         18.9472
   547.52         18.9071
   547.66         18.8770
   547.80         18.8561
   547.94         18.8436
   548.08         18.8404
   548.22         18.8482
   548.36         18.8685
   548.50         18.9015
   548.64         18.9451
   548.78         18.9945
   548.92         19.0444
   549.06         19.0908
   549.20         19.1310
   549.34         19.1635
   549.48         19.1875
   549.62         19.2011
   549.76         19.2034
   549.90         19.1953
   550.04         19.1784
   550.18         19.1530
   550.32         19.1196
   550.46         19.0804
   550.60         19.0398
   550.74         19.0032
   550.88         18.9763
   551.02         18.9647
   551.16         18.9712
   551.30         18.9949
   551.44         19.0322
   551.58         19.0789
   551.72         19.1274
   551.86         19.1674
   552.00         19.1907
   552.14         19.1942
   552.28         19.1791
   552.42         19.1481
   552.56         19.1053
   552.70         19.0544
   552.84         18.9996
   552.98         18.9471
   553.12         18.9039
   553.26         18.8753
   553.40         18.8640
   553.54         18.8703
   553.68         18.8923
   553.82         18.9264
   553.96         18.9691
   554.10         19.0172
   554.24         19.0666
   554.38         19.1132
   554.52         19.1537
   554.66         19.1866
   554.80         19.2098
   554.94         19.2211
   555.08         19.2194
   555.22         19.2048
   555.36         19.1777
   555.50         19.1396
   555.64         19.0929
   555.78         19.0401
   555.92         18.9841
   556.06         18.9283
   556.20         18.8753
   556.34         18.8267
   556.48         18.7826
   556.62         18.7435
   556.76         18.7105
   556.90         18.6847
   557.04         18.6668
   557.18         18.6570
   557.32         18.6545
   557.46         18.6581
   557.60         18.6646
   557.74         18.6670
   557.88         18.6568
   558.02         18.6275
   558.16         18.5769
   558.30         18.5067
   558.44         18.4214
   558.58         18.3280
   558.72         18.2336
   558.86         18.1449
   559.00         18.0681
   559.14         18.0087
   559.28         17.9691
   559.42         17.9484
   559.56         17.9451
   559.70         17.9585
   559.84         17.9868
   559.98         18.0281
   560.12         18.0806
   560.26         18.1413
   560.40         18.2065
   560.54         18.2711
   560.68         18.3302
   560.82         18.3802
   560.96         18.4182
   561.10         18.4420
   561.24         18.4501
   561.38         18.4420
   561.52         18.4180
   561.66         18.3811
   561.80         18.3374
   561.94         18.2952
   562.08         18.2637
   562.22         18.2508
   562.36         18.2604
   562.50         18.2914
   562.64         18.3407
   562.78         18.4038
   562.92         18.4738
   563.06         18.5437
   563.20         18.6079
   563.34         18.6629
   563.48         18.7076
   563.62         18.7416
   563.76         18.7632
   563.90         18.7704
   564.04         18.7626
   564.18         18.7415
   564.32         18.7114
   564.46         18.6768
   564.60         18.6403
   564.74         18.6023
   564.88         18.5610
   565.02         18.5154
   565.16         18.4658
   565.30         18.4135
   565.44         18.3584
   565.58         18.3014
   565.72         18.2452
   565.86         18.1937
   566.00         18.1517
   566.14         18.1247
   566.28         18.1179
   566.42         18.1336
   566.56         18.1721
   566.70         18.2319
   566.84         18.3088
   566.98         18.3958
   567.12         18.4844
   567.26         18.5654
   567.40         18.6306
   567.54         18.6740
   567.68         18.6925
   567.82         18.6856
   567.96         18.6552
   568.10         18.6060
   568.24         18.5450
   568.38         18.4792
   568.52         18.4150
   568.66         18.3582
   568.80         18.3133
   568.94         18.2823
   569.08         18.2637
   569.22         18.2550
   569.36         18.2542
   569.50         18.2587
   569.64         18.2645
   569.78         18.2662
   569.92         18.2577
   570.06         18.2339
   570.20         18.1923
   570.34         18.1340
   570.48         18.0638
   570.62         17.9888
   570.76         17.9159
   570.90         17.8511
   571.04         17.8017
   571.18         17.7768
   571.32         17.7834
   571.46         17.8235
   571.60         17.8948
   571.74         17.9918
   571.88         18.1070
   572.02         18.2317
   572.16         18.3558
   572.30         18.4692
   572.44         18.5634
   572.58         18.6319
   572.72         18.6726
   572.86         18.6869
   573.00         18.6783
   573.14         18.6514
   573.28         18.6116
   573.42         18.5643
   573.56         18.5154
   573.70         18.4710
   573.84         18.4347
   573.98         18.4064
   574.12         18.3838
   574.26         18.3641
   574.40         18.3454
   574.54         18.3262
   574.68         18.3040
   574.82         18.2768
   574.96         18.2432
   575.10         18.2037
   575.24         18.1598
   575.38         18.1140
   575.52         18.0707
   575.66         18.0353
   575.80         18.0138
   575.94         18.0110
   576.08         18.0283
   576.22         18.0647
   576.36         18.1182
   576.50         18.1840
   576.64         18.2549
   576.78         18.3231
   576.92         18.3806
   577.06         18.4200
   577.20         18.4354
   577.34         18.4238
   577.48         18.3856
   577.62         18.3238
   577.76         18.2436
   577.90         18.1520
   578.04         18.0580
   578.18         17.9714
   578.32         17.8998
   578.46         17.8477
   578.60         17.8168
   578.74         17.8065
   578.88         17.8147
   579.02         17.8392
   579.16         17.8767
   579.30         17.9235
   579.44         17.9744
   579.58         18.0234
   579.72         18.0663
   579.86         18.1006
   580.00         18.1255
   580.14         18.1417
   580.28         18.1519
   580.42         18.1588
   580.56         18.1632
   580.70         18.1649
   580.84         18.1652
   580.98         18.1672
   581.12         18.1747
   581.26         18.1903
   581.40         18.2157
   581.54         18.2517
   581.68         18.2975
   581.82         18.3507
   581.96         18.4072
   582.10         18.4617
   582.24         18.5095
   582.38         18.5480
   582.52         18.5757
   582.66         18.5932
   582.80         18.6029
   582.94         18.6075
   583.08         18.6092
   583.22         18.6098
   583.36         18.6108
   583.50         18.6130
   583.64         18.6147
   583.78         18.6128
   583.92         18.6041
   584.06         18.5870
   584.20         18.5601
   584.34         18.5217
   584.48         18.4705
   584.62         18.4056
   584.76         18.3271
   584.90         18.2384
   585.04         18.1458
   585.18         18.0562
   585.32         17.9762
   585.46         17.9115
   585.60         17.8656
   585.74         17.8403
   585.88         17.8370
   586.02         17.8549
   586.16         17.8926
   586.30         17.9479
   586.44         18.0175
   586.58         18.0960
   586.72         18.1771
   586.86         18.2536
   587.00         18.3176
   587.14         18.3621
   587.28         18.3836
   587.42         18.3815
   587.56         18.3560
   587.70         18.3031
   587.84         18.2145
   587.98         18.0830
   588.12         17.9091
   588.26         17.6992
   588.40         17.4620
   588.54         17.2061
   588.68         16.9427
   588.82         16.6880
   588.96         16.4612
   589.10         16.2799
   589.24         16.1578
   589.38         16.1040
   589.52         16.1210
   589.66         16.2054
   589.80         16.3486
   589.94         16.5378
   590.08         16.7552
   590.22         16.9802
   590.36         17.1927
   590.50         17.3797
   590.64         17.5362
   590.78         17.6613
   590.92         17.7538
   591.06         17.8129
   591.20         17.8426
   591.34         17.8514
   591.48         17.8476
   591.62         17.8375
   591.76         17.8242
   591.90         17.8076
   592.04         17.7860
   592.18         17.7584
   592.32         17.7252
   592.46         17.6893
   592.60         17.6555
   592.74         17.6279
   592.88         17.6090
   593.02         17.5995
   593.16         17.5987
   593.30         17.6051
   593.44         17.6169
   593.58         17.6322
   593.72         17.6475
   593.86         17.6580
   594.00         17.6596
   594.14         17.6501
   594.28         17.6287
   594.42         17.5952
   594.56         17.5518
   594.70         17.5048
   594.84         17.4621
   594.98         17.4312
   595.12         17.4178
   595.26         17.4238
   595.40         17.4457
   595.54         17.4774
   595.68         17.5132
   595.82         17.5491
   595.96         17.5821
   596.10         17.6083
   596.24         17.6230
   596.38         17.6235
   596.52         17.6097
   596.66         17.5825
   596.80         17.5439
   596.94         17.4981
   597.08         17.4511
   597.22         17.4069
   597.36         17.3665
   597.50         17.3296
   597.64         17.2968
   597.78         17.2694
   597.92         17.2486
   598.06         17.2356
   598.20         17.2333
   598.34         17.2457
   598.48         17.2759
   598.62         17.3233
   598.76         17.3838
   598.90         17.4526
   599.04         17.5247
   599.18         17.5933
   599.32         17.6511
   599.46         17.6929
   599.60         17.7143
   599.74         17.7108
   599.88         17.6803
   600.02         17.6268
   600.16         17.5583
   600.30         17.4827
   600.44         17.4069
   600.58         17.3364
   600.72         17.2750
   600.86         17.2236
   601.00         17.1808
   601.14         17.1438
   601.28         17.1090
   601.42         17.0736
   601.56         17.0357
   601.70         16.9941
   601.84         16.9496
   601.98         16.9048
   602.12         16.8627
   602.26         16.8270
   602.40         16.8022
   602.54         16.7913
   602.68         16.7948
   602.82         16.8104
   602.96         16.8354
   603.10         16.8667
   603.24         16.9019
   603.38         16.9388
   603.52         16.9753
   603.66         17.0104
   603.80         17.0439
   603.94         17.0761
   604.08         17.1060
   604.22         17.1325
   604.36         17.1548
   604.50         17.1722
   604.64         17.1845
   604.78         17.1924
   604.92         17.1969
   605.06         17.1982
   605.20         17.1951
   605.34         17.1866
   605.48         17.1722
   605.62         17.1522
   605.76         17.1282
   605.90         17.1031
   606.04         17.0794
   606.18         17.0589
   606.32         17.0427
   606.46         17.0308
   606.60         17.0222
   606.74         17.0154
   606.88         17.0088
   607.02         17.0014
   607.16         16.9929
   607.30         16.9835
   607.44         16.9729
   607.58         16.9608
   607.72         16.9462
   607.86         16.9292
   608.00         16.9105
   608.14         16.8924
   608.28         16.8775
   608.42         16.8671
   608.56         16.8607
   608.70         16.8561
   608.84         16.8501
   608.98         16.8375
   609.12         16.8137
   609.26         16.7768
   609.40         16.7285
   609.54         16.6729
   609.68         16.6154
   609.82         16.5623
   609.96         16.5195
   610.10         16.4915
   610.24         16.4819
   610.38         16.4921
   610.52         16.5216
   610.66         16.5679
   610.80         16.6261
   610.94         16.6880
   611.08         16.7435
   611.22         16.7839
   611.36         16.8039
   611.50         16.8010
   611.64         16.7764
   611.78         16.7356
   611.92         16.6868
   612.06         16.6377
   612.20         16.5940
   612.34         16.5583
   612.48         16.5281
   612.62         16.4984
   612.76         16.4660
   612.90         16.4300
   613.04         16.3901
   613.18         16.3459
   613.32         16.2981
   613.46         16.2489
   613.60         16.2029
   613.74         16.1661
   613.88         16.1453
   614.02         16.1450
   614.16         16.1662
   614.30         16.2072
   614.44         16.2635
   614.58         16.3286
   614.72         16.3942
   614.86         16.4507
   615.00         16.4876
   615.14         16.4961
   615.28         16.4746
   615.42         16.4281
   615.56         16.3628
   615.70         16.2838
   615.84         16.1958
   615.98         16.1050
   616.12         16.0188
   616.26         15.9449
   616.40         15.8894
   616.54         15.8563
   616.68         15.8485
   616.82         15.8670
   616.96         15.9107
   617.10         15.9762
   617.24         16.0578
   617.38         16.1477
   617.52         16.2380
   617.66         16.3219
   617.80         16.3950
   617.94         16.4549
   618.08         16.4994
   618.22         16.5265
   618.36         16.5359
   618.50         16.5308
   618.64         16.5175
   618.78         16.5039
   618.92         16.4964
   619.06         16.4989
   619.20         16.5144
   619.34         16.5439
   619.48         16.5863
   619.62         16.6389
   619.76         16.6971
   619.90         16.7558
   620.04         16.8099
   620.18         16.8536
   620.32         16.8814
   620.46         16.8891
   620.60         16.8754
   620.74         16.8427
   620.88         16.7961
   621.02         16.7405
   621.16         16.6809
   621.30         16.6224
   621.44         16.5698
   621.58         16.5267
   621.72         16.4947
   621.86         16.4727
   622.00         16.4565
   622.14         16.4419
   622.28         16.4260
   622.42         16.4074
   622.56         16.3858
   622.70         16.3609
   622.84         16.3326
   622.98         16.3022
   623.12         16.2724
   623.26         16.2462
   623.40         16.2251
   623.54         16.2092
   623.68         16.1985
   623.82         16.1938
   623.96         16.1953
   624.10         16.2016
   624.24         16.2089
   624.38         16.2127
   624.52         16.2096
   624.66         16.1987
   624.80         16.1823
   624.94         16.1632
   625.08         16.1423
   625.22         16.1161
   625.36         16.0811
   625.50         16.0374
   625.64         15.9883
   625.78         15.9387
   625.92         15.8933
   626.06         15.8562
   626.20         15.8315
   626.34         15.8226
   626.48         15.8301
   626.62         15.8506
   626.76         15.8784
   626.90         15.9071
   627.04         15.9319
   627.18         15.9502
   627.32         15.9614
   627.46         15.9662
   627.60         15.9666
   627.74         15.9643
   627.88         15.9620
   628.02         15.9639
   628.16         15.9742
   628.30         15.9944
   628.44         16.0236
   628.58         16.0587
   628.72         16.0957
   628.86         16.1295
   629.00         16.1543
   629.14         16.1654
   629.28         16.1610
   629.42         16.1433
   629.56         16.1175
   629.70         16.0902
   629.84         16.0677
   629.98         16.0542
   630.12         16.0513
   630.26         16.0569
   630.40         16.0670
   630.54         16.0766
   630.68         16.0817
   630.82         16.0790
   630.96         16.0672
   631.10         16.0464
   631.24         16.0184
   631.38         15.9864
   631.52         15.9550
   631.66         15.9298
   631.80         15.9156
   631.94         15.9157
   632.08         15.9310
   632.22         15.9598
   632.36         15.9973
   632.50         16.0361
   632.64         16.0690
   632.78         16.0905
   632.92         16.0974
   633.06         16.0892
   633.20         16.0671
   633.34         16.0341
   633.48         15.9950
   633.62         15.9561
   633.76         15.9226
   633.90         15.8978
   634.04         15.8836
   634.18         15.8810
   634.32         15.8889
   634.46         15.9047
   634.60         15.9256
   634.74         15.9480
   634.88         15.9679
   635.02         15.9809
   635.16         15.9847
   635.30         15.9788
   635.44         15.9643
   635.58         15.9428
   635.72         15.9167
   635.86         15.8881
   636.00         15.8598
   636.14         15.8347
   636.28         15.8155
   636.42         15.8038
   636.56         15.8010
   636.70         15.8072
   636.84         15.8207
   636.98         15.8373
   637.12         15.8533
   637.26         15.8659
   637.40         15.8732
   637.54         15.8739
   637.68         15.8682
   637.82         15.8577
   637.96         15.8442
   638.10         15.8286
   638.24         15.8108
   638.38         15.7902
   638.52         15.7674
   638.66         15.7437
   638.80         15.7196
   638.94         15.6936
   639.08         15.6640
   639.22         15.6311
   639.36         15.5959
   639.50         15.5601
   639.64         15.5261
   639.78         15.4963
   639.92         15.4728
   640.06         15.4563
   640.20         15.4469
   640.34         15.4445
   640.48         15.4484
   640.62         15.4568
   640.76         15.4674
   640.90         15.4774
   641.04         15.4855
   641.18         15.4911
   641.32         15.4947
   641.46         15.4970
   641.60         15.5001
   641.74         15.5072
   641.88         15.5199
   642.02         15.5370
   642.16         15.5565
   642.30         15.5769
   642.44         15.5977
   642.58         15.6182
   642.72         15.6367
   642.86         15.6511
   643.00         15.6604
   643.14         15.6645
   643.28         15.6645
   643.42         15.6616
   643.56         15.6575
   643.70         15.6532
   643.84         15.6488
   643.98         15.6437
   644.12         15.6372
   644.26         15.6292
   644.40         15.6191
   644.54         15.6062
   644.68         15.5911
   644.82         15.5756
   644.96         15.5608
   645.10         15.5452
   645.24         15.5265
   645.38         15.5042
   645.52         15.4809
   645.66         15.4609
   645.80         15.4468
   645.94         15.4384
   646.08         15.4343
   646.22         15.4328
   646.36         15.4330
   646.50         15.4348
   646.64         15.4395
   646.78         15.4482
   646.92         15.4605
   647.06         15.4753
   647.20         15.4914
   647.34         15.5087
   647.48         15.5270
   647.62         15.5453
   647.76         15.5623
   647.90         15.5777
   648.04         15.5904
   648.18         15.5969
   648.32         15.5909
   648.46         15.5663
   648.60         15.5208
   648.74         15.4568
   648.88         15.3801
   649.02         15.2985
   649.16         15.2212
   649.30         15.1577
   649.44         15.1160
   649.58         15.1014
   649.72         15.1164
   649.86         15.1602
   650.00         15.2293
   650.14         15.3172
   650.28         15.4145
   650.42         15.5112
   650.56         15.5980
   650.70         15.6678
   650.84         15.7173
   650.98         15.7471
   651.12         15.7614
   651.26         15.7659
   651.40         15.7665
   651.54         15.7676
   651.68         15.7717
   651.82         15.7796
   651.96         15.7912
   652.10         15.8050
   652.24         15.8196
   652.38         15.8333
   652.52         15.8444
   652.66         15.8511
   652.80         15.8525
   652.94         15.8483
   653.08         15.8392
   653.22         15.8265
   653.36         15.8120
   653.50         15.7961
   653.64         15.7779
   653.78         15.7566
   653.92         15.7326
   654.06         15.7066
   654.20         15.6784
   654.34         15.6472
   654.48         15.6111
   654.62         15.5675
   654.76         15.5123
   654.90         15.4387
   655.04         15.3361
   655.18         15.1929
   655.32         15.0041
   655.46         14.7754
   655.60         14.5205
   655.74         14.2584
   655.88         14.0096
   656.02         13.7947
   656.16         13.6313
   656.30         13.5332
   656.44         13.5088
   656.58         13.5599
   656.72         13.6814
   656.86         13.8615
   657.00         14.0830
   657.14         14.3265
   657.28         14.5717
   657.42         14.7998
   657.56         14.9953
   657.70         15.1503
   657.84         15.2664
   657.98         15.3514
   658.12         15.4128
   658.26         15.4535
   658.40         15.4747
   658.54         15.4778
   658.68         15.4654
   658.82         15.4415
   658.96         15.4118
   659.10         15.3824
   659.24         15.3593
   659.38         15.3458
   659.52         15.3432
   659.66         15.3508
   659.80         15.3666
   659.94         15.3876
   660.08         15.4107
   660.22         15.4336
   660.36         15.4542
   660.50         15.4713
   660.64         15.4840
   660.78         15.4920
   660.92         15.4973
   661.06         15.5033
   661.20         15.5133
   661.34         15.5286
   661.48         15.5487
   661.62         15.5713
   661.76         15.5928
   661.90         15.6100
   662.04         15.6193
   662.18         15.6174
   662.32         15.6021
   662.46         15.5737
   662.60         15.5345
   662.74         15.4879
   662.88         15.4375
   663.02         15.3865
   663.16         15.3371
   663.30         15.2904
   663.44         15.2467
   663.58         15.2076
   663.72         15.1750
   663.86         15.1498
   664.00         15.1316
   664.14         15.1196
   664.28         15.1138
   664.42         15.1139
   664.56         15.1188
   664.70         15.1264
   664.84         15.1345
   664.98         15.1417
   665.12         15.1468
   665.26         15.1475
   665.40         15.1416
   665.54         15.1283
   665.68         15.1079
   665.82         15.0821
   665.96         15.0535
   666.10         15.0253
   666.24         15.0006
   666.38         14.9803
   666.52         14.9632
   666.66         14.9469
   666.80         14.9295
   666.94         14.9104
   667.08         14.8894
   667.22         14.8671
   667.36         14.8454
   667.50         14.8261
   667.64         14.8115
   667.78         14.8040
   667.92         14.8061
   668.06         14.8200
   668.20         14.8461
   668.34         14.8828
   668.48         14.9261
   668.62         14.9705
   668.76         15.0101
   668.90         15.0397
   669.04         15.0559
   669.18         15.0574
   669.32         15.0454
   669.46         15.0231
   669.60         14.9951
   669.74         14.9652
   669.88         14.9371
   670.02         14.9133
   670.16         14.8947
   670.30         14.8809
   670.44         14.8699
   670.58         14.8581
   670.72         14.8419
   670.86         14.8180
   671.00         14.7856
   671.14         14.7458
   671.28         14.7023
   671.42         14.6604
   671.56         14.6250
   671.70         14.5997
   671.84         14.5861
   671.98         14.5843
   672.12         14.5931
   672.26         14.6106
   672.40         14.6342
   672.54         14.6607
   672.68         14.6866
   672.82         14.7079
   672.96         14.7213
   673.10         14.7250
   673.24         14.7187
   673.38         14.7041
   673.52         14.6844
   673.66         14.6626
   673.80         14.6404
   673.94         14.6181
   674.08         14.5959
   674.22         14.5743
   674.36         14.5545
   674.50         14.5379
   674.64         14.5255
   674.78         14.5182
   674.92         14.5162
   675.06         14.5194
   675.20         14.5271
   675.34         14.5385
   675.48         14.5525
   675.62         14.5672
   675.76         14.5805
   675.90         14.5902
   676.04         14.5954
   676.18         14.5959
   676.32         14.5913
   676.46         14.5822
   676.60         14.5704
   676.74         14.5583
   676.88         14.5476
   677.02         14.5388
   677.16         14.5309
   677.30         14.5228
   677.44         14.5138
   677.58         14.5047
   677.72         14.4974
   677.86         14.4931
   678.00         14.4917
   678.14         14.4921
   678.28         14.4935
   678.42         14.4959
   678.56         14.4996
   678.70         14.5053
   678.84         14.5131
   678.98         14.5225
   679.12         14.5322
   679.26         14.5408
   679.40         14.5471
   679.54         14.5499
   679.68         14.5491
   679.82         14.5451
   679.96         14.5388
   680.10         14.5311
   680.24         14.5231
   680.38         14.5150
   680.52         14.5057
   680.66         14.4944
   680.80         14.4813
   680.94         14.4667
   681.08         14.4514
   681.22         14.4360
   681.36         14.4211
   681.50         14.4066
   681.64         14.3916
   681.78         14.3755
   681.92         14.3585
   682.06         14.3412
   682.20         14.3242
   682.34         14.3085
   682.48         14.2943
   682.62         14.2822
   682.76         14.2721
   682.90         14.2633
   683.04         14.2553
   683.18         14.2473
   683.32         14.2387
   683.46         14.2293
   683.60         14.2189
   683.74         14.2073
   683.88         14.1947
   684.02         14.1817
   684.16         14.1692
   684.30         14.1576
   684.44         14.1475
   684.58         14.1395
   684.72         14.1336
   684.86         14.1295
   685.00         14.1259
   685.14         14.1207
   685.28         14.1105
   685.42         14.0902
   685.56         14.0515
   685.70         13.9833
   685.84         13.8744
   685.98         13.7174
   686.12         13.5106
   686.26         13.2582
   686.40         12.9711
   686.54         12.6659
   686.68         12.3632
   686.82         12.0847
   686.96         11.8513
   687.10         11.6806
   687.24         11.5839
   687.38         11.5648
   687.52         11.6183
   687.66         11.7320
   687.80         11.8878
   687.94         12.0646
   688.08         12.2406
   688.22         12.3963
   688.36         12.5196
   688.50         12.6070
   688.64         12.6622
   688.78         12.6923
   688.92         12.7058
   689.06         12.7115
   689.20         12.7177
   689.34         12.7305
   689.48         12.7534
   689.62         12.7872
   689.76         12.8308
   689.90         12.8814
   690.04         12.9362
   690.18         12.9919
   690.32         13.0463
   690.46         13.0981
   690.60         13.1468
   690.74         13.1920
   690.88         13.2340
   691.02         13.2736
   691.16         13.3116
   691.30         13.3476
   691.44         13.3806
   691.58         13.4102
   691.72         13.4369
   691.86         13.4613
   692.00         13.4842
   692.14         13.5057
   692.28         13.5260
   692.42         13.5454
   692.56         13.5642
   692.70         13.5821
   692.84         13.5989
   692.98         13.6148
   693.12         13.6308
   693.26         13.6476
   693.40         13.6654
   693.54         13.6840
   693.68         13.7028
   693.82         13.7209
   693.96         13.7375
   694.10         13.7533
   694.24         13.7691
   694.38         13.7853
   694.52         13.8017
   694.66         13.8172
   694.80         13.8304
   694.94         13.8401
   695.08         13.8453
   695.22         13.8451
   695.36         13.8392
   695.50         13.8281
   695.64         13.8144
   695.78         13.8010
   695.92         13.7901
   696.06         13.7832
   696.20         13.7815
   696.34         13.7864
   696.48         13.7981
   696.62         13.8154
   696.76         13.8352
   696.90         13.8545
   697.04         13.8712
   697.18         13.8841
   697.32         13.8924
   697.46         13.8965
   697.60         13.8972
   697.74         13.8947
   697.88         13.8890
   698.02         13.8805
   698.16         13.8703
   698.30         13.8598
   698.44         13.8502
   698.58         13.8421
   698.72         13.8359
   698.86         13.8318
   699.00         13.8302
   699.14         13.8310
   699.28         13.8336
   699.42         13.8369
   699.56         13.8401
   699.70         13.8426
   699.84         13.8439
   699.98         13.8444
   700.12         13.8441
   700.26         13.8423
   700.40         13.8380
   700.54         13.8304
   700.68         13.8199
   700.82         13.8080
   700.96         13.7962
   701.10         13.7844
   701.24         13.7718
   701.38         13.7575
   701.52         13.7408
   701.66         13.7216
   701.80         13.6999
   701.94         13.6754
   702.08         13.6485
   702.22         13.6208
   702.36         13.5952
   702.50         13.5732
   702.64         13.5558
   702.78         13.5431
   702.92         13.5343
   703.06         13.5293
   703.20         13.5281
   703.34         13.5316
   703.48         13.5400
   703.62         13.5524
   703.76         13.5680
   703.90         13.5862
   704.04         13.6068
   704.18         13.6285
   704.32         13.6503
   704.46         13.6709
   704.60         13.6891
   704.74         13.7040
   704.88         13.7151
   705.02         13.7215
   705.16         13.7230
   705.30         13.7195
   705.44         13.7113
   705.58         13.6984
   705.72         13.6805
   705.86         13.6582
   706.00         13.6334
   706.14         13.6081
   706.28         13.5845
   706.42         13.5648
   706.56         13.5508
   706.70         13.5439
   706.84         13.5447
   706.98         13.5540
   707.12         13.5715
   707.26         13.5953
   707.40         13.6220
   707.54         13.6487
   707.68         13.6730
   707.82         13.6925
   707.96         13.7051
   708.10         13.7093
   708.24         13.7053
   708.38         13.6954
   708.52         13.6824
   708.66         13.6691
   708.80         13.6574
   708.94         13.6487
   709.08         13.6436
   709.22         13.6421
   709.36         13.6434
   709.50         13.6463
   709.64         13.6490
   709.78         13.6495
   709.92         13.6464
   710.06         13.6397
   710.20         13.6308
   710.34         13.6212
   710.48         13.6122
   710.62         13.6050
   710.76         13.6004
   710.90         13.5994
   711.04         13.6017
   711.18         13.6057
   711.32         13.6098
   711.46         13.6129
   711.60         13.6134
   711.74         13.6102
   711.88         13.6030
   712.02         13.5922
   712.16         13.5785
   712.30         13.5632
   712.44         13.5489
   712.58         13.5387
   712.72         13.5345
   712.86         13.5371
   713.00         13.5458
   713.14         13.5586
   713.28         13.5720
   713.42         13.5824
   713.56         13.5871
   713.70         13.5828
   713.84         13.5671
   713.98         13.5400
   714.12         13.5039
   714.26         13.4626
   714.40         13.4206
   714.54         13.3820
   714.68         13.3502
   714.82         13.3280
   714.96         13.3172
   715.10         13.3174
   715.24         13.3259
   715.38         13.3375
   715.52         13.3477
   715.66         13.3539
   715.80         13.3547
   715.94         13.3486
   716.08         13.3347
   716.22         13.3126
   716.36         13.2836
   716.50         13.2502
   716.64         13.2161
   716.78         13.1842
   716.92         13.1552
   717.06         13.1276
   717.20         13.0986
   717.34         13.0646
   717.48         13.0216
   717.62         12.9664
   717.76         12.8983
   717.90         12.8189
   718.04         12.7318
   718.18         12.6424
   718.32         12.5564
   718.46         12.4789
   718.60         12.4146
   718.74         12.3677
   718.88         12.3410
   719.02         12.3352
   719.16         12.3487
   719.30         12.3781
   719.44         12.4173
   719.58         12.4589
   719.72         12.4976
   719.86         12.5312
   720.00         12.5608
   720.14         12.5897
   720.28         12.6229
   720.42         12.6649
   720.56         12.7184
   720.70         12.7842
   720.84         12.8622
   720.98         12.9506
   721.12         13.0452
   721.26         13.1391
   721.40         13.2248
   721.54         13.2963
   721.68         13.3494
   721.82         13.3824
   721.96         13.3948
   722.10         13.3865
   722.24         13.3590
   722.38         13.3159
   722.52         13.2623
   722.66         13.2032
   722.80         13.1415
   722.94         13.0792
   723.08         13.0176
   723.22         12.9583
   723.36         12.9029
   723.50         12.8536
   723.64         12.8129
   723.78         12.7826
   723.92         12.7635
   724.06         12.7554
   724.20         12.7569
   724.34         12.7660
   724.48         12.7815
   724.62         12.8018
   724.76         12.8258
   724.90         12.8532
   725.04         12.8837
   725.18         12.9154
   725.32         12.9442
   725.46         12.9660
   725.60         12.9794
   725.74         12.9849
   725.88         12.9839
   726.02         12.9781
   726.16         12.9683
   726.30         12.9545
   726.44         12.9357
   726.58         12.9112
   726.72         12.8822
   726.86         12.8523
   727.00         12.8255
   727.14         12.8045
   727.28         12.7902
   727.42         12.7827
   727.56         12.7796
   727.70         12.7763
   727.84         12.7677
   727.98         12.7507
   728.12         12.7248
   728.26         12.6908
   728.40         12.6501
   728.54         12.6056
   728.68         12.5610
   728.82         12.5203
   728.96         12.4868
   729.10         12.4624
   729.24         12.4489
   729.38         12.4484
   729.52         12.4614
   729.66         12.4854
   729.80         12.5154
   729.94         12.5456
   730.08         12.5709
   730.22         12.5874
   730.36         12.5936
   730.50         12.5904
   730.64         12.5805
   730.78         12.5666
   730.92         12.5509
   731.06         12.5356
   731.20         12.5228
   731.34         12.5131
   731.48         12.5054
   731.62         12.4986
   731.76         12.4924
   731.90         12.4880
   732.04         12.4862
   732.18         12.4864
   732.32         12.4881
   732.46         12.4922
   732.60         12.5005
   732.74         12.5141
   732.88         12.5323
   733.02         12.5536
   733.16         12.5772
   733.30         12.6017
   733.44         12.6264
   733.58         12.6507
   733.72         12.6741
   733.86         12.6949
   734.00         12.7107
   734.14         12.7196
   734.28         12.7211
   734.42         12.7162
   734.56         12.7061
   734.70         12.6916
   734.84         12.6734
   734.98         12.6524
   735.12         12.6298
   735.26         12.6058
   735.40         12.5808
   735.54         12.5556
   735.68         12.5323
   735.82         12.5121
   735.96         12.4957
   736.10         12.4830
   736.24         12.4739
   736.38         12.4677
   736.52         12.4640
   736.66         12.4632
   736.80         12.4657
   736.94         12.4707
   737.08         12.4756
   737.22         12.4767
   737.36         12.4705
   737.50         12.4542
   737.64         12.4259
   737.78         12.3846
   737.92         12.3309
   738.06         12.2662
   738.20         12.1932
   738.34         12.1157
   738.48         12.0385
   738.62         11.9668
   738.76         11.9058
   738.90         11.8601
   739.04         11.8328
   739.18         11.8246
   739.32         11.8340
   739.46         11.8578
   739.60         11.8902
   739.74         11.9249
   739.88         11.9564
   740.02         11.9806
   740.16         11.9948
   740.30         11.9982
   740.44         11.9920
   740.58         11.9780
   740.72         11.9588
   740.86         11.9377
   741.00         11.9172
   741.14         11.8993
   741.28         11.8851
   741.42         11.8750
   741.56         11.8687
   741.70         11.8656
   741.84         11.8650
   741.98         11.8657
   742.12         11.8660
   742.26         11.8643
   742.40         11.8601
   742.54         11.8550
   742.68         11.8508
   742.82         11.8484
   742.96         11.8484
   743.10         11.8508
   743.24         11.8550
   743.38         11.8601
   743.52         11.8643
   743.66         11.8660
   743.80         11.8657
   743.94         11.8650
   744.08         11.8656
   744.22         11.8687
