# File HD17520
# Wavelength [nm]    Normalized Amplitude
   349.70         630.7096
   349.84         632.7067
   349.98         633.8837
   350.12         634.1584
   350.26         633.5869
   350.40         632.3632
   350.54         630.7492
   350.68         629.0256
   350.82         627.4889
   350.96         626.4226
   351.10         626.0396
   351.24         626.4226
   351.38         627.4889
   351.52         629.0256
   351.66         630.7492
   351.80         632.3632
   351.94         633.5869
   352.08         634.1584
   352.22         633.8837
   352.36         632.7067
   352.50         630.7096
   352.64         628.0420
   352.78         624.8987
   352.92         621.5336
   353.06         618.2273
   353.20         615.2539
   353.34         612.8522
   353.48         611.1835
   353.62         610.2998
   353.76         610.1416
   353.90         610.5557
   354.04         611.3021
   354.18         612.0837
   354.32         612.6332
   354.46         612.7845
   354.60         612.4469
   354.74         611.5864
   354.88         610.2681
   355.02         608.6366
   355.16         606.8304
   355.30         604.9370
   355.44         603.0192
   355.58         601.1876
   355.72         599.6047
   355.86         598.3861
   356.00         597.5243
   356.14         596.9212
   356.28         596.4721
   356.42         596.0711
   356.56         595.5488
   356.70         594.6708
   356.84         593.2313
   356.98         591.1281
   357.12         588.3466
   357.26         584.9244
   357.40         580.9506
   357.54         576.5561
   357.68         571.8947
   357.82         567.1573
   357.96         562.5674
   358.10         558.3510
   358.24         554.7069
   358.38         551.7635
   358.52         549.5575
   358.66         548.0891
   358.80         547.3719
   358.94         547.3700
   359.08         547.9320
   359.22         548.8358
   359.36         549.8789
   359.50         550.9247
   359.64         551.8595
   359.78         552.5601
   359.92         552.9257
   360.06         552.8957
   360.20         552.4548
   360.34         551.6427
   360.48         550.5538
   360.62         549.2947
   360.76         547.9612
   360.90         546.6487
   361.04         545.4493
   361.18         544.4450
   361.32         543.6742
   361.46         543.1184
   361.60         542.7330
   361.74         542.4961
   361.88         542.4204
   362.02         542.4949
   362.16         542.6470
   362.30         542.7267
   362.44         542.5943
   362.58         542.2143
   362.72         541.6034
   362.86         540.7932
   363.00         539.8613
   363.14         538.9327
   363.28         538.1367
   363.42         537.5934
   363.56         537.4043
   363.70         537.6418
   363.84         538.3299
   363.98         539.4311
   364.12         540.8780
   364.26         542.5718
   364.40         544.3887
   364.54         546.1842
   364.68         547.7857
   364.82         549.0580
   364.96         549.9429
   365.10         550.4452
   365.24         550.5819
   365.38         550.3372
   365.52         549.6850
   365.66         548.6388
   365.80         547.2636
   365.94         545.6529
   366.08         543.9092
   366.22         542.1302
   366.36         540.3978
   366.50         538.7543
   366.64         537.2236
   366.78         535.8451
   366.92         534.6772
   367.06         533.7959
   367.20         533.2374
   367.34         532.9845
   367.48         532.9621
   367.62         533.0120
   367.76         532.9570
   367.90         532.6565
   368.04         532.0209
   368.18         531.0416
   368.32         529.8136
   368.46         528.4547
   368.60         527.0264
   368.74         525.5659
   368.88         524.0886
   369.02         522.5533
   369.16         520.9023
   369.30         519.1342
   369.44         517.2920
   369.58         515.4312
   369.72         513.6098
   369.86         511.8507
   370.00         510.1356
   370.14         508.4376
   370.28         506.7805
   370.42         505.2513
   370.56         503.9307
   370.70         502.8682
   370.84         502.0753
   370.98         501.5019
   371.12         501.0502
   371.26         500.6335
   371.40         500.2056
   371.54         499.7307
   371.68         499.1902
   371.82         498.6043
   371.96         498.0078
   372.10         497.4173
   372.24         496.8369
   372.38         496.2842
   372.52         495.8040
   372.66         495.4830
   372.80         495.4566
   372.94         495.8622
   373.08         496.7597
   373.22         498.1177
   373.36         499.8319
   373.50         501.7049
   373.64         503.4548
   373.78         504.7444
   373.92         505.2591
   374.06         504.7908
   374.20         503.2377
   374.34         500.5994
   374.48         496.9979
   374.62         492.6858
   374.76         488.0420
   374.90         483.5348
   375.04         479.6517
   375.18         476.8057
   375.32         475.2315
   375.46         474.9277
   375.60         475.6404
   375.74         476.8944
   375.88         478.1199
   376.02         478.8030
   376.16         478.6215
   376.30         477.5474
   376.44         475.8280
   376.58         473.8890
   376.72         472.2046
   376.86         471.1918
   377.00         471.1885
   377.14         472.4353
   377.28         475.0572
   377.42         479.0569
   377.56         484.2783
   377.70         490.3842
   377.84         496.8815
   377.98         503.1697
   378.12         508.6075
   378.26         512.5988
   378.40         514.6912
   378.54         514.6743
   378.68         512.6143
   378.82         508.8100
   378.96         503.7219
   379.10         497.8963
   379.24         491.9245
   379.38         486.4089
   379.52         481.9129
   379.66         478.9274
   379.80         477.8205
   379.94         478.7843
   380.08         481.8018
   380.22         486.6301
   380.36         492.8084
   380.50         499.6741
   380.64         506.4427
   380.78         512.3516
   380.92         516.8244
   381.06         519.5898
   381.20         520.6706
   381.34         520.2930
   381.48         518.8054
   381.62         516.5760
   381.76         513.8607
   381.90         510.7335
   382.04         507.0948
   382.18         502.7498
   382.32         497.5373
   382.46         491.4152
   382.60         484.5056
   382.74         477.1138
   382.88         469.6872
   383.02         462.7547
   383.16         456.8882
   383.30         452.6771
   383.44         450.6455
   383.58         451.1330
   383.72         454.1979
   383.86         459.5615
   384.00         466.6547
   384.14         474.7380
   384.28         483.0068
   384.42         490.6888
   384.56         497.1610
   384.70         502.0413
   384.84         505.2336
   384.98         506.8990
   385.12         507.3505
   385.26         506.9461
   385.40         506.0101
   385.54         504.7692
   385.68         503.3571
   385.82         501.8659
   385.96         500.3754
   386.10         498.9534
   386.24         497.6451
   386.38         496.4640
   386.52         495.3728
   386.66         494.2963
   386.80         493.1477
   386.94         491.8127
   387.08         490.1523
   387.22         487.9903
   387.36         485.0812
   387.50         481.1395
   387.64         475.9275
   387.78         469.3722
   387.92         461.6265
   388.06         453.0713
   388.20         444.2923
   388.34         436.0162
   388.48         429.0003
   388.62         423.9074
   388.76         421.2019
   388.90         421.0883
   389.04         423.5111
   389.18         428.1857
   389.32         434.6579
   389.46         442.3637
   389.60         450.6741
   389.74         458.9435
   389.88         466.5471
   390.02         472.9710
   390.16         477.9216
   390.30         481.3562
   390.44         483.4304
   390.58         484.3854
   390.72         484.4719
   390.86         483.9310
   391.00         482.9730
   391.14         481.7440
   391.28         480.3186
   391.42         478.7319
   391.56         477.0307
   391.70         475.2978
   391.84         473.6127
   391.98         471.9989
   392.12         470.4240
   392.26         468.8489
   392.40         467.2666
   392.54         465.7051
   392.68         464.2220
   392.82         462.8965
   392.96         461.8217
   393.10         461.0993
   393.24         460.8274
   393.38         461.0722
   393.52         461.8340
   393.66         463.0224
   393.80         464.4699
   393.94         465.9877
   394.08         467.3980
   394.22         468.5262
   394.36         469.2061
   394.50         469.3008
   394.64         468.7369
   394.78         467.5366
   394.92         465.7918
   395.06         463.5645
   395.20         460.8187
   395.34         457.4273
   395.48         453.1839
   395.62         447.8356
   395.76         441.1726
   395.90         433.1511
   396.04         423.9776
   396.18         414.1072
   396.32         404.1695
   396.46         394.8701
   396.60         386.9095
   396.74         380.9121
   396.88         377.3592
   397.02         376.5179
   397.16         378.3808
   397.30         382.6853
   397.44         388.9553
   397.58         396.5436
   397.72         404.7078
   397.86         412.7168
   398.00         419.9516
   398.14         425.9735
   398.28         430.5739
   398.42         433.7835
   398.56         435.8043
   398.70         436.8914
   398.84         437.2624
   398.98         437.0797
   399.12         436.4755
   399.26         435.5743
   399.40         434.4795
   399.54         433.2410
   399.68         431.8656
   399.82         430.3786
   399.96         428.8452
   400.10         427.3230
   400.24         425.8493
   400.38         424.4515
   400.52         423.1424
   400.66         421.9072
   400.80         420.6918
   400.94         419.4068
   401.08         417.9349
   401.22         416.1407
   401.36         413.9101
   401.50         411.1996
   401.64         408.0589
   401.78         404.6350
   401.92         401.1511
   402.06         397.8663
   402.20         395.0541
   402.34         392.9858
   402.48         391.8767
   402.62         391.8316
   402.76         392.8439
   402.90         394.8060
   403.04         397.5107
   403.18         400.6801
   403.32         404.0046
   403.46         407.1728
   403.60         409.8972
   403.74         411.9534
   403.88         413.2333
   404.02         413.7713
   404.16         413.6974
   404.30         413.1684
   404.44         412.3336
   404.58         411.3176
   404.72         410.2240
   404.86         409.1398
   405.00         408.1284
   405.14         407.2330
   405.28         406.4754
   405.42         405.8338
   405.56         405.2248
   405.70         404.5260
   405.84         403.6160
   405.98         402.3975
   406.12         400.8200
   406.26         398.9048
   406.40         396.7444
   406.54         394.4673
   406.68         392.2098
   406.82         390.1048
   406.96         388.2651
   407.10         386.7798
   407.24         385.7043
   407.38         385.0347
   407.52         384.6923
   407.66         384.5300
   407.80         384.3731
   407.94         384.0568
   408.08         383.4433
   408.22         382.4276
   408.36         380.9200
   408.50         378.8256
   408.64         376.0401
   408.78         372.4455
   408.92         367.9150
   409.06         362.3714
   409.20         355.8787
   409.34         348.6992
   409.48         341.2794
   409.62         334.1671
   409.76         327.9209
   409.90         323.0432
   410.04         319.9285
   410.18         318.8208
   410.32         319.7843
   410.46         322.7027
   410.60         327.2722
   410.74         333.0056
   410.88         339.2984
   411.02         345.5343
   411.16         351.1917
   411.30         355.9071
   411.44         359.4961
   411.58         361.9717
   411.72         363.5383
   411.86         364.5121
   412.00         365.2043
   412.14         365.8425
   412.28         366.5453
   412.42         367.3368
   412.56         368.1794
   412.70         368.9917
   412.84         369.6679
   412.98         370.1009
   413.12         370.1951
   413.26         369.8797
   413.40         369.1328
   413.54         367.9936
   413.68         366.5455
   413.82         364.8898
   413.96         363.1314
   414.10         361.3850
   414.24         359.7715
   414.38         358.3950
   414.52         357.3374
   414.66         356.6598
   414.80         356.3839
   414.94         356.4738
   415.08         356.8324
   415.22         357.3322
   415.36         357.8562
   415.50         358.2991
   415.64         358.5691
   415.78         358.6138
   415.92         358.4386
   416.06         358.0920
   416.20         357.6270
   416.34         357.0901
   416.48         356.5265
   416.62         355.9731
   416.76         355.4622
   416.90         355.0178
   417.04         354.6464
   417.18         354.3282
   417.32         354.0011
   417.46         353.5743
   417.60         352.9748
   417.74         352.1746
   417.88         351.1934
   418.02         350.0783
   418.16         348.8828
   418.30         347.6625
   418.44         346.4518
   418.58         345.2444
   418.72         344.0042
   418.86         342.6912
   419.00         341.2921
   419.14         339.8332
   419.28         338.3732
   419.42         336.9951
   419.56         335.7900
   419.70         334.8311
   419.84         334.1626
   419.98         333.8151
   420.12         333.8242
   420.26         334.2088
   420.40         334.9309
   420.54         335.8947
   420.68         336.9707
   420.82         338.0294
   420.96         338.9563
   421.10         339.6479
   421.24         340.0341
   421.38         340.1139
   421.52         339.9548
   421.66         339.6501
   421.80         339.2785
   421.94         338.8898
   422.08         338.5120
   422.22         338.1588
   422.36         337.8229
   422.50         337.4866
   422.64         337.1397
   422.78         336.7737
   422.92         336.3643
   423.06         335.8779
   423.20         335.3089
   423.34         334.6968
   423.48         334.1004
   423.62         333.5533
   423.76         333.0537
   423.90         332.5963
   424.04         332.1960
   424.18         331.8627
   424.32         331.5783
   424.46         331.3085
   424.60         331.0098
   424.74         330.6369
   424.88         330.1588
   425.02         329.5707
   425.16         328.8923
   425.30         328.1581
   425.44         327.4089
   425.58         326.6867
   425.72         326.0383
   425.86         325.5087
   426.00         325.1168
   426.14         324.8343
   426.28         324.5928
   426.42         324.3224
   426.56         323.9832
   426.70         323.5605
   426.84         323.0516
   426.98         322.4616
   427.12         321.7933
   427.26         321.0466
   427.40         320.2391
   427.54         319.4148
   427.68         318.6233
   427.82         317.9000
   427.96         317.2675
   428.10         316.7385
   428.24         316.3220
   428.38         316.0274
   428.52         315.8554
   428.66         315.7974
   428.80         315.8424
   428.94         315.9790
   429.08         316.1972
   429.22         316.4787
   429.36         316.7869
   429.50         317.0694
   429.64         317.2619
   429.78         317.2998
   429.92         317.1436
   430.06         316.7906
   430.20         316.2641
   430.34         315.5996
   430.48         314.8451
   430.62         314.0622
   430.76         313.3131
   430.90         312.6496
   431.04         312.1063
   431.18         311.6950
   431.32         311.4058
   431.46         311.2176
   431.60         311.1016
   431.74         311.0163
   431.88         310.9015
   432.02         310.6683
   432.16         310.1984
   432.30         309.3465
   432.44         307.9425
   432.58         305.8022
   432.72         302.7530
   432.86         298.6877
   433.00         293.6230
   433.14         287.7320
   433.28         281.3338
   433.42         274.8423
   433.56         268.7134
   433.70         263.4015
   433.84         259.3011
   433.98         256.7039
   434.12         255.7819
   434.26         256.5644
   434.40         258.9271
   434.54         262.6150
   434.68         267.2768
   434.82         272.5026
   434.96         277.8668
   435.10         282.9801
   435.24         287.5295
   435.38         291.3103
   435.52         294.2527
   435.66         296.4048
   435.80         297.8813
   435.94         298.8108
   436.08         299.3094
   436.22         299.4900
   436.36         299.4592
   436.50         299.2958
   436.64         299.0554
   436.78         298.7786
   436.92         298.4897
   437.06         298.1959
   437.20         297.8756
   437.34         297.4691
   437.48         296.8923
   437.62         296.0689
   437.76         294.9601
   437.90         293.5759
   438.04         291.9780
   438.18         290.2782
   438.32         288.6156
   438.46         287.1159
   438.60         285.8679
   438.74         284.9307
   438.88         284.3406
   439.02         284.0941
   439.16         284.1463
   439.30         284.4354
   439.44         284.8880
   439.58         285.4151
   439.72         285.9112
   439.86         286.2655
   440.00         286.3943
   440.14         286.2604
   440.28         285.8785
   440.42         285.2993
   440.56         284.5733
   440.70         283.7360
   440.84         282.8133
   440.98         281.8223
   441.12         280.7613
   441.26         279.6204
   441.40         278.3887
   441.54         277.0448
   441.68         275.5626
   441.82         273.9393
   441.96         272.2017
   442.10         270.3927
   442.24         268.5720
   442.38         266.8198
   442.52         265.2299
   442.66         263.8936
   442.80         262.8853
   442.94         262.2589
   443.08         262.0399
   443.22         262.2218
   443.36         262.7735
   443.50         263.6388
   443.64         264.7296
   443.78         265.9345
   443.92         267.1426
   444.06         268.2619
   444.20         269.2322
   444.34         270.0327
   444.48         270.6729
   444.62         271.1777
   444.76         271.5851
   444.90         271.9416
   445.04         272.2857
   445.18         272.6329
   445.32         272.9727
   445.46         273.2638
   445.60         273.4165
   445.74         273.2891
   445.88         272.7199
   446.02         271.5833
   446.16         269.8403
   446.30         267.5513
   446.44         264.8679
   446.58         262.0105
   446.72         259.2282
   446.86         256.7669
   447.00         254.8432
   447.14         253.6123
   447.28         253.1506
   447.42         253.4548
   447.56         254.4468
   447.70         255.9847
   447.84         257.8765
   447.98         259.9088
   448.12         261.8779
   448.26         263.6081
   448.40         264.9792
   448.54         265.9542
   448.68         266.5767
   448.82         266.9315
   448.96         267.0918
   449.10         267.0974
   449.24         266.9651
   449.38         266.7034
   449.52         266.3168
   449.66         265.8050
   449.80         265.1693
   449.94         264.4212
   450.08         263.5780
   450.22         262.6615
   450.36         261.7001
   450.50         260.7322
   450.64         259.8107
   450.78         258.9895
   450.92         258.2966
   451.06         257.7410
   451.20         257.3393
   451.34         257.1193
   451.48         257.0999
   451.62         257.2646
   451.76         257.5635
   451.90         257.9313
   452.04         258.2898
   452.18         258.5596
   452.32         258.6813
   452.46         258.6140
   452.60         258.3168
   452.74         257.7512
   452.88         256.8913
   453.02         255.7320
   453.16         254.3016
   453.30         252.6703
   453.44         250.9429
   453.58         249.2426
   453.72         247.7011
   453.86         246.4387
   454.00         245.5408
   454.14         245.0501
   454.28         244.9680
   454.42         245.2694
   454.56         245.9087
   454.70         246.8174
   454.84         247.9062
   454.98         249.0671
   455.12         250.1817
   455.26         251.1420
   455.40         251.8726
   455.54         252.3406
   455.68         252.5606
   455.82         252.5880
   455.96         252.4932
   456.10         252.3332
   456.24         252.1407
   456.38         251.9306
   456.52         251.7132
   456.66         251.5031
   456.80         251.3124
   456.94         251.1360
   457.08         250.9573
   457.22         250.7663
   457.36         250.5616
   457.50         250.3449
   457.64         250.1255
   457.78         249.9142
   457.92         249.7034
   458.06         249.4720
   458.20         249.2064
   458.34         248.9061
   458.48         248.5715
   458.62         248.2032
   458.76         247.8072
   458.90         247.3874
   459.04         246.9420
   459.18         246.4732
   459.32         245.9993
   459.46         245.5471
   459.60         245.1419
   459.74         244.8029
   459.88         244.5340
   460.02         244.3213
   460.16         244.1473
   460.30         244.0077
   460.44         243.9086
   460.58         243.8584
   460.72         243.8634
   460.86         243.9268
   461.00         244.0417
   461.14         244.1904
   461.28         244.3540
   461.42         244.4993
   461.56         244.5713
   461.70         244.5155
   461.84         244.2971
   461.98         243.9015
   462.12         243.3247
   462.26         242.5757
   462.40         241.6859
   462.54         240.7106
   462.68         239.7154
   462.82         238.7598
   462.96         237.8953
   463.10         237.1624
   463.24         236.5712
   463.38         236.0924
   463.52         235.6671
   463.66         235.2155
   463.80         234.6626
   463.94         233.9651
   464.08         233.1210
   464.22         232.1742
   464.36         231.2106
   464.50         230.3375
   464.64         229.6519
   464.78         229.2189
   464.92         229.0696
   465.06         229.2025
   465.20         229.5794
   465.34         230.1303
   465.48         230.7710
   465.62         231.4158
   465.76         231.9763
   465.90         232.3667
   466.04         232.5351
   466.18         232.4776
   466.32         232.2342
   466.46         231.8871
   466.60         231.5338
   466.74         231.2397
   466.88         231.0222
   467.02         230.8542
   467.16         230.6579
   467.30         230.3266
   467.44         229.7794
   467.58         228.9949
   467.72         228.0014
   467.86         226.8597
   468.00         225.6519
   468.14         224.4658
   468.28         223.3857
   468.42         222.5046
   468.56         221.9079
   468.70         221.6412
   468.84         221.7070
   468.98         222.0819
   469.12         222.7237
   469.26         223.5637
   469.40         224.5124
   469.54         225.4771
   469.68         226.3600
   469.82         227.0644
   469.96         227.5310
   470.10         227.7435
   470.24         227.7076
   470.38         227.4340
   470.52         226.9441
   470.66         226.2740
   470.80         225.4770
   470.94         224.6328
   471.08         223.8282
   471.22         223.1229
   471.36         222.5500
   471.50         222.1261
   471.64         221.8442
   471.78         221.6797
   471.92         221.6030
   472.06         221.5789
   472.20         221.5589
   472.34         221.4895
   472.48         221.3408
   472.62         221.1253
   472.76         220.8931
   472.90         220.7096
   473.04         220.6247
   473.18         220.6575
   473.32         220.7995
   473.46         221.0277
   473.60         221.3121
   473.74         221.6108
   473.88         221.8759
   474.02         222.0577
   474.16         222.1043
   474.30         221.9815
   474.44         221.6806
   474.58         221.2025
   474.72         220.5508
   474.86         219.7359
   475.00         218.7833
   475.14         217.7458
   475.28         216.6947
   475.42         215.6957
   475.56         214.7880
   475.70         213.9906
   475.84         213.3221
   475.98         212.8068
   476.12         212.4676
   476.26         212.3133
   476.40         212.3298
   476.54         212.4733
   476.68         212.6779
   476.82         212.8778
   476.96         213.0219
   477.10         213.0733
   477.24         213.0091
   477.38         212.8195
   477.52         212.5002
   477.66         212.0566
   477.80         211.5088
   477.94         210.8872
   478.08         210.2289
   478.22         209.5752
   478.36         208.9679
   478.50         208.4438
   478.64         208.0300
   478.78         207.7387
   478.92         207.5589
   479.06         207.4536
   479.20         207.3761
   479.34         207.2968
   479.48         207.2100
   479.62         207.1226
   479.76         207.0483
   479.90         207.0017
   480.04         206.9939
   480.18         207.0322
   480.32         207.1210
   480.46         207.2542
   480.60         207.4090
   480.74         207.5502
   480.88         207.6441
   481.02         207.6682
   481.16         207.6073
   481.30         207.4475
   481.44         207.1749
   481.58         206.7856
   481.72         206.2998
   481.86         205.7627
   482.00         205.2272
   482.14         204.7373
   482.28         204.3262
   482.42         204.0234
   482.56         203.8517
   482.70         203.8139
   482.84         203.8868
   482.98         204.0235
   483.12         204.1674
   483.26         204.2767
   483.40         204.3316
   483.54         204.3178
   483.68         204.2069
   483.82         203.9530
   483.96         203.5149
   484.10         202.8714
   484.24         202.0090
   484.38         200.8996
   484.52         199.4877
   484.66         197.6931
   484.80         195.4305
   484.94         192.6437
   485.08         189.3484
   485.22         185.6491
   485.36         181.7240
   485.50         177.8061
   485.64         174.1513
   485.78         171.0143
   485.92         168.6242
   486.06         167.1458
   486.20         166.6498
   486.34         167.1095
   486.48         168.4142
   486.62         170.3856
   486.76         172.7889
   486.90         175.3538
   487.04         177.8187
   487.18         179.9686
   487.32         181.6654
   487.46         182.8771
   487.60         183.6740
   487.74         184.1963
   487.88         184.5970
   488.02         184.9936
   488.16         185.4567
   488.30         186.0111
   488.44         186.6506
   488.58         187.3507
   488.72         188.0706
   488.86         188.7605
   489.00         189.3731
   489.14         189.8723
   489.28         190.2367
   489.42         190.4551
   489.56         190.5315
   489.70         190.4942
   489.84         190.3851
   489.98         190.2637
   490.12         190.1924
   490.26         190.2030
   490.40         190.3002
   490.54         190.4601
   490.68         190.6241
   490.82         190.7131
   490.96         190.6517
   491.10         190.3944
   491.24         189.9373
   491.38         189.3105
   491.52         188.5653
   491.66         187.7647
   491.80         186.9845
   491.94         186.3051
   492.08         185.7961
   492.22         185.5148
   492.36         185.5027
   492.50         185.7661
   492.64         186.2700
   492.78         186.9378
   492.92         187.6778
   493.06         188.4151
   493.20         189.0917
   493.34         189.6577
   493.48         190.0867
   493.62         190.3885
   493.76         190.5850
   493.90         190.6875
   494.04         190.6973
   494.18         190.6173
   494.32         190.4580
   494.46         190.2318
   494.60         189.9419
   494.74         189.5840
   494.88         189.1628
   495.02         188.6911
   495.16         188.1790
   495.30         187.6427
   495.44         187.1158
   495.58         186.6354
   495.72         186.2212
   495.86         185.8633
   496.00         185.5303
   496.14         185.1973
   496.28         184.8499
   496.42         184.4721
   496.56         184.0584
   496.70         183.6206
   496.84         183.1784
   496.98         182.7424
   497.12         182.3123
   497.26         181.8928
   497.40         181.5023
   497.54         181.1650
   497.68         180.8964
   497.82         180.7046
   497.96         180.5959
   498.10         180.5665
   498.24         180.6006
   498.38         180.6806
   498.52         180.7896
   498.66         180.9107
   498.80         181.0305
   498.94         181.1368
   499.08         181.2111
   499.22         181.2356
   499.36         181.1923
   499.50         181.0641
   499.64         180.8432
   499.78         180.5319
   499.92         180.1417
   500.06         179.6732
   500.20         179.1036
   500.34         178.4059
   500.48         177.5777
   500.62         176.6454
   500.76         175.6588
   500.90         174.6853
   501.04         173.7869
   501.18         173.0008
   501.32         172.3488
   501.46         171.8545
   501.60         171.5364
   501.74         171.3937
   501.88         171.4099
   502.02         171.5519
   502.16         171.7765
   502.30         172.0398
   502.44         172.2972
   502.58         172.5119
   502.72         172.6576
   502.86         172.7294
   503.00         172.7547
   503.14         172.7737
   503.28         172.8149
   503.42         172.8872
   503.56         172.9727
   503.70         173.0310
   503.84         173.0227
   503.98         172.9299
   504.12         172.7549
   504.26         172.4992
   504.40         172.1571
   504.54         171.7285
   504.68         171.2249
   504.82         170.6733
   504.96         170.1101
   505.10         169.5622
   505.24         169.0436
   505.38         168.5655
   505.52         168.1344
   505.66         167.7437
   505.80         167.3817
   505.94         167.0458
   506.08         166.7311
   506.22         166.4254
   506.36         166.1193
   506.50         165.8141
   506.64         165.5234
   506.78         165.2671
   506.92         165.0656
   507.06         164.9461
   507.20         164.9398
   507.34         165.0664
   507.48         165.3313
   507.62         165.7295
   507.76         166.2352
   507.90         166.8020
   508.04         167.3728
   508.18         167.8834
   508.32         168.2730
   508.46         168.5025
   508.60         168.5555
   508.74         168.4291
   508.88         168.1359
   509.02         167.6983
   509.16         167.1445
   509.30         166.5160
   509.44         165.8618
   509.58         165.2271
   509.72         164.6428
   509.86         164.1168
   510.00         163.6441
   510.14         163.2232
   510.28         162.8487
   510.42         162.5057
   510.56         162.1851
   510.70         161.8933
   510.84         161.6382
   510.98         161.4185
   511.12         161.2313
   511.26         161.0767
   511.40         160.9513
   511.54         160.8469
   511.68         160.7591
   511.82         160.6959
   511.96         160.6676
   512.10         160.6706
   512.24         160.6875
   512.38         160.6907
   512.52         160.6503
   512.66         160.5494
   512.80         160.3842
   512.94         160.1632
   513.08         159.9104
   513.22         159.6517
   513.36         159.4058
   513.50         159.1889
   513.64         159.0189
   513.78         158.9092
   513.92         158.8629
   514.06         158.8751
   514.20         158.9338
   514.34         159.0170
   514.48         159.1008
   514.62         159.1601
   514.76         159.1682
   514.90         159.1084
   515.04         158.9754
   515.18         158.7711
   515.32         158.5051
   515.46         158.1984
   515.60         157.8757
   515.74         157.5491
   515.88         157.2159
   516.02         156.8772
   516.16         156.5479
   516.30         156.2455
   516.44         155.9814
   516.58         155.7651
   516.72         155.6042
   516.86         155.4913
   517.00         155.4047
   517.14         155.3286
   517.28         155.2566
   517.42         155.1906
   517.56         155.1375
   517.70         155.0934
   517.84         155.0446
   517.98         154.9841
   518.12         154.9141
   518.26         154.8332
   518.40         154.7368
   518.54         154.6239
   518.68         154.4985
   518.82         154.3641
   518.96         154.2118
   519.10         154.0263
   519.24         153.8001
   519.38         153.5355
   519.52         153.2443
   519.66         152.9476
   519.80         152.6710
   519.94         152.4354
   520.08         152.2447
   520.22         152.0852
   520.36         151.9396
   520.50         151.7982
   520.64         151.6538
   520.78         151.4968
   520.92         151.3163
   521.06         151.1052
   521.20         150.8637
   521.34         150.5946
   521.48         150.2980
   521.62         149.9763
   521.76         149.6454
   521.90         149.3283
   522.04         149.0440
   522.18         148.8071
   522.32         148.6197
   522.46         148.4761
   522.60         148.3684
   522.74         148.2789
   522.88         148.1785
   523.02         148.0269
   523.16         147.7882
   523.30         147.4445
   523.44         146.9951
   523.58         146.4588
   523.72         145.8756
   523.86         145.2924
   524.00         144.7469
   524.14         144.2761
   524.28         143.9214
   524.42         143.7129
   524.56         143.6509
   524.70         143.7147
   524.84         143.8769
   524.98         144.1093
   525.12         144.3832
   525.26         144.6626
   525.40         144.9068
   525.54         145.0818
   525.68         145.1734
   525.82         145.1940
   525.96         145.1635
   526.10         145.0982
   526.24         145.0139
   526.38         144.9166
   526.52         144.7904
   526.66         144.6097
   526.80         144.3587
   526.94         144.0325
   527.08         143.6280
   527.22         143.1498
   527.36         142.6194
   527.50         142.0689
   527.64         141.5304
   527.78         141.0232
   527.92         140.5539
   528.06         140.1326
   528.20         139.7772
   528.34         139.5038
   528.48         139.3137
   528.62         139.1915
   528.76         139.1171
   528.90         139.0714
   529.04         139.0364
   529.18         138.9995
   529.32         138.9575
   529.46         138.9125
   529.60         138.8629
   529.74         138.8013
   529.88         138.7234
   530.02         138.6290
   530.16         138.5225
   530.30         138.4135
   530.44         138.3076
   530.58         138.2064
   530.72         138.1116
   530.86         138.0213
   531.00         137.9260
   531.14         137.8117
   531.28         137.6726
   531.42         137.5126
   531.56         137.3380
   531.70         137.1586
   531.84         136.9878
   531.98         136.8381
   532.12         136.7200
   532.26         136.6352
   532.40         136.5777
   532.54         136.5376
   532.68         136.5002
   532.82         136.4474
   532.96         136.3588
   533.10         136.2163
   533.24         136.0105
   533.38         135.7452
   533.52         135.4390
   533.66         135.1170
   533.80         134.8036
   533.94         134.5234
   534.08         134.2957
   534.22         134.1279
   534.36         134.0137
   534.50         133.9316
   534.64         133.8521
   534.78         133.7455
   534.92         133.5874
   535.06         133.3674
   535.20         133.0877
   535.34         132.7610
   535.48         132.4107
   535.62         132.0648
   535.76         131.7526
   535.90         131.5014
   536.04         131.3303
   536.18         131.2495
   536.32         131.2531
   536.46         131.3215
   536.60         131.4273
   536.74         131.5340
   536.88         131.6071
   537.02         131.6209
   537.16         131.5591
   537.30         131.4151
   537.44         131.1862
   537.58         130.8755
   537.72         130.4967
   537.86         130.0729
   538.00         129.6403
   538.14         129.2333
   538.28         128.8718
   538.42         128.5681
   538.56         128.3255
   538.70         128.1380
   538.84         127.9961
   538.98         127.8865
   539.12         127.7919
   539.26         127.6902
   539.40         127.5565
   539.54         127.3702
   539.68         127.1093
   539.82         126.7491
   539.96         126.2718
   540.10         125.6749
   540.24         124.9845
   540.38         124.2494
   540.52         123.5273
   540.66         122.8766
   540.80         122.3411
   540.94         121.9521
   541.08         121.7334
   541.22         121.6921
   541.36         121.8238
   541.50         122.1132
   541.64         122.5271
   541.78         123.0226
   541.92         123.5560
   542.06         124.0890
   542.20         124.5903
   542.34         125.0316
   542.48         125.3955
   542.62         125.6829
   542.76         125.9084
   542.90         126.0871
   543.04         126.2249
   543.18         126.3175
   543.32         126.3516
   543.46         126.3109
   543.60         126.1844
   543.74         125.9631
   543.88         125.6399
   544.02         125.2220
   544.16         124.7251
   544.30         124.1700
   544.44         123.5862
   544.58         123.0070
   544.72         122.4628
   544.86         121.9768
   545.00         121.5641
   545.14         121.2356
   545.28         120.9913
   545.42         120.8178
   545.56         120.6976
   545.70         120.6122
   545.84         120.5422
   545.98         120.4703
   546.12         120.3832
   546.26         120.2705
   546.40         120.1243
   546.54         119.9434
   546.68         119.7319
   546.82         119.4900
   546.96         119.2193
   547.10         118.9242
   547.24         118.6090
   547.38         118.2823
   547.52         117.9550
   547.66         117.6400
   547.80         117.3537
   547.94         117.1137
   548.08         116.9352
   548.22         116.8277
   548.36         116.7949
   548.50         116.8337
   548.64         116.9282
   548.78         117.0513
   548.92         117.1760
   549.06         117.2800
   549.20         117.3497
   549.34         117.3804
   549.48         117.3725
   549.62         117.3317
   549.76         117.2640
   549.90         117.1714
   550.04         117.0513
   550.18         116.9007
   550.32         116.7226
   550.46         116.5243
   550.60         116.3105
   550.74         116.0855
   550.88         115.8555
   551.02         115.6309
   551.16         115.4240
   551.30         115.2392
   551.44         115.0749
   551.58         114.9294
   551.72         114.7984
   551.86         114.6766
   552.00         114.5527
   552.14         114.4097
   552.28         114.2356
   552.42         114.0275
   552.56         113.7937
   552.70         113.5519
   552.84         113.3217
   552.98         113.1165
   553.12         112.9391
   553.26         112.7848
   553.40         112.6483
   553.54         112.5236
   553.68         112.4038
   553.82         112.2803
   553.96         112.1374
   554.10         111.9644
   554.24         111.7641
   554.38         111.5489
   554.52         111.3333
   554.66         111.1243
   554.80         110.9276
   554.94         110.7600
   555.08         110.6460
   555.22         110.6045
   555.36         110.6378
   555.50         110.7341
   555.64         110.8751
   555.78         111.0352
   555.92         111.1879
   556.06         111.3139
   556.20         111.3996
   556.34         111.4337
   556.48         111.4058
   556.62         111.3117
   556.76         111.1602
   556.90         110.9671
   557.04         110.7496
   557.18         110.5227
   557.32         110.2996
   557.46         110.0965
   557.60         109.9327
   557.74         109.8173
   557.88         109.7401
   558.02         109.6744
   558.16         109.5865
   558.30         109.4522
   558.44         109.2653
   558.58         109.0302
   558.72         108.7524
   558.86         108.4378
   559.00         108.0952
   559.14         107.7381
   559.28         107.3859
   559.42         107.0624
   559.56         106.7899
   559.70         106.5859
   559.84         106.4611
   559.98         106.4179
   560.12         106.4506
   560.26         106.5412
   560.40         106.6600
   560.54         106.7730
   560.68         106.8512
   560.82         106.8820
   560.96         106.8659
   561.10         106.8001
   561.24         106.6786
   561.38         106.5067
   561.52         106.3005
   561.66         106.0787
   561.80         105.8579
   561.94         105.6514
   562.08         105.4662
   562.22         105.3024
   562.36         105.1553
   562.50         105.0196
   562.64         104.8901
   562.78         104.7597
   562.92         104.6219
   563.06         104.4758
   563.20         104.3236
   563.34         104.1656
   563.48         104.0027
   563.62         103.8370
   563.76         103.6785
   563.90         103.5451
   564.04         103.4497
   564.18         103.3919
   564.32         103.3641
   564.46         103.3576
   564.60         103.3651
   564.74         103.3799
   564.88         103.3933
   565.02         103.3948
   565.16         103.3763
   565.30         103.3307
   565.44         103.2508
   565.58         103.1312
   565.72         102.9675
   565.86         102.7534
   566.00         102.4856
   566.14         102.1726
   566.28         101.8354
   566.42         101.4976
   566.56         101.1741
   566.70         100.8717
   566.84         100.5962
   566.98         100.3513
   567.12         100.1392
   567.26         99.9646
   567.40         99.8286
   567.54         99.7260
   567.68         99.6495
   567.82         99.5893
   567.96         99.5287
   568.10         99.4482
   568.24         99.3346
   568.38         99.1872
   568.52         99.0164
   568.66         98.8384
   568.80         98.6692
   568.94         98.5200
   569.08         98.3947
   569.22         98.2882
   569.36         98.1931
   569.50         98.1044
   569.64         98.0199
   569.78         97.9410
   569.92         97.8697
   570.06         97.8046
   570.20         97.7439
   570.34         97.6907
   570.48         97.6517
   570.62         97.6346
   570.76         97.6480
   570.90         97.6989
   571.04         97.7858
   571.18         97.8947
   571.32         98.0031
   571.46         98.0852
   571.60         98.1166
   571.74         98.0759
   571.88         97.9454
   572.02         97.7188
   572.16         97.4059
   572.30         97.0325
   572.44         96.6315
   572.58         96.2335
   572.72         95.8659
   572.86         95.5530
   573.00         95.3149
   573.14         95.1635
   573.28         95.0995
   573.42         95.1112
   573.56         95.1755
   573.70         95.2613
   573.84         95.3384
   573.98         95.3780
   574.12         95.3540
   574.26         95.2510
   574.40         95.0697
   574.54         94.8246
   574.68         94.5404
   574.82         94.2451
   574.96         93.9620
   575.10         93.7062
   575.24         93.4936
   575.38         93.3456
   575.52         93.2806
   575.66         93.3048
   575.80         93.4047
   575.94         93.5500
   576.08         93.7060
   576.22         93.8407
   576.36         93.9278
   576.50         93.9440
   576.64         93.8648
   576.78         93.6669
   576.92         93.3346
   577.06         92.8677
   577.20         92.2823
   577.34         91.6081
   577.48         90.8871
   577.62         90.1663
   577.76         89.4931
   577.90         88.9094
   578.04         88.4407
   578.18         88.0934
   578.32         87.8585
   578.46         87.7151
   578.60         87.6443
   578.74         87.6329
   578.88         87.6608
   579.02         87.6975
   579.16         87.7108
   579.30         87.6793
   579.44         87.5979
   579.58         87.4800
   579.72         87.3510
   579.86         87.2309
   580.00         87.1301
   580.14         87.0536
   580.28         87.0023
   580.42         86.9788
   580.56         86.9914
   580.70         87.0500
   580.84         87.1617
   580.98         87.3267
   581.12         87.5381
   581.26         87.7847
   581.40         88.0471
   581.54         88.2962
   581.68         88.5059
   581.82         88.6617
   581.96         88.7542
   582.10         88.7758
   582.24         88.7257
   582.38         88.6090
   582.52         88.4381
   582.66         88.2394
   582.80         88.0454
   582.94         87.8805
   583.08         87.7605
   583.22         87.6943
   583.36         87.6856
   583.50         87.7324
   583.64         87.8271
   583.78         87.9574
   583.92         88.1092
   584.06         88.2675
   584.20         88.4195
   584.34         88.5565
   584.48         88.6713
   584.62         88.7568
   584.76         88.8099
   584.90         88.8340
   585.04         88.8350
   585.18         88.8199
   585.32         88.7971
   585.46         88.7729
   585.60         88.7494
   585.74         88.7309
   585.88         88.7177
   586.02         88.6947
   586.16         88.6265
   586.30         88.4626
   586.44         88.1568
   586.58         87.6908
   586.72         87.0870
   586.86         86.3991
   587.00         85.6925
   587.14         85.0319
   587.28         84.4739
   587.42         84.0601
   587.56         83.8055
   587.70         83.6837
   587.84         83.6337
   587.98         83.5920
   588.12         83.5082
   588.26         83.3347
   588.40         83.0250
   588.54         82.5491
   588.68         81.9134
   588.82         81.1683
   588.96         80.3995
   589.10         79.7139
   589.24         79.2188
   589.38         78.9969
   589.52         79.0889
   589.66         79.4890
   589.80         80.1529
   589.94         81.0076
   590.08         81.9622
   590.22         82.9242
   590.36         83.8175
   590.50         84.5957
   590.64         85.2396
   590.78         85.7372
   590.92         86.0757
   591.06         86.2602
   591.20         86.3169
   591.34         86.2827
   591.48         86.1951
   591.62         86.0823
   591.76         85.9618
   591.90         85.8437
   592.04         85.7332
   592.18         85.6318
   592.32         85.5347
   592.46         85.4339
   592.60         85.3184
   592.74         85.1745
   592.88         84.9929
   593.02         84.7702
   593.16         84.5035
   593.30         84.1906
   593.44         83.8332
   593.58         83.4358
   593.72         83.0015
   593.86         82.5358
   594.00         82.0537
   594.14         81.5734
   594.28         81.1102
   594.42         80.6800
   594.56         80.3024
   594.70         79.9989
   594.84         79.7877
   594.98         79.6800
   595.12         79.6769
   595.26         79.7679
   595.40         79.9381
   595.54         80.1739
   595.68         80.4570
   595.82         80.7598
   595.96         81.0500
   596.10         81.2981
   596.24         81.4840
   596.38         81.6003
   596.52         81.6498
   596.66         81.6396
   596.80         81.5771
   596.94         81.4706
   597.08         81.3308
   597.22         81.1749
   597.36         81.0204
   597.50         80.8786
   597.64         80.7540
   597.78         80.6429
   597.92         80.5371
   598.06         80.4306
   598.20         80.3227
   598.34         80.2147
   598.48         80.1060
   598.62         79.9893
   598.76         79.8562
   598.90         79.7034
   599.04         79.5322
   599.18         79.3470
   599.32         79.1548
   599.46         78.9642
   599.60         78.7840
   599.74         78.6209
   599.88         78.4733
   600.02         78.3335
   600.16         78.1969
   600.30         78.0666
   600.44         77.9527
   600.58         77.8668
   600.72         77.8192
   600.86         77.8149
   601.00         77.8512
   601.14         77.9188
   601.28         78.0053
   601.42         78.0975
   601.56         78.1828
   601.70         78.2509
   601.84         78.2904
   601.98         78.2856
   602.12         78.2187
   602.26         78.0759
   602.40         77.8546
   602.54         77.5686
   602.68         77.2451
   602.82         76.9134
   602.96         76.5955
   603.10         76.3051
   603.24         76.0482
   603.38         75.8267
   603.52         75.6458
   603.66         75.5131
   603.80         75.4339
   603.94         75.4083
   604.08         75.4318
   604.22         75.4991
   604.36         75.6028
   604.50         75.7284
   604.64         75.8577
   604.78         75.9750
   604.92         76.0733
   605.06         76.1520
   605.20         76.2085
   605.34         76.2360
   605.48         76.2281
   605.62         76.1821
   605.76         76.1002
   605.90         75.9925
   606.04         75.8762
   606.18         75.7689
   606.32         75.6819
   606.46         75.6192
   606.60         75.5822
   606.74         75.5693
   606.88         75.5769
   607.02         75.5985
   607.16         75.6231
   607.30         75.6384
   607.44         75.6333
   607.58         75.5966
   607.72         75.5188
   607.86         75.4003
   608.00         75.2504
   608.14         75.0778
   608.28         74.8876
   608.42         74.6878
   608.56         74.4917
   608.70         74.3092
   608.84         74.1405
   608.98         73.9840
   609.12         73.8418
   609.26         73.7181
   609.40         73.6183
   609.54         73.5473
   609.68         73.5129
   609.82         73.5220
   609.96         73.5749
   610.10         73.6650
   610.24         73.7809
   610.38         73.9108
   610.52         74.0427
   610.66         74.1571
   610.80         74.2332
   610.94         74.2614
   611.08         74.2430
   611.22         74.1804
   611.36         74.0742
   611.50         73.9323
   611.64         73.7719
   611.78         73.6106
   611.92         73.4609
   612.06         73.3308
   612.20         73.2252
   612.34         73.1474
   612.48         73.0925
   612.62         73.0469
   612.76         73.0004
   612.90         72.9489
   613.04         72.8908
   613.18         72.8249
   613.32         72.7514
   613.46         72.6741
   613.60         72.5990
   613.74         72.5317
   613.88         72.4766
   614.02         72.4372
   614.16         72.4147
   614.30         72.4061
   614.44         72.4083
   614.58         72.4181
   614.72         72.4331
   614.86         72.4528
   615.00         72.4728
   615.14         72.4810
   615.28         72.4622
   615.42         72.4092
   615.56         72.3218
   615.70         72.1996
   615.84         72.0426
   615.98         71.8526
   616.12         71.6322
   616.26         71.3844
   616.40         71.1127
   616.54         70.8204
   616.68         70.5128
   616.82         70.2002
   616.96         69.8983
   617.10         69.6228
   617.24         69.3822
   617.38         69.1794
   617.52         69.0127
   617.66         68.8754
   617.80         68.7626
   617.94         68.6759
   618.08         68.6224
   618.22         68.6059
   618.36         68.6209
   618.50         68.6576
   618.64         68.7072
   618.78         68.7617
   618.92         68.8119
   619.06         68.8486
   619.20         68.8640
   619.34         68.8554
   619.48         68.8271
   619.62         68.7891
   619.76         68.7516
   619.90         68.7217
   620.04         68.7042
   620.18         68.7049
   620.32         68.7298
   620.46         68.7824
   620.60         68.8615
   620.74         68.9583
   620.88         69.0586
   621.02         69.1484
   621.16         69.2196
   621.30         69.2694
   621.44         69.2968
   621.58         69.3013
   621.72         69.2840
   621.86         69.2499
   622.00         69.2076
   622.14         69.1637
   622.28         69.1176
   622.42         69.0618
   622.56         68.9876
   622.70         68.8920
   622.84         68.7801
   622.98         68.6619
   623.12         68.5484
   623.26         68.4500
   623.40         68.3748
   623.54         68.3283
   623.68         68.3128
   623.82         68.3265
   623.96         68.3658
   624.10         68.4282
   624.24         68.5111
   624.38         68.6080
   624.52         68.7084
   624.66         68.8030
   624.80         68.8829
   624.94         68.9413
   625.08         68.9770
   625.22         68.9916
   625.36         68.9857
   625.50         68.9581
   625.64         68.9023
   625.78         68.8063
   625.92         68.6585
   626.06         68.4545
   626.20         68.1996
   626.34         67.9017
   626.48         67.5662
   626.62         67.1946
   626.76         66.7839
   626.90         66.3287
   627.04         65.8228
   627.18         65.2659
   627.32         64.6689
   627.46         64.0533
   627.60         63.4493
   627.74         62.8939
   627.88         62.4240
   628.02         62.0724
   628.16         61.8635
   628.30         61.8079
   628.44         61.9045
   628.58         62.1432
   628.72         62.5038
   628.86         62.9527
   629.00         63.4426
   629.14         63.9243
   629.28         64.3539
   629.42         64.6966
   629.56         64.9322
   629.70         65.0562
   629.84         65.0797
   629.98         65.0264
   630.12         64.9278
   630.26         64.8148
   630.40         64.7111
   630.54         64.6313
   630.68         64.5817
   630.82         64.5629
   630.96         64.5721
   631.10         64.6054
   631.24         64.6595
   631.38         64.7298
   631.52         64.8088
   631.66         64.8843
   631.80         64.9437
   631.94         64.9776
   632.08         64.9833
   632.22         64.9666
   632.36         64.9390
   632.50         64.9113
   632.64         64.8892
   632.78         64.8749
   632.92         64.8659
   633.06         64.8540
   633.20         64.8262
   633.34         64.7706
   633.48         64.6811
   633.62         64.5568
   633.76         64.4016
   633.90         64.2221
   634.04         64.0265
   634.18         63.8252
   634.32         63.6314
   634.46         63.4601
   634.60         63.3233
   634.74         63.2280
   634.88         63.1760
   635.02         63.1627
   635.16         63.1762
   635.30         63.2030
   635.44         63.2290
   635.58         63.2377
   635.72         63.2162
   635.86         63.1584
   636.00         63.0661
   636.14         62.9479
   636.28         62.8129
   636.42         62.6672
   636.56         62.5164
   636.70         62.3657
   636.84         62.2197
   636.98         62.0807
   637.12         61.9493
   637.26         61.8270
   637.40         61.7194
   637.54         61.6324
   637.68         61.5677
   637.82         61.5273
   637.96         61.5139
   638.10         61.5287
   638.24         61.5716
   638.38         61.6432
   638.52         61.7426
   638.66         61.8636
   638.80         61.9945
   638.94         62.1181
   639.08         62.2173
   639.22         62.2802
   639.36         62.3015
   639.50         62.2817
   639.64         62.2264
   639.78         62.1451
   639.92         62.0495
   640.06         61.9505
   640.20         61.8561
   640.34         61.7741
   640.48         61.7114
   640.62         61.6699
   640.76         61.6451
   640.90         61.6303
   641.04         61.6187
   641.18         61.6029
   641.32         61.5747
   641.46         61.5304
   641.60         61.4732
   641.74         61.4092
   641.88         61.3432
   642.02         61.2770
   642.16         61.2090
   642.30         61.1352
   642.44         61.0500
   642.58         60.9467
   642.72         60.8182
   642.86         60.6625
   643.00         60.4844
   643.14         60.2904
   643.28         60.0887
   643.42         59.8908
   643.56         59.7111
   643.70         59.5609
   643.84         59.4468
   643.98         59.3747
   644.12         59.3454
   644.26         59.3526
   644.40         59.3841
   644.54         59.4267
   644.68         59.4698
   644.82         59.5078
   644.96         59.5400
   645.10         59.5648
   645.24         59.5780
   645.38         59.5790
   645.52         59.5739
   645.66         59.5682
   645.80         59.5623
   645.94         59.5554
   646.08         59.5493
   646.22         59.5478
   646.36         59.5548
   646.50         59.5735
   646.64         59.6057
   646.78         59.6483
   646.92         59.6977
   647.06         59.7518
   647.20         59.8096
   647.34         59.8681
   647.48         59.9208
   647.62         59.9573
   647.76         59.9666
   647.90         59.9429
   648.04         59.8905
   648.18         59.8176
   648.32         59.7289
   648.46         59.6275
   648.60         59.5190
   648.74         59.4119
   648.88         59.3160
   649.02         59.2408
   649.16         59.1923
   649.30         59.1733
   649.44         59.1838
   649.58         59.2203
   649.72         59.2772
   649.86         59.3473
   650.00         59.4220
   650.14         59.4920
   650.28         59.5483
   650.42         59.5829
   650.56         59.5901
   650.70         59.5677
   650.84         59.5154
   650.98         59.4354
   651.12         59.3321
   651.26         59.2111
   651.40         59.0786
   651.54         58.9426
   651.68         58.8101
   651.82         58.6835
   651.96         58.5618
   652.10         58.4449
   652.24         58.3346
   652.38         58.2355
   652.52         58.1526
   652.66         58.0861
   652.80         58.0328
   652.94         57.9909
   653.08         57.9607
   653.22         57.9427
   653.36         57.9363
   653.50         57.9382
   653.64         57.9396
   653.78         57.9287
   653.92         57.8956
   654.06         57.8341
   654.20         57.7379
   654.34         57.5984
   654.48         57.4029
   654.62         57.1349
   654.76         56.7753
   654.90         56.3060
   655.04         55.7165
   655.18         55.0088
   655.32         54.2048
   655.46         53.3510
   655.60         52.5120
   655.74         51.7581
   655.88         51.1551
   656.02         50.7551
   656.16         50.5913
   656.30         50.6755
   656.44         50.9991
   656.58         51.5350
   656.72         52.2372
   656.86         53.0465
   657.00         53.8977
   657.14         54.7252
   657.28         55.4733
   657.42         56.1035
   657.56         56.5977
   657.70         56.9604
   657.84         57.2109
   657.98         57.3759
   658.12         57.4795
   658.26         57.5368
   658.40         57.5574
   658.54         57.5484
   658.68         57.5158
   658.82         57.4671
   658.96         57.4102
   659.10         57.3509
   659.24         57.2941
   659.38         57.2426
   659.52         57.1968
   659.66         57.1546
   659.80         57.1121
   659.94         57.0624
   660.08         56.9942
   660.22         56.8976
   660.36         56.7691
   660.50         56.6088
   660.64         56.4215
   660.78         56.2158
   660.92         56.0030
   661.06         55.7983
   661.20         55.6151
   661.34         55.4645
   661.48         55.3569
   661.62         55.2975
   661.76         55.2838
   661.90         55.3064
   662.04         55.3524
   662.18         55.4094
   662.32         55.4656
   662.46         55.5093
   662.60         55.5297
   662.74         55.5192
   662.88         55.4776
   663.02         55.4095
   663.16         55.3201
   663.30         55.2167
   663.44         55.1077
   663.58         55.0035
   663.72         54.9165
   663.86         54.8587
   664.00         54.8379
   664.14         54.8531
   664.28         54.8938
   664.42         54.9458
   664.56         54.9937
   664.70         55.0249
   664.84         55.0320
   664.98         55.0085
   665.12         54.9513
   665.26         54.8602
   665.40         54.7372
   665.54         54.5895
   665.68         54.4281
   665.82         54.2659
   665.96         54.1142
   666.10         53.9779
   666.24         53.8508
   666.38         53.7171
   666.52         53.5567
   666.66         53.3511
   666.80         53.0904
   666.94         52.7777
   667.08         52.4292
   667.22         52.0685
   667.36         51.7245
   667.50         51.4261
   667.64         51.1954
   667.78         51.0469
   667.92         50.9882
   668.06         51.0210
   668.20         51.1403
   668.34         51.3318
   668.48         51.5726
   668.62         51.8348
   668.76         52.0903
   668.90         52.3151
   669.04         52.4953
   669.18         52.6291
   669.32         52.7214
   669.46         52.7791
   669.60         52.8083
   669.74         52.8114
   669.88         52.7882
   670.02         52.7402
   670.16         52.6710
   670.30         52.5854
   670.44         52.4902
   670.58         52.3930
   670.72         52.2992
   670.86         52.2134
   671.00         52.1427
   671.14         52.0950
   671.28         52.0748
   671.42         52.0805
   671.56         52.1050
   671.70         52.1398
   671.84         52.1763
   671.98         52.2068
   672.12         52.2233
   672.26         52.2184
   672.40         52.1874
   672.54         52.1293
   672.68         52.0470
   672.82         51.9457
   672.96         51.8319
   673.10         51.7141
   673.24         51.6038
   673.38         51.5122
   673.52         51.4470
   673.66         51.4104
   673.80         51.3989
   673.94         51.4062
   674.08         51.4258
   674.22         51.4514
   674.36         51.4760
   674.50         51.4939
   674.64         51.5007
   674.78         51.4929
   674.92         51.4709
   675.06         51.4403
   675.20         51.4080
   675.34         51.3805
   675.48         51.3610
   675.62         51.3517
   675.76         51.3548
   675.90         51.3689
   676.04         51.3855
   676.18         51.3913
   676.32         51.3754
   676.46         51.3329
   676.60         51.2622
   676.74         51.1636
   676.88         51.0427
   677.02         50.9117
   677.16         50.7851
   677.30         50.6754
   677.44         50.5900
   677.58         50.5331
   677.72         50.5039
   677.86         50.4979
   678.00         50.5073
   678.14         50.5215
   678.28         50.5295
   678.42         50.5209
   678.56         50.4875
   678.70         50.4256
   678.84         50.3365
   678.98         50.2258
   679.12         50.1018
   679.26         49.9734
   679.40         49.8489
   679.54         49.7384
   679.68         49.6509
   679.82         49.5918
   679.96         49.5635
   680.10         49.5660
   680.24         49.5971
   680.38         49.6531
   680.52         49.7286
   680.66         49.8155
   680.80         49.9049
   680.94         49.9904
   681.08         50.0659
   681.22         50.1229
   681.36         50.1532
   681.50         50.1515
   681.64         50.1198
   681.78         50.0662
   681.92         50.0005
   682.06         49.9314
   682.20         49.8653
   682.34         49.8045
   682.48         49.7478
   682.62         49.6917
   682.76         49.6308
   682.90         49.5612
   683.04         49.4805
   683.18         49.3877
   683.32         49.2842
   683.46         49.1738
   683.60         49.0607
   683.74         48.9477
   683.88         48.8388
   684.02         48.7401
   684.16         48.6578
   684.30         48.5958
   684.44         48.5544
   684.58         48.5297
   684.72         48.5154
   684.86         48.5046
   685.00         48.4939
   685.14         48.4820
   685.28         48.4655
   685.42         48.4329
   685.56         48.3544
   685.70         48.1820
   685.84         47.8653
   685.98         47.3666
   686.12         46.6679
   686.26         45.7740
   686.40         44.7164
   686.54         43.5515
   686.68         42.3536
   686.82         41.2085
   686.96         40.2053
   687.10         39.4221
   687.24         38.9112
   687.38         38.6902
   687.52         38.7440
   687.66         39.0294
   687.80         39.4779
   687.94         40.0078
   688.08         40.5358
   688.22         40.9883
   688.36         41.3208
   688.50         41.5237
   688.64         41.6142
   688.78         41.6237
   688.92         41.5878
   689.06         41.5431
   689.20         41.5214
   689.34         41.5470
   689.48         41.6360
   689.62         41.7911
   689.76         41.9990
   689.90         42.2374
   690.04         42.4840
   690.18         42.7242
   690.32         42.9521
   690.46         43.1686
   690.60         43.3791
   690.74         43.5873
   690.88         43.7946
   691.02         44.0030
   691.16         44.2132
   691.30         44.4258
   691.44         44.6404
   691.58         44.8540
   691.72         45.0624
   691.86         45.2605
   692.00         45.4460
   692.14         45.6166
   692.28         45.7664
   692.42         45.8892
   692.56         45.9820
   692.70         46.0458
   692.84         46.0829
   692.98         46.0979
   693.12         46.0986
   693.26         46.0924
   693.40         46.0822
   693.54         46.0681
   693.68         46.0483
   693.82         46.0221
   693.96         45.9946
   694.10         45.9727
   694.24         45.9601
   694.38         45.9575
   694.52         45.9640
   694.66         45.9773
   694.80         45.9923
   694.94         46.0032
   695.08         46.0078
   695.22         46.0063
   695.36         45.9992
   695.50         45.9899
   695.64         45.9852
   695.78         45.9923
   695.92         46.0124
   696.06         46.0436
   696.20         46.0857
   696.34         46.1415
   696.48         46.2160
   696.62         46.3091
   696.76         46.4127
   696.90         46.5154
   697.04         46.6071
   697.18         46.6813
   697.32         46.7326
   697.46         46.7544
   697.60         46.7406
   697.74         46.6873
   697.88         46.5935
   698.02         46.4600
   698.16         46.2905
   698.30         46.0933
   698.44         45.8788
   698.58         45.6580
   698.72         45.4433
   698.86         45.2471
   699.00         45.0779
   699.14         44.9367
   699.28         44.8209
   699.42         44.7306
   699.56         44.6651
   699.70         44.6198
   699.84         44.5885
   699.98         44.5658
   700.12         44.5469
   700.26         44.5290
   700.40         44.5113
   700.54         44.4956
   700.68         44.4845
   700.82         44.4816
   700.96         44.4892
   701.10         44.5047
   701.24         44.5232
   701.38         44.5403
   701.52         44.5529
   701.66         44.5598
   701.80         44.5621
   701.94         44.5648
   702.08         44.5729
   702.22         44.5900
   702.36         44.6185
   702.50         44.6601
   702.64         44.7131
   702.78         44.7721
   702.92         44.8326
   703.06         44.8938
   703.20         44.9559
   703.34         45.0152
   703.48         45.0641
   703.62         45.0940
   703.76         45.0979
   703.90         45.0717
   704.04         45.0134
   704.18         44.9241
   704.32         44.8100
   704.46         44.6814
   704.60         44.5487
   704.74         44.4190
   704.88         44.2956
   705.02         44.1747
   705.16         44.0460
   705.30         43.8990
   705.44         43.7278
   705.58         43.5330
   705.72         43.3213
   705.86         43.1017
   706.00         42.8843
   706.14         42.6829
   706.28         42.5124
   706.42         42.3871
   706.56         42.3213
   706.70         42.3250
   706.84         42.4003
   706.98         42.5412
   707.12         42.7312
   707.26         42.9439
   707.40         43.1522
   707.54         43.3344
   707.68         43.4751
   707.82         43.5676
   707.96         43.6161
   708.10         43.6323
   708.24         43.6296
   708.38         43.6196
   708.52         43.6085
   708.66         43.5968
   708.80         43.5835
   708.94         43.5663
   709.08         43.5427
   709.22         43.5102
   709.36         43.4647
   709.50         43.4052
   709.64         43.3366
   709.78         43.2660
   709.92         43.1994
   710.06         43.1432
   710.20         43.1038
   710.34         43.0840
   710.48         43.0840
   710.62         43.1023
   710.76         43.1338
   710.90         43.1721
   711.04         43.2117
   711.18         43.2481
   711.32         43.2800
   711.46         43.3084
   711.60         43.3340
   711.74         43.3559
   711.88         43.3716
   712.02         43.3789
   712.16         43.3774
   712.30         43.3683
   712.44         43.3522
   712.58         43.3278
   712.72         43.2946
   712.86         43.2506
   713.00         43.1940
   713.14         43.1281
   713.28         43.0585
   713.42         42.9908
   713.56         42.9309
   713.70         42.8857
   713.84         42.8591
   713.98         42.8495
   714.12         42.8516
   714.26         42.8607
   714.40         42.8734
   714.54         42.8864
   714.68         42.8985
   714.82         42.9102
   714.96         42.9212
   715.10         42.9291
   715.24         42.9284
   715.38         42.9136
   715.52         42.8786
   715.66         42.8165
   715.80         42.7216
   715.94         42.5889
   716.08         42.4152
   716.22         42.2012
   716.36         41.9516
   716.50         41.6730
   716.64         41.3733
   716.78         41.0657
   716.92         40.7646
   717.06         40.4824
   717.20         40.2285
   717.34         40.0066
   717.48         39.8144
   717.62         39.6487
   717.76         39.5067
   717.90         39.3845
   718.04         39.2777
   718.18         39.1831
   718.32         39.1012
   718.46         39.0370
   718.60         38.9945
   718.74         38.9717
   718.88         38.9634
   719.02         38.9673
   719.16         38.9832
   719.30         39.0096
   719.44         39.0433
   719.58         39.0815
   719.72         39.1244
   719.86         39.1735
   720.00         39.2335
   720.14         39.3163
   720.28         39.4368
   720.42         39.6027
   720.56         39.8110
   720.70         40.0526
   720.84         40.3176
   720.98         40.5946
   721.12         40.8661
   721.26         41.1111
   721.40         41.3129
   721.54         41.4620
   721.68         41.5554
   721.82         41.5920
   721.96         41.5717
   722.10         41.4992
   722.24         41.3847
   722.38         41.2422
   722.52         41.0886
   722.66         40.9408
   722.80         40.8070
   722.94         40.6847
   723.08         40.5695
   723.22         40.4598
   723.36         40.3558
   723.50         40.2574
   723.64         40.1627
   723.78         40.0665
   723.92         39.9637
   724.06         39.8528
   724.20         39.7347
   724.34         39.6123
   724.48         39.4902
   724.62         39.3740
   724.76         39.2685
   724.90         39.1778
   725.04         39.1044
   725.18         39.0475
   725.32         39.0011
   725.46         38.9597
   725.60         38.9248
   725.74         38.9025
   725.88         38.8962
   726.02         38.9036
   726.16         38.9191
   726.30         38.9340
   726.44         38.9361
   726.58         38.9139
   726.72         38.8642
   726.86         38.7905
   727.00         38.6994
   727.14         38.5993
   727.28         38.4987
   727.42         38.4069
   727.56         38.3346
   727.70         38.2899
   727.84         38.2743
   727.98         38.2852
   728.12         38.3190
   728.26         38.3687
   728.40         38.4235
   728.54         38.4711
   728.68         38.5011
   728.82         38.5075
   728.96         38.4890
   729.10         38.4465
   729.24         38.3840
   729.38         38.3093
   729.52         38.2323
   729.66         38.1612
   729.80         38.1006
   729.94         38.0531
   730.08         38.0226
   730.22         38.0135
   730.36         38.0248
   730.50         38.0524
   730.64         38.0938
   730.78         38.1460
   730.92         38.2047
   731.06         38.2644
   731.20         38.3210
   731.34         38.3719
   731.48         38.4133
   731.62         38.4408
   731.76         38.4513
   731.90         38.4451
   732.04         38.4250
   732.18         38.3935
   732.32         38.3500
   732.46         38.2943
   732.60         38.2297
   732.74         38.1609
   732.88         38.0897
   733.02         38.0131
   733.16         37.9300
   733.30         37.8425
   733.44         37.7543
   733.58         37.6716
   733.72         37.5992
   733.86         37.5386
   734.00         37.4894
   734.14         37.4503
   734.28         37.4188
   734.42         37.3903
   734.56         37.3580
   734.70         37.3166
   734.84         37.2652
   734.98         37.2059
   735.12         37.1409
   735.26         37.0726
   735.40         37.0047
   735.54         36.9403
   735.68         36.8822
   735.82         36.8336
   735.96         36.7970
   736.10         36.7729
   736.24         36.7603
   736.38         36.7555
   736.52         36.7537
   736.66         36.7510
   736.80         36.7450
   736.94         36.7359
   737.08         36.7247
   737.22         36.7133
   737.36         36.7054
   737.50         36.7050
   737.64         36.7129
   737.78         36.7284
   737.92         36.7514
   738.06         36.7808
   738.20         36.8104
   738.34         36.8308
   738.48         36.8322
   738.62         36.8060
   738.76         36.7479
   738.90         36.6592
   739.04         36.5446
   739.18         36.4122
   739.32         36.2741
   739.46         36.1436
   739.60         36.0306
   739.74         35.9400
   739.88         35.8740
   740.02         35.8339
   740.16         35.8195
   740.30         35.8279
   740.44         35.8536
   740.58         35.8895
   740.72         35.9283
   740.86         35.9641
   741.00         35.9921
   741.14         36.0098
   741.28         36.0175
   741.42         36.0168
   741.56         36.0111
   741.70         36.0038
   741.84         35.9967
   741.98         35.9910
   742.12         35.9863
   742.26         35.9814
   742.40         35.9756
   742.54         35.9701
   742.68         35.9662
   742.82         35.9640
   742.96         35.9640
   743.10         35.9662
   743.24         35.9701
   743.38         35.9756
   743.52         35.9814
   743.66         35.9863
   743.80         35.9910
   743.94         35.9967
   744.08         36.0038
   744.22         36.0111
