# File HD17971
# Wavelength [nm]    Normalized Amplitude
   349.70         41.6448
   349.84         41.5181
   349.98         41.4035
   350.12         41.2734
   350.26         41.1148
   350.40         40.9327
   350.54         40.7431
   350.68         40.5622
   350.82         40.4066
   350.96         40.2984
   351.10         40.2593
   351.24         40.2984
   351.38         40.4066
   351.52         40.5622
   351.66         40.7431
   351.80         40.9327
   351.94         41.1148
   352.08         41.2734
   352.22         41.4035
   352.36         41.5181
   352.50         41.6448
   352.64         41.8168
   352.78         42.0592
   352.92         42.3809
   353.06         42.7744
   353.20         43.2232
   353.34         43.7006
   353.48         44.1729
   353.62         44.6066
   353.76         44.9627
   353.90         45.2010
   354.04         45.2938
   354.18         45.2333
   354.32         45.0280
   354.46         44.7021
   354.60         44.3005
   354.74         43.8867
   354.88         43.5293
   355.02         43.2771
   355.16         43.1414
   355.30         43.0974
   355.44         43.0978
   355.58         43.0932
   355.72         43.0462
   355.86         42.9282
   356.00         42.7107
   356.14         42.3803
   356.28         41.9469
   356.42         41.4305
   356.56         40.8655
   356.70         40.3102
   356.84         39.8373
   356.98         39.5159
   357.12         39.3945
   357.26         39.4836
   357.40         39.7473
   357.54         40.1104
   357.68         40.4756
   357.82         40.7542
   357.96         40.8957
   358.10         40.8897
   358.24         40.7521
   358.38         40.5156
   358.52         40.2245
   358.66         39.9288
   358.80         39.6820
   358.94         39.5272
   359.08         39.4852
   359.22         39.5622
   359.36         39.7501
   359.50         40.0175
   359.64         40.3056
   359.78         40.5371
   359.92         40.6451
   360.06         40.6045
   360.20         40.4384
   360.34         40.2024
   360.48         39.9639
   360.62         39.7829
   360.76         39.6974
   360.90         39.7237
   361.04         39.8718
   361.18         40.1469
   361.32         40.5368
   361.46         41.0172
   361.60         41.5565
   361.74         42.1114
   361.88         42.6295
   362.02         43.0563
   362.16         43.3412
   362.30         43.4512
   362.44         43.3948
   362.58         43.2235
   362.72         43.0040
   362.86         42.7917
   363.00         42.6190
   363.14         42.4973
   363.28         42.4333
   363.42         42.4462
   363.56         42.5566
   363.70         42.7682
   363.84         43.0598
   363.98         43.3946
   364.12         43.7436
   364.26         44.0964
   364.40         44.4616
   364.54         44.8683
   364.68         45.3580
   364.82         45.9711
   364.96         46.7383
   365.10         47.6643
   365.24         48.7109
   365.38         49.8063
   365.52         50.8686
   365.66         51.8244
   365.80         52.6240
   365.94         53.2465
   366.08         53.6868
   366.22         53.9473
   366.36         54.0507
   366.50         54.0463
   366.64         53.9951
   366.78         53.9568
   366.92         53.9871
   367.06         54.1316
   367.20         54.4146
   367.34         54.8326
   367.48         55.3597
   367.62         55.9643
   367.76         56.6247
   367.90         57.3335
   368.04         58.1028
   368.18         58.9606
   368.32         59.9385
   368.46         61.0507
   368.60         62.2977
   368.74         63.6902
   368.88         65.2437
   369.02         66.9474
   369.16         68.7392
   369.30         70.5154
   369.44         72.1767
   369.58         73.6608
   369.72         74.9170
   369.86         75.8764
   370.00         76.4744
   370.14         76.6987
   370.28         76.6193
   370.42         76.3871
   370.56         76.1980
   370.70         76.2261
   370.84         76.5576
   370.98         77.1768
   371.12         78.0134
   371.26         79.0083
   371.40         80.1232
   371.54         81.3075
   371.68         82.5091
   371.82         83.6797
   371.96         84.7459
   372.10         85.6009
   372.24         86.1175
   372.38         86.1839
   372.52         85.7751
   372.66         85.0057
   372.80         84.1040
   372.94         83.3166
   373.08         82.8244
   373.22         82.6946
   373.36         82.8649
   373.50         83.1896
   373.64         83.5085
   373.78         83.7026
   373.92         83.7290
   374.06         83.6113
   374.20         83.4112
   374.34         83.2014
   374.48         83.0148
   374.62         82.8259
   374.76         82.6133
   374.90         82.4340
   375.04         82.4272
   375.18         82.7499
   375.32         83.4980
   375.46         84.6456
   375.60         86.0258
   375.74         87.3937
   375.88         88.5223
   376.02         89.2657
   376.16         89.5966
   376.30         89.6225
   376.44         89.5936
   376.58         89.8609
   376.72         90.7669
   376.86         92.5464
   377.00         95.2837
   377.14         98.9130
   377.28         103.2550
   377.42         108.0740
   377.56         113.1091
   377.70         118.0702
   377.84         122.6503
   377.98         126.5448
   378.12         129.4653
   378.26         131.1720
   378.40         131.5196
   378.54         130.4957
   378.68         128.2511
   378.82         125.1097
   378.96         121.5405
   379.10         118.0796
   379.24         115.2180
   379.38         113.3190
   379.52         112.6071
   379.66         113.2108
   379.80         115.1505
   379.94         118.2687
   380.08         122.2394
   380.22         126.6490
   380.36         131.0840
   380.50         135.1716
   380.64         138.5756
   380.78         141.0240
   380.92         142.3615
   381.06         142.5728
   381.20         141.7797
   381.34         140.2142
   381.48         138.1529
   381.62         135.8355
   381.76         133.4096
   381.90         130.9165
   382.04         128.3075
   382.18         125.4762
   382.32         122.3171
   382.46         118.7535
   382.60         114.7835
   382.74         110.5712
   382.88         106.4646
   383.02         102.9103
   383.16         100.3211
   383.30         98.9894
   383.44         99.0721
   383.58         100.5887
   383.72         103.4290
   383.86         107.3916
   384.00         112.2142
   384.14         117.5761
   384.28         123.1002
   384.42         128.3912
   384.56         133.1033
   384.70         137.0082
   384.84         140.0526
   384.98         142.3452
   385.12         144.0690
   385.26         145.4202
   385.40         146.6000
   385.54         147.8046
   385.68         149.1776
   385.82         150.7581
   385.96         152.4799
   386.10         154.2172
   386.24         155.8344
   386.38         157.2025
   386.52         158.2035
   386.66         158.7397
   386.80         158.7310
   386.94         158.1160
   387.08         156.8548
   387.22         154.9043
   387.36         152.2070
   387.50         148.7268
   387.64         144.4840
   387.78         139.6020
   387.92         134.3293
   388.06         128.9880
   388.20         123.8955
   388.34         119.3100
   388.48         115.4212
   388.62         112.3862
   388.76         110.3566
   388.90         109.4459
   389.04         109.6649
   389.18         110.9019
   389.32         112.9509
   389.46         115.5643
   389.60         118.5103
   389.74         121.5881
   389.88         124.6127
   390.02         127.4234
   390.16         129.9077
   390.30         131.9995
   390.44         133.6578
   390.58         134.8403
   390.72         135.4971
   390.86         135.5948
   391.00         135.1478
   391.14         134.2122
   391.28         132.8492
   391.42         131.0797
   391.56         128.8504
   391.70         126.0361
   391.84         122.4824
   391.98         118.0683
   392.12         112.7462
   392.26         106.5488
   392.40         99.5992
   392.54         92.1409
   392.68         84.5634
   392.82         77.3907
   392.96         71.2162
   393.10         66.6074
   393.24         64.0225
   393.38         63.7395
   393.52         65.8028
   393.66         70.0062
   393.80         75.9233
   393.94         82.9950
   394.08         90.6295
   394.22         98.2706
   394.36         105.4447
   394.50         111.8029
   394.64         117.1335
   394.78         121.3301
   394.92         124.3455
   395.06         126.1415
   395.20         126.6556
   395.34         125.7936
   395.48         123.4567
   395.62         119.5991
   395.76         114.2897
   395.90         107.7522
   396.04         100.3707
   396.18         92.6718
   396.32         85.2932
   396.46         78.9309
   396.60         74.2498
   396.74         71.7571
   396.88         71.7120
   397.02         74.1222
   397.16         78.7860
   397.30         85.3196
   397.44         93.1913
   397.58         101.7929
   397.72         110.5303
   397.86         118.9057
   398.00         126.5593
   398.14         133.2680
   398.28         138.9258
   398.42         143.5166
   398.56         147.0896
   398.70         149.7453
   398.84         151.6100
   398.98         152.8056
   399.12         153.4366
   399.26         153.5893
   399.40         153.3554
   399.54         152.8708
   399.68         152.3277
   399.82         151.9275
   399.96         151.8121
   400.10         152.0533
   400.24         152.6865
   400.38         153.7289
   400.52         155.1728
   400.66         156.9605
   400.80         158.9711
   400.94         161.0354
   401.08         162.9643
   401.22         164.5965
   401.36         165.8328
   401.50         166.6134
   401.64         166.8915
   401.78         166.6289
   401.92         165.8153
   402.06         164.4983
   402.20         162.7803
   402.34         160.8076
   402.48         158.7629
   402.62         156.8508
   402.76         155.2844
   402.90         154.2558
   403.04         153.8836
   403.18         154.1767
   403.32         155.0398
   403.46         156.3116
   403.60         157.8050
   403.74         159.3378
   403.88         160.7499
   404.02         161.8911
   404.16         162.6167
   404.30         162.8319
   404.44         162.5474
   404.58         161.9037
   404.72         161.1270
   404.86         160.4377
   405.00         159.9806
   405.14         159.8044
   405.28         159.8850
   405.42         160.1650
   405.56         160.5742
   405.70         161.0256
   405.84         161.4143
   405.98         161.6442
   406.12         161.6403
   406.26         161.3302
   406.40         160.6444
   406.54         159.5542
   406.68         158.1226
   406.82         156.5186
   406.96         154.9641
   407.10         153.6487
   407.24         152.6786
   407.38         152.0767
   407.52         151.8198
   407.66         151.8922
   407.80         152.3086
   407.94         153.0940
   408.08         154.2417
   408.22         155.6706
   408.36         157.2081
   408.50         158.6134
   408.64         159.6170
   408.78         159.9343
   408.92         159.3014
   409.06         157.5739
   409.20         154.8041
   409.34         151.2285
   409.48         147.1876
   409.62         143.0376
   409.76         139.1144
   409.90         135.7541
   410.04         133.2961
   410.18         132.0455
   410.32         132.2044
   410.46         133.7965
   410.60         136.6496
   410.74         140.4281
   410.88         144.6798
   411.02         148.9222
   411.16         152.7320
   411.30         155.7881
   411.44         157.8839
   411.58         158.9485
   411.72         159.0503
   411.86         158.3426
   412.00         157.0118
   412.14         155.2763
   412.28         153.3885
   412.42         151.6300
   412.56         150.2995
   412.70         149.6624
   412.84         149.8693
   412.98         150.8985
   413.12         152.5798
   413.26         154.6842
   413.40         156.9941
   413.54         159.3103
   413.68         161.4484
   413.82         163.2438
   413.96         164.5575
   414.10         165.2848
   414.24         165.3864
   414.38         164.9152
   414.52         164.0145
   414.66         162.8802
   414.80         161.6986
   414.94         160.6001
   415.08         159.6641
   415.22         158.9482
   415.36         158.4892
   415.50         158.2877
   415.64         158.3144
   415.78         158.5182
   415.92         158.8044
   416.06         159.0221
   416.20         158.9888
   416.34         158.5396
   416.48         157.5542
   416.62         155.9743
   416.76         153.8391
   416.90         151.3010
   417.04         148.5876
   417.18         145.9420
   417.32         143.5744
   417.46         141.6569
   417.60         140.3449
   417.74         139.7707
   417.88         140.0097
   418.02         141.0499
   418.16         142.7839
   418.30         145.0179
   418.44         147.4984
   418.58         149.9662
   418.72         152.2164
   418.86         154.1104
   419.00         155.5519
   419.14         156.4805
   419.28         156.8964
   419.42         156.8655
   419.56         156.4873
   419.70         155.8706
   419.84         155.1412
   419.98         154.4474
   420.12         153.9350
   420.26         153.7081
   420.40         153.8155
   420.54         154.2649
   420.68         155.0352
   420.82         156.0683
   420.96         157.2584
   421.10         158.4592
   421.24         159.5039
   421.38         160.2360
   421.52         160.5630
   421.66         160.4952
   421.80         160.1254
   421.94         159.5652
   422.08         158.8985
   422.22         158.1828
   422.36         157.4604
   422.50         156.7691
   422.64         156.1522
   422.78         155.6626
   422.92         155.3556
   423.06         155.2813
   423.20         155.4608
   423.34         155.8493
   423.48         156.3303
   423.62         156.7574
   423.76         157.0045
   423.90         157.0012
   424.04         156.7639
   424.18         156.3887
   424.32         155.9859
   424.46         155.6151
   424.60         155.2757
   424.74         154.9625
   424.88         154.7184
   425.02         154.6330
   425.16         154.8298
   425.30         155.4308
   425.44         156.4977
   425.58         157.9872
   425.72         159.7532
   425.86         161.5772
   426.00         163.2162
   426.14         164.4665
   426.28         165.2088
   426.42         165.4188
   426.56         165.1534
   426.70         164.5313
   426.84         163.6970
   426.98         162.7738
   427.12         161.8537
   427.26         161.0150
   427.40         160.3273
   427.54         159.8290
   427.68         159.4984
   427.82         159.2549
   427.96         158.9752
   428.10         158.5121
   428.24         157.7278
   428.38         156.5364
   428.52         154.9260
   428.66         152.9484
   428.80         150.6874
   428.94         148.2425
   429.08         145.7345
   429.22         143.2883
   429.36         141.0149
   429.50         139.0074
   429.64         137.3464
   429.78         136.1127
   429.92         135.3599
   430.06         135.0675
   430.20         135.1590
   430.34         135.5704
   430.48         136.2848
   430.62         137.2977
   430.76         138.5720
   430.90         140.0462
   431.04         141.6530
   431.18         143.3021
   431.32         144.8844
   431.46         146.3314
   431.60         147.6555
   431.74         148.9124
   431.88         150.1412
   432.02         151.3408
   432.16         152.4661
   432.30         153.4071
   432.44         153.9666
   432.58         153.8770
   432.72         152.8800
   432.86         150.8393
   433.00         147.7976
   433.14         143.9542
   433.28         139.6208
   433.42         135.1877
   433.56         131.0791
   433.70         127.6795
   433.84         125.2646
   433.98         124.0113
   434.12         124.0418
   434.26         125.4053
   434.40         128.0385
   434.54         131.7477
   434.68         136.2299
   434.82         141.1282
   434.96         146.0896
   435.10         150.8330
   435.24         155.1880
   435.38         159.0773
   435.52         162.4830
   435.66         165.4160
   435.80         167.8954
   435.94         169.9140
   436.08         171.4058
   436.22         172.2603
   436.36         172.3970
   436.50         171.8534
   436.64         170.8091
   436.78         169.5206
   436.92         168.2019
   437.06         166.9399
   437.20         165.7189
   437.34         164.5086
   437.48         163.3139
   437.62         162.1701
   437.76         161.1017
   437.90         160.0882
   438.04         159.0722
   438.18         157.9897
   438.32         156.8078
   438.46         155.5358
   438.60         154.1845
   438.74         152.7557
   438.88         151.2989
   439.02         149.9422
   439.16         148.8304
   439.30         148.0437
   439.44         147.5873
   439.58         147.4062
   439.72         147.4386
   439.86         147.6772
   440.00         148.1403
   440.14         148.7942
   440.28         149.4932
   440.42         149.9937
   440.56         150.0597
   440.70         149.5636
   440.84         148.5163
   440.98         147.0460
   441.12         145.3527
   441.26         143.6642
   441.40         142.2174
   441.54         141.2338
   441.68         140.8639
   441.82         141.1445
   441.96         142.0125
   442.10         143.3320
   442.24         144.9327
   442.38         146.6751
   442.52         148.4628
   442.66         150.2069
   442.80         151.7981
   442.94         153.1058
   443.08         154.0303
   443.22         154.5568
   443.36         154.7574
   443.50         154.7312
   443.64         154.5485
   443.78         154.2607
   443.92         153.9241
   444.06         153.5962
   444.20         153.3208
   444.34         153.1324
   444.48         153.0711
   444.62         153.1797
   444.76         153.4831
   444.90         153.9789
   445.04         154.6355
   445.18         155.3758
   445.32         156.0692
   445.46         156.5452
   445.60         156.6540
   445.74         156.3556
   445.88         155.7443
   446.02         154.9946
   446.16         154.2852
   446.30         153.7717
   446.44         153.5954
   446.58         153.8633
   446.72         154.5887
   446.86         155.6874
   447.00         157.0468
   447.14         158.5716
   447.28         160.1805
   447.42         161.7654
   447.56         163.1759
   447.70         164.2573
   447.84         164.8822
   447.98         164.9735
   448.12         164.5236
   448.26         163.6211
   448.40         162.4503
   448.54         161.2398
   448.68         160.1852
   448.82         159.3998
   448.96         158.9347
   449.10         158.8187
   449.24         159.0605
   449.38         159.6344
   449.52         160.5064
   449.66         161.6656
   449.80         163.1032
   449.94         164.7668
   450.08         166.5255
   450.22         168.2102
   450.36         169.6852
   450.50         170.8562
   450.64         171.6461
   450.78         171.9843
   450.92         171.8215
   451.06         171.1458
   451.20         169.9884
   451.34         168.4172
   451.48         166.5342
   451.62         164.4773
   451.76         162.3942
   451.90         160.4025
   452.04         158.5757
   452.18         156.9823
   452.32         155.7288
   452.46         154.9270
   452.60         154.6254
   452.74         154.7900
   452.88         155.3444
   453.02         156.2016
   453.16         157.2592
   453.30         158.4120
   453.44         159.5696
   453.58         160.6358
   453.72         161.5078
   453.86         162.1021
   454.00         162.3391
   454.14         162.1305
   454.28         161.4235
   454.42         160.2525
   454.56         158.7368
   454.70         157.0609
   454.84         155.4531
   454.98         154.1120
   455.12         153.1361
   455.26         152.5507
   455.40         152.3711
   455.54         152.6195
   455.68         153.2913
   455.82         154.3339
   455.96         155.6549
   456.10         157.1328
   456.24         158.6275
   456.38         160.0145
   456.52         161.1941
   456.66         162.0701
   456.80         162.5623
   456.94         162.6266
   457.08         162.2575
   457.22         161.4976
   457.36         160.4309
   457.50         159.1426
   457.64         157.7052
   457.78         156.2240
   457.92         154.8548
   458.06         153.7506
   458.20         153.0171
   458.34         152.7143
   458.48         152.8812
   458.62         153.5358
   458.76         154.6569
   458.90         156.1782
   459.04         158.0048
   459.18         160.0341
   459.32         162.1611
   459.46         164.2936
   459.60         166.3744
   459.74         168.3941
   459.88         170.3695
   460.02         172.2751
   460.16         174.0249
   460.30         175.5215
   460.44         176.6808
   460.58         177.4249
   460.72         177.7028
   460.86         177.5297
   461.00         176.9846
   461.14         176.1824
   461.28         175.2427
   461.42         174.2665
   461.56         173.3273
   461.70         172.4846
   461.84         171.7961
   461.98         171.2976
   462.12         170.9822
   462.26         170.8155
   462.40         170.7619
   462.54         170.7948
   462.68         170.9001
   462.82         171.0885
   462.96         171.3937
   463.10         171.8504
   463.24         172.4850
   463.38         173.3141
   463.52         174.3196
   463.66         175.4271
   463.80         176.5344
   463.94         177.5358
   464.08         178.3294
   464.22         178.8345
   464.36         179.0178
   464.50         178.9021
   464.64         178.5432
   464.78         178.0175
   464.92         177.4216
   465.06         176.8417
   465.20         176.3157
   465.34         175.8200
   465.48         175.2871
   465.62         174.6373
   465.76         173.8142
   465.90         172.8294
   466.04         171.7772
   466.18         170.8003
   466.32         170.0491
   466.46         169.6452
   466.60         169.6475
   466.74         170.0499
   466.88         170.8192
   467.02         171.9250
   467.16         173.3326
   467.30         174.9707
   467.44         176.7210
   467.58         178.4473
   467.72         180.0270
   467.86         181.3669
   468.00         182.4149
   468.14         183.1723
   468.28         183.6834
   468.42         184.0092
   468.56         184.1976
   468.70         184.2567
   468.84         184.1591
   468.98         183.8706
   469.12         183.3817
   469.26         182.7189
   469.40         181.9216
   469.54         181.0237
   469.68         180.0607
   469.82         179.0829
   469.96         178.1487
   470.10         177.3019
   470.24         176.5736
   470.38         175.9869
   470.52         175.5530
   470.66         175.2735
   470.80         175.1490
   470.94         175.1812
   471.08         175.3640
   471.22         175.6796
   471.36         176.0980
   471.50         176.5697
   471.64         177.0226
   471.78         177.3761
   471.92         177.5624
   472.06         177.5421
   472.20         177.3225
   472.34         176.9579
   472.48         176.5180
   472.62         176.0643
   472.76         175.6500
   472.90         175.3263
   473.04         175.1423
   473.18         175.1329
   473.32         175.3193
   473.46         175.7060
   473.60         176.2763
   473.74         176.9968
   473.88         177.8137
   474.02         178.6491
   474.16         179.4063
   474.30         179.9938
   474.44         180.3556
   474.58         180.4789
   474.72         180.3625
   474.86         179.9752
   475.00         179.2551
   475.14         178.1563
   475.28         176.7000
   475.42         174.9766
   475.56         173.1273
   475.70         171.3162
   475.84         169.7027
   475.98         168.4335
   476.12         167.6248
   476.26         167.3434
   476.40         167.5923
   476.54         168.2880
   476.68         169.2752
   476.82         170.3847
   476.96         171.4785
   477.10         172.4538
   477.24         173.2264
   477.38         173.7252
   477.52         173.9191
   477.66         173.8515
   477.80         173.6425
   477.94         173.4470
   478.08         173.3976
   478.22         173.5692
   478.36         173.9726
   478.50         174.5694
   478.64         175.2893
   478.78         176.0462
   478.92         176.7521
   479.06         177.3112
   479.20         177.6137
   479.34         177.5892
   479.48         177.2534
   479.62         176.6727
   479.76         175.9154
   479.90         175.0424
   480.04         174.1238
   480.18         173.2578
   480.32         172.5498
   480.46         172.0829
   480.60         171.9152
   480.74         172.0703
   480.88         172.5119
   481.02         173.1295
   481.16         173.7651
   481.30         174.2766
   481.44         174.5784
   481.58         174.6322
   481.72         174.4228
   481.86         173.9706
   482.00         173.3553
   482.14         172.6786
   482.28         172.0123
   482.42         171.4060
   482.56         170.9158
   482.70         170.6059
   482.84         170.5232
   482.98         170.6698
   483.12         171.0000
   483.26         171.4314
   483.40         171.8410
   483.54         172.0757
   483.68         172.0052
   483.82         171.5798
   483.96         170.8241
   484.10         169.7582
   484.24         168.3420
   484.38         166.4924
   484.52         164.1266
   484.66         161.1705
   484.80         157.5528
   484.94         153.2439
   485.08         148.3177
   485.22         142.9639
   485.36         137.4674
   485.50         132.1859
   485.64         127.4932
   485.78         123.7053
   485.92         121.0410
   486.06         119.6091
   486.20         119.4286
   486.34         120.4432
   486.48         122.5110
   486.62         125.4014
   486.76         128.8247
   486.90         132.4812
   487.04         136.0889
   487.18         139.4011
   487.32         142.2436
   487.46         144.5537
   487.60         146.3886
   487.74         147.8647
   487.88         149.0886
   488.02         150.1444
   488.16         151.0975
   488.30         151.9836
   488.44         152.8204
   488.58         153.6297
   488.72         154.4349
   488.86         155.2523
   489.00         156.0869
   489.14         156.9456
   489.28         157.8450
   489.42         158.7863
   489.56         159.7287
   489.70         160.6019
   489.84         161.3463
   489.98         161.9353
   490.12         162.3734
   490.26         162.6812
   490.40         162.8831
   490.54         163.0057
   490.68         163.0619
   490.82         163.0284
   490.96         162.8437
   491.10         162.4223
   491.24         161.7085
   491.38         160.7347
   491.52         159.6178
   491.66         158.5226
   491.80         157.6144
   491.94         156.9982
   492.08         156.6861
   492.22         156.6340
   492.36         156.8025
   492.50         157.1697
   492.64         157.7144
   492.78         158.4072
   492.92         159.2055
   493.06         160.0549
   493.20         160.9016
   493.34         161.7168
   493.48         162.5272
   493.62         163.4054
   493.76         164.4300
   493.90         165.6642
   494.04         167.1212
   494.18         168.7281
   494.32         170.3369
   494.46         171.7535
   494.60         172.7952
   494.74         173.3666
   494.88         173.4868
   495.02         173.2506
   495.16         172.7698
   495.30         172.1546
   495.44         171.5183
   495.58         170.9640
   495.72         170.5626
   495.86         170.3489
   496.00         170.3386
   496.14         170.5392
   496.28         170.9314
   496.42         171.4591
   496.56         172.0430
   496.70         172.5832
   496.84         172.9510
   496.98         173.0017
   497.12         172.6278
   497.26         171.8268
   497.40         170.7000
   497.54         169.3835
   497.68         168.0001
   497.82         166.6470
   497.96         165.3978
   498.10         164.3164
   498.24         163.4741
   498.38         162.9421
   498.52         162.7588
   498.66         162.9011
   498.80         163.2787
   498.94         163.7501
   499.08         164.1511
   499.22         164.3241
   499.36         164.1463
   499.50         163.5778
   499.64         162.6904
   499.78         161.6255
   499.92         160.5171
   500.06         159.4287
   500.20         158.3402
   500.34         157.1891
   500.48         155.9188
   500.62         154.5126
   500.76         153.0196
   500.90         151.5468
   501.04         150.2166
   501.18         149.1290
   501.32         148.3608
   501.46         147.9824
   501.60         148.0516
   501.74         148.5861
   501.88         149.5553
   502.02         150.8945
   502.16         152.5137
   502.30         154.2799
   502.44         156.0106
   502.58         157.5156
   502.72         158.6413
   502.86         159.2994
   503.00         159.4938
   503.14         159.3259
   503.28         158.9724
   503.42         158.6295
   503.56         158.4484
   503.70         158.5057
   503.84         158.8154
   503.98         159.3662
   504.12         160.1353
   504.26         161.0812
   504.40         162.1501
   504.54         163.2885
   504.68         164.4528
   504.82         165.6065
   504.96         166.7116
   505.10         167.7115
   505.24         168.5393
   505.38         169.1511
   505.52         169.5474
   505.66         169.7599
   505.80         169.8102
   505.94         169.6884
   506.08         169.3681
   506.22         168.8412
   506.36         168.1389
   506.50         167.3259
   506.64         166.4732
   506.78         165.6292
   506.92         164.8347
   507.06         164.1349
   507.20         163.5654
   507.34         163.1441
   507.48         162.8670
   507.62         162.7128
   507.76         162.6585
   507.90         162.7046
   508.04         162.8751
   508.18         163.1848
   508.32         163.6176
   508.46         164.1204
   508.60         164.6144
   508.74         165.0208
   508.88         165.2813
   509.02         165.3649
   509.16         165.2697
   509.30         165.0133
   509.44         164.6283
   509.58         164.1639
   509.72         163.6725
   509.86         163.2041
   510.00         162.8167
   510.14         162.5722
   510.28         162.5219
   510.42         162.6937
   510.56         163.0717
   510.70         163.5865
   510.84         164.1257
   510.98         164.5620
   511.12         164.7913
   511.26         164.7601
   511.40         164.4647
   511.54         163.9230
   511.68         163.1513
   511.82         162.1631
   511.96         160.9835
   512.10         159.6661
   512.24         158.2951
   512.38         156.9670
   512.52         155.7728
   512.66         154.7890
   512.80         154.0689
   512.94         153.6455
   513.08         153.5323
   513.22         153.7067
   513.36         154.1134
   513.50         154.6896
   513.64         155.3760
   513.78         156.1090
   513.92         156.8101
   514.06         157.3883
   514.20         157.7687
   514.34         157.9285
   514.48         157.9039
   514.62         157.7600
   514.76         157.5547
   514.90         157.3318
   515.04         157.1300
   515.18         156.9774
   515.32         156.8598
   515.46         156.6999
   515.60         156.3773
   515.74         155.7644
   515.88         154.7652
   516.02         153.3620
   516.16         151.6424
   516.30         149.7799
   516.44         147.9915
   516.58         146.5035
   516.72         145.5208
   516.86         145.1877
   517.00         145.5432
   517.14         146.5041
   517.28         147.8933
   517.42         149.4897
   517.56         151.0647
   517.70         152.3998
   517.84         153.3045
   517.98         153.6469
   518.12         153.4008
   518.26         152.6600
   518.40         151.5960
   518.54         150.4149
   518.68         149.3334
   518.82         148.5386
   518.96         148.1321
   519.10         148.1030
   519.24         148.3582
   519.38         148.7707
   519.52         149.2200
   519.66         149.6187
   519.80         149.9317
   519.94         150.1791
   520.08         150.4119
   520.22         150.6818
   520.36         151.0295
   520.50         151.4884
   520.64         152.0871
   520.78         152.8482
   520.92         153.7793
   521.06         154.8663
   521.20         156.0648
   521.34         157.2767
   521.48         158.3515
   521.62         159.1422
   521.76         159.5642
   521.90         159.5859
   522.04         159.1986
   522.18         158.4128
   522.32         157.2618
   522.46         155.8192
   522.60         154.2054
   522.74         152.5638
   522.88         151.0360
   523.02         149.7537
   523.16         148.8431
   523.30         148.4015
   523.44         148.4627
   523.58         148.9885
   523.72         149.8816
   523.86         151.0041
   524.00         152.2157
   524.14         153.4138
   524.28         154.5266
   524.42         155.4837
   524.56         156.2159
   524.70         156.6896
   524.84         156.9052
   524.98         156.8626
   525.12         156.5454
   525.26         155.9301
   525.40         154.9994
   525.54         153.7474
   525.68         152.1870
   525.82         150.3632
   525.96         148.3506
   526.10         146.2393
   526.24         144.1252
   526.38         142.1128
   526.52         140.3241
   526.66         138.8810
   526.80         137.8785
   526.94         137.3696
   527.08         137.3597
   527.22         137.8093
   527.36         138.6467
   527.50         139.7898
   527.64         141.1725
   527.78         142.7566
   527.92         144.5234
   528.06         146.4481
   528.20         148.4827
   528.34         150.5625
   528.48         152.6115
   528.62         154.5372
   528.76         156.2389
   528.90         157.6347
   529.04         158.6867
   529.18         159.3940
   529.32         159.7627
   529.46         159.8037
   529.60         159.5497
   529.74         159.0652
   529.88         158.4505
   530.02         157.8157
   530.16         157.2322
   530.30         156.7048
   530.44         156.1849
   530.58         155.6164
   530.72         154.9763
   530.86         154.2827
   531.00         153.5749
   531.14         152.8828
   531.28         152.2165
   531.42         151.5722
   531.56         150.9360
   531.70         150.3003
   531.84         149.6870
   531.98         149.1417
   532.12         148.7122
   532.26         148.4306
   532.40         148.2950
   532.54         148.2652
   532.68         148.2808
   532.82         148.2963
   532.96         148.3110
   533.10         148.3804
   533.24         148.5917
   533.38         149.0133
   533.52         149.6617
   533.66         150.4939
   533.80         151.4344
   533.94         152.4161
   534.08         153.3979
   534.22         154.3654
   534.36         155.3259
   534.50         156.2875
   534.64         157.2295
   534.78         158.0996
   534.92         158.8261
   535.06         159.3312
   535.20         159.5625
   535.34         159.5132
   535.48         159.2133
   535.62         158.6997
   535.76         157.9931
   535.90         157.1008
   536.04         156.0514
   536.18         154.9260
   536.32         153.8485
   536.46         152.9549
   536.60         152.3530
   536.74         152.0882
   536.88         152.1501
   537.02         152.4944
   537.16         153.0536
   537.30         153.7449
   537.44         154.4807
   537.58         155.1829
   537.72         155.8004
   537.86         156.3192
   538.00         156.7512
   538.14         157.1132
   538.28         157.4146
   538.42         157.6566
   538.56         157.8350
   538.70         157.9454
   538.84         157.9768
   538.98         157.8875
   539.12         157.6015
   539.26         157.0330
   539.40         156.1343
   539.54         154.9341
   539.68         153.5234
   539.82         152.0212
   539.96         150.5515
   540.10         149.2217
   540.24         148.1114
   540.38         147.2694
   540.52         146.7214
   540.66         146.4714
   540.80         146.4874
   540.94         146.7073
   541.08         147.0545
   541.22         147.4504
   541.36         147.8360
   541.50         148.1763
   541.64         148.4461
   541.78         148.6297
   541.92         148.7297
   542.06         148.7697
   542.20         148.7816
   542.34         148.8000
   542.48         148.8793
   542.62         149.0857
   542.76         149.4709
   542.90         150.0647
   543.04         150.8698
   543.18         151.8525
   543.32         152.9295
   543.46         153.9833
   543.60         154.9124
   543.74         155.6534
   543.88         156.1791
   544.02         156.4923
   544.16         156.5995
   544.30         156.4979
   544.44         156.1962
   544.58         155.7411
   544.72         155.2172
   544.86         154.7275
   545.00         154.3729
   545.14         154.2249
   545.28         154.2983
   545.42         154.5613
   545.56         154.9649
   545.70         155.4541
   545.84         155.9706
   545.98         156.4550
   546.12         156.8625
   546.26         157.1634
   546.40         157.3119
   546.54         157.2449
   546.68         156.9104
   546.82         156.2948
   546.96         155.4449
   547.10         154.4663
   547.24         153.4908
   547.38         152.6373
   547.52         151.9899
   547.66         151.5980
   547.80         151.4835
   547.94         151.6440
   548.08         152.0557
   548.22         152.6751
   548.36         153.4322
   548.50         154.2285
   548.64         154.9540
   548.78         155.5105
   548.92         155.8205
   549.06         155.8358
   549.20         155.5635
   549.34         155.0613
   549.48         154.4048
   549.62         153.6664
   549.76         152.9040
   549.90         152.1626
   550.04         151.4816
   550.18         150.9022
   550.32         150.4712
   550.46         150.2407
   550.60         150.2544
   550.74         150.5243
   550.88         151.0261
   551.02         151.7010
   551.16         152.4571
   551.30         153.1687
   551.44         153.6919
   551.58         153.9037
   551.72         153.7427
   551.86         153.2278
   552.00         152.4265
   552.14         151.4137
   552.28         150.2688
   552.42         149.0942
   552.56         148.0271
   552.70         147.2143
   552.84         146.7667
   552.98         146.7394
   553.12         147.1269
   553.26         147.8661
   553.40         148.8529
   553.54         149.9691
   553.68         151.0995
   553.82         152.1385
   553.96         153.0061
   554.10         153.6766
   554.24         154.1796
   554.38         154.5702
   554.52         154.8994
   554.66         155.1957
   554.80         155.4779
   554.94         155.7823
   555.08         156.1534
   555.22         156.6063
   555.36         157.1000
   555.50         157.5572
   555.64         157.9070
   555.78         158.0987
   555.92         158.1051
   556.06         157.9206
   556.20         157.5604
   556.34         157.0630
   556.48         156.4827
   556.62         155.8808
   556.76         155.3209
   556.90         154.8539
   557.04         154.5194
   557.18         154.3411
   557.32         154.3090
   557.46         154.3776
   557.60         154.4785
   557.74         154.5402
   557.88         154.5073
   558.02         154.3553
   558.16         154.0853
   558.30         153.7194
   558.44         153.2960
   558.58         152.8595
   558.72         152.4569
   558.86         152.1355
   559.00         151.9336
   559.14         151.8693
   559.28         151.9484
   559.42         152.1739
   559.56         152.5421
   559.70         153.0405
   559.84         153.6370
   559.98         154.2857
   560.12         154.9436
   560.26         155.5643
   560.40         156.0968
   560.54         156.4964
   560.68         156.7308
   560.82         156.7902
   560.96         156.6937
   561.10         156.4733
   561.24         156.1558
   561.38         155.7725
   561.52         155.3661
   561.66         154.9873
   561.80         154.6900
   561.94         154.5266
   562.08         154.5272
   562.22         154.6837
   562.36         154.9574
   562.50         155.2924
   562.64         155.6246
   562.78         155.8796
   562.92         155.9892
   563.06         155.9260
   563.20         155.7122
   563.34         155.3982
   563.48         155.0434
   563.62         154.7023
   563.76         154.4181
   563.90         154.2226
   564.04         154.1361
   564.18         154.1651
   564.32         154.2836
   564.46         154.4216
   564.60         154.4782
   564.74         154.3526
   564.88         153.9757
   565.02         153.3232
   565.16         152.4156
   565.30         151.3154
   565.44         150.1089
   565.58         148.8933
   565.72         147.7683
   565.86         146.8258
   566.00         146.1422
   566.14         145.7698
   566.28         145.7306
   566.42         146.0138
   566.56         146.5739
   566.70         147.3417
   566.84         148.2318
   566.98         149.1353
   567.12         149.9350
   567.26         150.5521
   567.40         150.9654
   567.54         151.1817
   567.68         151.2145
   567.82         151.0907
   567.96         150.8533
   568.10         150.5501
   568.24         150.2358
   568.38         149.9791
   568.52         149.8511
   568.66         149.9018
   568.80         150.1462
   568.94         150.5651
   569.08         151.1114
   569.22         151.7113
   569.36         152.2766
   569.50         152.7189
   569.64         152.9652
   569.78         152.9811
   569.92         152.7873
   570.06         152.4426
   570.20         152.0181
   570.34         151.5952
   570.48         151.2558
   570.62         151.0673
   570.76         151.0731
   570.90         151.2915
   571.04         151.7173
   571.18         152.3249
   571.32         153.0688
   571.46         153.8856
   571.60         154.7018
   571.74         155.4424
   571.88         156.0370
   572.02         156.4324
   572.16         156.6085
   572.30         156.5802
   572.44         156.3863
   572.58         156.0757
   572.72         155.6948
   572.86         155.2782
   573.00         154.8549
   573.14         154.4573
   573.28         154.1200
   573.42         153.8666
   573.56         153.7033
   573.70         153.6234
   573.84         153.6129
   573.98         153.6469
   574.12         153.6908
   574.26         153.7130
   574.40         153.6929
   574.54         153.6206
   574.68         153.4998
   574.82         153.3476
   574.96         153.1852
   575.10         153.0282
   575.24         152.8955
   575.38         152.8150
   575.52         152.8127
   575.66         152.9081
   575.80         153.0991
   575.94         153.3545
   576.08         153.6298
   576.22         153.8831
   576.36         154.0728
   576.50         154.1535
   576.64         154.0706
   576.78         153.7633
   576.92         153.1879
   577.06         152.3379
   577.20         151.2468
   577.34         149.9831
   577.48         148.6422
   577.62         147.3289
   577.76         146.1413
   577.90         145.1614
   578.04         144.4454
   578.18         144.0185
   578.32         143.8728
   578.46         143.9644
   578.60         144.2330
   578.74         144.6254
   578.88         145.0938
   579.02         145.5886
   579.16         146.0646
   579.30         146.4886
   579.44         146.8537
   579.58         147.1878
   579.72         147.5298
   579.86         147.8994
   580.00         148.2916
   580.14         148.6852
   580.28         149.0488
   580.42         149.3519
   580.56         149.5735
   580.70         149.7094
   580.84         149.7690
   580.98         149.7680
   581.12         149.7324
   581.26         149.7035
   581.40         149.7242
   581.54         149.8181
   581.68         149.9848
   581.82         150.2101
   581.96         150.4760
   582.10         150.7665
   582.24         151.0666
   582.38         151.3568
   582.52         151.6170
   582.66         151.8381
   582.80         152.0184
   582.94         152.1593
   583.08         152.2699
   583.22         152.3627
   583.36         152.4403
   583.50         152.4945
   583.64         152.5198
   583.78         152.5164
   583.92         152.4805
   584.06         152.3964
   584.20         152.2398
   584.34         151.9877
   584.48         151.6294
   584.62         151.1752
   584.76         150.6549
   584.90         150.1082
   585.04         149.5771
   585.18         149.1065
   585.32         148.7464
   585.46         148.5417
   585.60         148.5231
   585.74         148.7054
   585.88         149.0748
   586.02         149.5855
   586.16         150.1778
   586.30         150.7880
   586.44         151.3443
   586.58         151.7844
   586.72         152.0782
   586.86         152.2279
   587.00         152.2573
   587.14         152.1967
   587.28         152.0718
   587.42         151.8873
   587.56         151.5941
   587.70         151.0869
   587.84         150.2624
   587.98         149.0764
   588.12         147.5200
   588.26         145.5719
   588.40         143.2258
   588.54         140.5479
   588.68         137.6942
   588.82         134.8805
   588.96         132.3386
   589.10         130.2875
   589.24         128.9102
   589.38         128.3303
   589.52         128.5885
   589.66         129.6332
   589.80         131.3356
   589.94         133.5095
   590.08         135.9270
   590.22         138.3533
   590.36         140.6063
   590.50         142.5892
   590.64         144.2533
   590.78         145.5528
   590.92         146.4694
   591.06         147.0599
   591.20         147.4319
   591.34         147.6779
   591.48         147.8434
   591.62         147.9468
   591.76         148.0056
   591.90         148.0398
   592.04         148.0679
   592.18         148.0979
   592.32         148.1282
   592.46         148.1549
   592.60         148.1658
   592.74         148.1437
   592.88         148.0798
   593.02         147.9664
   593.16         147.7958
   593.30         147.5613
   593.44         147.2511
   593.58         146.8487
   593.72         146.3464
   593.86         145.7561
   594.00         145.1010
   594.14         144.4075
   594.28         143.7110
   594.42         143.0514
   594.56         142.4570
   594.70         141.9468
   594.84         141.5409
   594.98         141.2527
   595.12         141.0833
   595.26         141.0302
   595.40         141.0893
   595.54         141.2505
   595.68         141.4947
   595.82         141.7991
   595.96         142.1386
   596.10         142.4816
   596.24         142.8005
   596.38         143.0758
   596.52         143.2869
   596.66         143.4131
   596.80         143.4436
   596.94         143.3756
   597.08         143.2080
   597.22         142.9512
   597.36         142.6304
   597.50         142.2663
   597.64         141.8619
   597.78         141.4096
   597.92         140.9070
   598.06         140.3737
   598.20         139.8556
   598.34         139.4098
   598.48         139.0830
   598.62         138.8978
   598.76         138.8560
   598.90         138.9450
   599.04         139.1405
   599.18         139.4103
   599.32         139.7207
   599.46         140.0340
   599.60         140.3104
   599.74         140.5219
   599.88         140.6533
   600.02         140.6927
   600.16         140.6321
   600.30         140.4731
   600.44         140.2338
   600.58         139.9430
   600.72         139.6308
   600.86         139.3188
   601.00         139.0136
   601.14         138.7126
   601.28         138.4170
   601.42         138.1298
   601.56         137.8501
   601.70         137.5884
   601.84         137.3671
   601.98         137.2081
   602.12         137.1283
   602.26         137.1372
   602.40         137.2346
   602.54         137.4048
   602.68         137.6180
   602.82         137.8364
   602.96         138.0212
   603.10         138.1398
   603.24         138.1679
   603.38         138.0944
   603.52         137.9262
   603.66         137.6752
   603.80         137.3540
   603.94         136.9858
   604.08         136.5992
   604.22         136.2245
   604.36         135.8948
   604.50         135.6334
   604.64         135.4530
   604.78         135.3632
   604.92         135.3647
   605.06         135.4458
   605.20         135.5823
   605.34         135.7418
   605.48         135.8990
   605.62         136.0418
   605.76         136.1688
   605.90         136.2864
   606.04         136.4072
   606.18         136.5457
   606.32         136.7081
   606.46         136.8879
   606.60         137.0663
   606.74         137.2153
   606.88         137.3087
   607.02         137.3273
   607.16         137.2528
   607.30         137.0692
   607.44         136.7706
   607.58         136.3600
   607.72         135.8537
   607.86         135.2874
   608.00         134.7157
   608.14         134.1992
   608.28         133.7817
   608.42         133.4873
   608.56         133.3344
   608.70         133.3250
   608.84         133.4269
   608.98         133.5830
   609.12         133.7319
   609.26         133.8302
   609.40         133.8691
   609.54         133.8627
   609.68         133.8314
   609.82         133.8009
   609.96         133.7999
   610.10         133.8489
   610.24         133.9479
   610.38         134.0843
   610.52         134.2499
   610.66         134.4348
   610.80         134.6154
   610.94         134.7614
   611.08         134.8556
   611.22         134.8943
   611.36         134.8708
   611.50         134.7770
   611.64         134.6177
   611.78         134.4180
   611.92         134.2151
   612.06         134.0405
   612.20         133.9031
   612.34         133.7884
   612.48         133.6655
   612.62         133.4929
   612.76         133.2287
   612.90         132.8392
   613.04         132.3187
   613.18         131.7035
   613.32         131.0441
   613.46         130.3733
   613.60         129.7029
   613.74         129.0432
   613.88         128.4153
   614.02         127.8453
   614.16         127.3600
   614.30         126.9848
   614.44         126.7396
   614.58         126.6300
   614.72         126.6444
   614.86         126.7590
   615.00         126.9391
   615.14         127.1505
   615.28         127.3751
   615.42         127.6142
   615.56         127.8780
   615.70         128.1716
   615.84         128.4798
   615.98         128.7589
   616.12         128.9541
   616.26         129.0329
   616.40         129.0048
   616.54         128.9025
   616.68         128.7557
   616.82         128.5865
   616.96         128.4148
   617.10         128.2668
   617.24         128.1710
   617.38         128.1434
   617.52         128.1891
   617.66         128.3066
   617.80         128.4895
   617.94         128.7222
   618.08         128.9779
   618.22         129.2223
   618.36         129.4256
   618.50         129.5772
   618.64         129.6811
   618.78         129.7428
   618.92         129.7710
   619.06         129.7834
   619.20         129.7994
   619.34         129.8365
   619.48         129.9153
   619.62         130.0557
   619.76         130.2648
   619.90         130.5317
   620.04         130.8354
   620.18         131.1574
   620.32         131.4816
   620.46         131.7907
   620.60         132.0743
   620.74         132.3245
   620.88         132.5325
   621.02         132.6937
   621.16         132.8028
   621.30         132.8580
   621.44         132.8689
   621.58         132.8508
   621.72         132.8067
   621.86         132.7269
   622.00         132.6024
   622.14         132.4297
   622.28         132.2024
   622.42         131.9042
   622.56         131.5033
   622.70         130.9575
   622.84         130.2501
   622.98         129.4140
   623.12         128.5097
   623.26         127.5915
   623.40         126.6842
   623.54         125.7987
   623.68         124.9596
   623.82         124.2072
   623.96         123.5886
   624.10         123.1423
   624.24         122.8902
   624.38         122.8487
   624.52         123.0321
   624.66         123.4453
   624.80         124.0727
   624.94         124.8701
   625.08         125.7737
   625.22         126.7171
   625.36         127.6554
   625.50         128.5660
   625.64         129.4116
   625.78         130.1198
   625.92         130.6073
   626.06         130.8325
   626.20         130.8168
   626.34         130.6141
   626.48         130.2690
   626.62         129.7984
   626.76         129.1942
   626.90         128.4468
   627.04         127.5589
   627.18         126.5337
   627.32         125.3846
   627.46         124.1516
   627.60         122.9087
   627.74         121.7532
   627.88         120.7847
   628.02         120.0895
   628.16         119.7270
   628.30         119.7220
   628.44         120.0717
   628.58         120.7479
   628.72         121.6901
   628.86         122.7960
   629.00         123.9380
   629.14         124.9992
   629.28         125.8899
   629.42         126.5511
   629.56         126.9636
   629.70         127.1412
   629.84         127.1203
   629.98         126.9650
   630.12         126.7590
   630.26         126.5725
   630.40         126.4334
   630.54         126.3357
   630.68         126.2606
   630.82         126.1881
   630.96         126.1038
   631.10         126.0045
   631.24         125.8994
   631.38         125.8107
   631.52         125.7669
   631.66         125.7945
   631.80         125.9119
   631.94         126.1221
   632.08         126.4141
   632.22         126.7712
   632.36         127.1790
   632.50         127.6247
   632.64         128.0932
   632.78         128.5609
   632.92         128.9928
   633.06         129.3488
   633.20         129.5887
   633.34         129.6724
   633.48         129.5658
   633.62         129.2586
   633.76         128.7741
   633.90         128.1616
   634.04         127.4844
   634.18         126.8114
   634.32         126.2183
   634.46         125.7766
   634.60         125.5340
   634.74         125.5112
   634.88         125.7068
   635.02         126.0987
   635.16         126.6408
   635.30         127.2687
   635.44         127.9036
   635.58         128.4510
   635.72         128.8143
   635.86         128.9155
   636.00         128.7216
   636.14         128.2669
   636.28         127.6405
   636.42         126.9460
   636.56         126.2734
   636.70         125.6910
   636.84         125.2444
   636.98         124.9529
   637.12         124.8088
   637.26         124.7832
   637.40         124.8481
   637.54         124.9856
   637.68         125.1805
   637.82         125.4195
   637.96         125.6886
   638.10         125.9672
   638.24         126.2389
   638.38         126.5083
   638.52         126.7945
   638.66         127.1169
   638.80         127.4842
   638.94         127.8869
   639.08         128.3030
   639.22         128.7054
   639.36         129.0598
   639.50         129.3320
   639.64         129.4982
   639.78         129.5475
   639.92         129.4841
   640.06         129.3274
   640.20         129.0941
   640.34         128.7911
   640.48         128.4219
   640.62         127.9951
   640.76         127.5352
   640.90         127.0831
   641.04         126.6804
   641.18         126.3582
   641.32         126.1404
   641.46         126.0490
   641.60         126.0997
   641.74         126.2834
   641.88         126.5550
   642.02         126.8445
   642.16         127.0856
   642.30         127.2393
   642.44         127.2924
   642.58         127.2440
   642.72         127.0891
   642.86         126.8319
   643.00         126.5050
   643.14         126.1590
   643.28         125.8504
   643.42         125.6232
   643.56         125.4955
   643.70         125.4556
   643.84         125.4712
   643.98         125.5097
   644.12         125.5412
   644.26         125.5223
   644.40         125.3939
   644.54         125.1108
   644.68         124.6745
   644.82         124.1331
   644.96         123.5534
   645.10         122.9922
   645.24         122.4902
   645.38         122.0871
   645.52         121.8341
   645.66         121.7705
   645.80         121.8995
   645.94         122.1977
   646.08         122.6292
   646.22         123.1547
   646.36         123.7322
   646.50         124.3238
   646.64         124.9014
   646.78         125.4322
   646.92         125.8780
   647.06         126.2210
   647.20         126.4763
   647.34         126.6688
   647.48         126.8076
   647.62         126.8899
   647.76         126.9095
   647.90         126.8511
   648.04         126.6884
   648.18         126.3877
   648.32         125.9143
   648.46         125.2521
   648.60         124.4252
   648.74         123.5006
   648.88         122.5750
   649.02         121.7568
   649.16         121.1543
   649.30         120.8582
   649.44         120.9201
   649.58         121.3503
   649.72         122.1297
   649.86         123.2118
   650.00         124.5220
   650.14         125.9569
   650.28         127.3855
   650.42         128.6588
   650.56         129.6472
   650.70         130.2827
   650.84         130.5649
   650.98         130.5465
   651.12         130.3197
   651.26         129.9907
   651.40         129.6562
   651.54         129.3921
   651.68         129.2462
   651.82         129.2385
   651.96         129.3630
   652.10         129.5964
   652.24         129.9097
   652.38         130.2698
   652.52         130.6338
   652.66         130.9453
   652.80         131.1466
   652.94         131.2049
   653.08         131.1257
   653.22         130.9448
   653.36         130.7023
   653.50         130.4236
   653.64         130.1176
   653.78         129.7791
   653.92         129.4022
   654.06         128.9909
   654.20         128.5491
   654.34         128.0702
   654.48         127.5274
   654.62         126.8689
   654.76         126.0169
   654.90         124.8672
   655.04         123.3024
   655.18         121.2402
   655.32         118.6903
   655.46         115.7710
   655.60         112.6812
   655.74         109.6575
   655.88         106.9392
   656.02         104.7460
   656.16         103.2633
   656.30         102.6232
   656.44         102.8861
   656.58         104.0370
   656.72         105.9778
   656.86         108.5349
   657.00         111.4874
   657.14         114.5845
   657.28         117.5770
   657.42         120.2507
   657.56         122.4578
   657.70         124.1489
   657.84         125.3707
   657.98         126.2184
   658.12         126.7814
   658.26         127.1204
   658.40         127.2804
   658.54         127.3048
   658.68         127.2365
   658.82         127.1193
   658.96         126.9888
   659.10         126.8630
   659.24         126.7464
   659.38         126.6361
   659.52         126.5311
   659.66         126.4335
   659.80         126.3422
   659.94         126.2551
   660.08         126.1661
   660.22         126.0700
   660.36         125.9735
   660.50         125.8874
   660.64         125.8267
   660.78         125.8070
   660.92         125.8373
   661.06         125.9258
   661.20         126.0725
   661.34         126.2691
   661.48         126.5089
   661.62         126.7801
   661.76         127.0667
   661.90         127.3512
   662.04         127.6138
   662.18         127.8398
   662.32         128.0178
   662.46         128.1361
   662.60         128.1890
   662.74         128.1773
   662.88         128.1107
   663.02         128.0026
   663.16         127.8599
   663.30         127.6877
   663.44         127.4956
   663.58         127.3006
   663.72         127.1241
   663.86         126.9838
   664.00         126.8922
   664.14         126.8490
   664.28         126.8373
   664.42         126.8407
   664.56         126.8446
   664.70         126.8304
   664.84         126.7848
   664.98         126.6943
   665.12         126.5467
   665.26         126.3415
   665.40         126.0850
   665.54         125.7933
   665.68         125.4907
   665.82         125.2057
   665.96         124.9729
   666.10         124.8202
   666.24         124.7560
   666.38         124.7686
   666.52         124.8270
   666.66         124.8904
   666.80         124.9171
   666.94         124.8809
   667.08         124.7861
   667.22         124.6521
   667.36         124.5010
   667.50         124.3573
   667.64         124.2401
   667.78         124.1650
   667.92         124.1433
   668.06         124.1758
   668.20         124.2583
   668.34         124.3817
   668.48         124.5328
   668.62         124.6988
   668.76         124.8617
   668.90         124.9983
   669.04         125.0915
   669.18         125.1412
   669.32         125.1634
   669.46         125.1863
   669.60         125.2418
   669.74         125.3463
   669.88         125.4847
   670.02         125.6207
   670.16         125.7180
   670.30         125.7503
   670.44         125.7058
   670.58         125.5800
   670.72         125.3741
   670.86         125.1018
   671.00         124.7919
   671.14         124.4800
   671.28         124.1961
   671.42         123.9614
   671.56         123.7898
   671.70         123.6924
   671.84         123.6759
   671.98         123.7370
   672.12         123.8610
   672.26         124.0223
   672.40         124.1912
   672.54         124.3424
   672.68         124.4626
   672.82         124.5509
   672.96         124.6075
   673.10         124.6267
   673.24         124.5998
   673.38         124.5254
   673.52         124.4105
   673.66         124.2611
   673.80         124.0766
   673.94         123.8577
   674.08         123.6138
   674.22         123.3593
   674.36         123.1102
   674.50         122.8797
   674.64         122.6749
   674.78         122.4973
   674.92         122.3500
   675.06         122.2388
   675.20         122.1650
   675.34         122.1290
   675.48         122.1229
   675.62         122.1281
   675.76         122.1302
   675.90         122.1294
   676.04         122.1358
   676.18         122.1604
   676.32         122.2109
   676.46         122.2941
   676.60         122.4110
   676.74         122.5492
   676.88         122.6920
   677.02         122.8245
   677.16         122.9378
   677.30         123.0282
   677.44         123.0934
   677.58         123.1313
   677.72         123.1349
   677.86         123.0966
   678.00         123.0158
   678.14         122.8936
   678.28         122.7375
   678.42         122.5657
   678.56         122.3980
   678.70         122.2511
   678.84         122.1379
   678.98         122.0645
   679.12         122.0305
   679.26         122.0288
   679.40         122.0490
   679.54         122.0845
   679.68         122.1283
   679.82         122.1721
   679.96         122.2080
   680.10         122.2307
   680.24         122.2414
   680.38         122.2477
   680.52         122.2611
   680.66         122.2903
   680.80         122.3386
   680.94         122.4061
   681.08         122.4879
   681.22         122.5677
   681.36         122.6189
   681.50         122.6078
   681.64         122.5061
   681.78         122.3064
   681.92         122.0189
   682.06         121.6631
   682.20         121.2636
   682.34         120.8464
   682.48         120.4352
   682.62         120.0477
   682.76         119.6912
   682.90         119.3658
   683.04         119.0664
   683.18         118.7860
   683.32         118.5209
   683.46         118.2718
   683.60         118.0407
   683.74         117.8304
   683.88         117.6493
   684.02         117.5112
   684.16         117.4270
   684.30         117.4087
   684.44         117.4656
   684.58         117.5959
   684.72         117.7851
   684.86         118.0066
   685.00         118.2282
   685.14         118.4174
   685.28         118.5417
   685.42         118.5636
   685.56         118.4205
   685.70         118.0135
   685.84         117.2317
   685.98         115.9924
   686.12         114.2631
   686.26         112.0667
   686.40         109.4862
   686.54         106.6608
   686.68         103.7667
   686.82         101.0004
   686.96         98.5672
   687.10         96.6542
   687.24         95.3924
   687.38         94.8340
   687.52         94.9553
   687.66         95.6698
   687.80         96.8319
   687.94         98.2523
   688.08         99.7268
   688.22         101.0642
   688.36         102.1301
   688.50         102.8749
   688.64         103.3235
   688.78         103.5404
   688.92         103.6034
   689.06         103.5950
   689.20         103.5914
   689.34         103.6497
   689.48         103.8075
   689.62         104.0810
   689.76         104.4653
   689.90         104.9416
   690.04         105.4874
   690.18         106.0810
   690.32         106.7024
   690.46         107.3338
   690.60         107.9602
   690.74         108.5675
   690.88         109.1479
   691.02         109.7040
   691.16         110.2367
   691.30         110.7406
   691.44         111.2102
   691.58         111.6436
   691.72         112.0401
   691.86         112.3960
   692.00         112.7129
   692.14         113.0048
   692.28         113.2835
   692.42         113.5499
   692.56         113.7959
   692.70         114.0108
   692.84         114.1889
   692.98         114.3343
   693.12         114.4553
   693.26         114.5611
   693.40         114.6656
   693.54         114.7840
   693.68         114.9210
   693.82         115.0709
   693.96         115.2315
   694.10         115.4047
   694.24         115.5887
   694.38         115.7735
   694.52         115.9463
   694.66         116.1010
   694.80         116.2329
   694.94         116.3278
   695.08         116.3725
   695.22         116.3678
   695.36         116.3285
   695.50         116.2796
   695.64         116.2520
   695.78         116.2759
   695.92         116.3743
   696.06         116.5589
   696.20         116.8271
   696.34         117.1643
   696.48         117.5518
   696.62         117.9655
   696.76         118.3708
   696.90         118.7301
   697.04         119.0098
   697.18         119.1882
   697.32         119.2591
   697.46         119.2235
   697.60         119.0832
   697.74         118.8471
   697.88         118.5333
   698.02         118.1602
   698.16         117.7411
   698.30         117.2912
   698.44         116.8271
   698.58         116.3554
   698.72         115.8770
   698.86         115.3921
   699.00         114.9029
   699.14         114.4101
   699.28         113.9154
   699.42         113.4354
   699.56         113.0071
   699.70         112.6722
   699.84         112.4577
   699.98         112.3785
   700.12         112.4411
   700.26         112.6380
   700.40         112.9452
   700.54         113.3324
   700.68         113.7700
   700.82         114.2346
   700.96         114.7062
   701.10         115.1528
   701.24         115.5346
   701.38         115.8248
   701.52         116.0132
   701.66         116.1052
   701.80         116.1210
   701.94         116.0964
   702.08         116.0736
   702.22         116.0827
   702.36         116.1324
   702.50         116.2167
   702.64         116.3269
   702.78         116.4554
   702.92         116.5938
   703.06         116.7394
   703.20         116.8947
   703.34         117.0563
   703.48         117.2173
   703.62         117.3703
   703.76         117.5083
   703.90         117.6301
   704.04         117.7354
   704.18         117.8214
   704.32         117.8877
   704.46         117.9398
   704.60         117.9860
   704.74         118.0309
   704.88         118.0742
   705.02         118.1159
   705.16         118.1563
   705.30         118.1905
   705.44         118.2091
   705.58         118.2022
   705.72         118.1584
   705.86         118.0682
   706.00         117.9339
   706.14         117.7747
   706.28         117.6139
   706.42         117.4656
   706.56         117.3393
   706.70         117.2430
   706.84         117.1845
   706.98         117.1753
   707.12         117.2223
   707.26         117.3163
   707.40         117.4379
   707.54         117.5743
   707.68         117.7191
   707.82         117.8628
   707.96         117.9938
   708.10         118.1070
   708.24         118.2063
   708.38         118.3005
   708.52         118.3975
   708.66         118.4978
   708.80         118.5959
   708.94         118.6795
   709.08         118.7353
   709.22         118.7535
   709.36         118.7267
   709.50         118.6492
   709.64         118.5156
   709.78         118.3166
   709.92         118.0405
   710.06         117.6834
   710.20         117.2550
   710.34         116.7731
   710.48         116.2631
   710.62         115.7580
   710.76         115.2927
   710.90         114.9018
   711.04         114.6140
   711.18         114.4443
   711.32         114.3974
   711.46         114.4717
   711.60         114.6521
   711.74         114.9110
   711.88         115.2161
   712.02         115.5385
   712.16         115.8541
   712.30         116.1446
   712.44         116.4017
   712.58         116.6253
   712.72         116.8254
   712.86         117.0190
   713.00         117.2199
   713.14         117.4333
   713.28         117.6539
   713.42         117.8639
   713.56         118.0365
   713.70         118.1485
   713.84         118.1856
   713.98         118.1401
   714.12         118.0124
   714.26         117.8152
   714.40         117.5776
   714.54         117.3346
   714.68         117.1122
   714.82         116.9244
   714.96         116.7730
   715.10         116.6466
   715.24         116.5276
   715.38         116.4056
   715.52         116.2775
   715.66         116.1423
   715.80         115.9983
   715.94         115.8363
   716.08         115.6351
   716.22         115.3758
   716.36         115.0534
   716.50         114.6667
   716.64         114.2224
   716.78         113.7396
   716.92         113.2332
   717.06         112.7056
   717.20         112.1518
   717.34         111.5574
   717.48         110.9088
   717.62         110.2147
   717.76         109.5157
   717.90         108.8581
   718.04         108.2699
   718.18         107.7651
   718.32         107.3560
   718.46         107.0592
   718.60         106.8892
   718.74         106.8443
   718.88         106.9094
   719.02         107.0697
   719.16         107.3157
   719.30         107.6316
   719.44         107.9812
   719.58         108.3247
   719.72         108.6441
   719.86         108.9398
   720.00         109.2230
   720.14         109.5165
   720.28         109.8468
   720.42         110.2239
   720.56         110.6348
   720.70         111.0654
   720.84         111.5072
   720.98         111.9417
   721.12         112.3216
   721.26         112.5857
   721.40         112.6933
   721.54         112.6413
   721.68         112.4602
   721.82         112.1920
   721.96         111.8716
   722.10         111.5328
   722.24         111.2167
   722.38         110.9584
   722.52         110.7857
   722.66         110.7282
   722.80         110.8030
   722.94         111.0028
   723.08         111.2990
   723.22         111.6433
   723.36         111.9757
   723.50         112.2398
   723.64         112.3957
   723.78         112.4209
   723.92         112.3129
   724.06         112.0783
   724.20         111.7169
   724.34         111.2393
   724.48         110.6825
   724.62         110.0965
   724.76         109.5288
   724.90         109.0204
   725.04         108.6037
   725.18         108.2963
   725.32         108.0894
   725.46         107.9520
   725.60         107.8553
   725.74         107.7886
   725.88         107.7527
   726.02         107.7415
   726.16         107.7402
   726.30         107.7312
   726.44         107.6928
   726.58         107.6071
   726.72         107.4782
   726.86         107.3330
   727.00         107.2003
   727.14         107.0951
   727.28         107.0206
   727.42         106.9744
   727.56         106.9535
   727.70         106.9454
   727.84         106.9295
   727.98         106.8893
   728.12         106.8204
   728.26         106.7243
   728.40         106.5999
   728.54         106.4399
   728.68         106.2387
   728.82         106.0079
   728.96         105.7708
   729.10         105.5453
   729.24         105.3482
   729.38         105.1936
   729.52         105.0756
   729.66         104.9626
   729.80         104.8165
   729.94         104.6085
   730.08         104.3251
   730.22         103.9714
   730.36         103.5709
   730.50         103.1656
   730.64         102.8077
   730.78         102.5416
   730.92         102.3925
   731.06         102.3646
   731.20         102.4388
   731.34         102.5791
   731.48         102.7484
   731.62         102.9130
   731.76         103.0447
   731.90         103.1231
   732.04         103.1317
   732.18         103.0606
   732.32         102.9141
   732.46         102.7185
   732.60         102.5205
   732.74         102.3662
   732.88         102.2818
   733.02         102.2702
   733.16         102.3234
   733.30         102.4264
   733.44         102.5557
   733.58         102.6860
   733.72         102.7921
   733.86         102.8498
   734.00         102.8486
   734.14         102.7970
   734.28         102.7051
   734.42         102.5755
   734.56         102.4040
   734.70         102.1887
   734.84         101.9371
   734.98         101.6666
   735.12         101.4043
   735.26         101.1737
   735.40         100.9864
   735.54         100.8471
   735.68         100.7517
   735.82         100.6891
   735.96         100.6426
   736.10         100.5968
   736.24         100.5428
   736.38         100.4806
   736.52         100.4259
   736.66         100.4029
   736.80         100.4256
   736.94         100.4919
   737.08         100.5863
   737.22         100.6888
   737.36         100.7826
   737.50         100.8526
   737.64         100.8843
   737.78         100.8647
   737.92         100.7831
   738.06         100.6340
   738.20         100.4152
   738.34         100.1320
   738.48         99.8027
   738.62         99.4524
   738.76         99.1105
   738.90         98.8099
   739.04         98.5849
   739.18         98.4645
   739.32         98.4543
   739.46         98.5374
   739.60         98.6826
   739.74         98.8482
   739.88         98.9936
   740.02         99.0824
   740.16         99.0837
   740.30         98.9792
   740.44         98.7682
   740.58         98.4659
   740.72         98.1002
   740.86         97.7098
   741.00         97.3416
   741.14         97.0411
   741.28         96.8430
   741.42         96.7651
   741.56         96.8125
   741.70         96.9790
   741.84         97.2343
   741.98         97.5305
   742.12         97.8277
   742.26         98.0960
   742.40         98.3148
   742.54         98.4754
   742.68         98.5767
   742.82         98.6243
   742.96         98.6243
   743.10         98.5767
   743.24         98.4754
   743.38         98.3148
   743.52         98.0960
   743.66         97.8277
   743.80         97.5305
   743.94         97.2343
   744.08         96.9790
   744.22         96.8125
