# File HD187428
# Wavelength [nm]    Normalized Amplitude
   349.70         27.0907
   349.84         27.1156
   349.98         27.1202
   350.12         27.0888
   350.26         27.0175
   350.40         26.9129
   350.54         26.7875
   350.68         26.6581
   350.82         26.5449
   350.96         26.4674
   351.10         26.4398
   351.24         26.4674
   351.38         26.5449
   351.52         26.6581
   351.66         26.7875
   351.80         26.9129
   351.94         27.0175
   352.08         27.0888
   352.22         27.1202
   352.36         27.1156
   352.50         27.0907
   352.64         27.0668
   352.78         27.0704
   352.92         27.1296
   353.06         27.2636
   353.20         27.4786
   353.34         27.7669
   353.48         28.1114
   353.62         28.4911
   353.76         28.8822
   353.90         29.2590
   354.04         29.5966
   354.18         29.8745
   354.32         30.0821
   354.46         30.2219
   354.60         30.3043
   354.74         30.3409
   354.88         30.3467
   355.02         30.3401
   355.16         30.3366
   355.30         30.3413
   355.44         30.3453
   355.58         30.3282
   355.72         30.2651
   355.86         30.1346
   356.00         29.9237
   356.14         29.6290
   356.28         29.2553
   356.42         28.8124
   356.56         28.3162
   356.70         27.7885
   356.84         27.2554
   356.98         26.7439
   357.12         26.2762
   357.26         25.8627
   357.40         25.4975
   357.54         25.1652
   357.68         24.8482
   357.82         24.5326
   357.96         24.2134
   358.10         23.8992
   358.24         23.6116
   358.38         23.3825
   358.52         23.2495
   358.66         23.2485
   358.80         23.4034
   358.94         23.7203
   359.08         24.1866
   359.22         24.7721
   359.36         25.4294
   359.50         26.0998
   359.64         26.7225
   359.78         27.2413
   359.92         27.6088
   360.06         27.7943
   360.20         27.7918
   360.34         27.6220
   360.48         27.3269
   360.62         26.9608
   360.76         26.5776
   360.90         26.2229
   361.04         25.9318
   361.18         25.7280
   361.32         25.6223
   361.46         25.6169
   361.60         25.7115
   361.74         25.9025
   361.88         26.1755
   362.02         26.5015
   362.16         26.8412
   362.30         27.1534
   362.44         27.4033
   362.58         27.5717
   362.72         27.6569
   362.86         27.6756
   363.00         27.6579
   363.14         27.6351
   363.28         27.6285
   363.42         27.6475
   363.56         27.6952
   363.70         27.7722
   363.84         27.8783
   363.98         28.0106
   364.12         28.1619
   364.26         28.3216
   364.40         28.4768
   364.54         28.6177
   364.68         28.7476
   364.82         28.8884
   364.96         29.0739
   365.10         29.3367
   365.24         29.6964
   365.38         30.1514
   365.52         30.6810
   365.66         31.2484
   365.80         31.8044
   365.94         32.2988
   366.08         32.6940
   366.22         32.9716
   366.36         33.1299
   366.50         33.1782
   366.64         33.1350
   366.78         33.0235
   366.92         32.8669
   367.06         32.6887
   367.20         32.5110
   367.34         32.3534
   367.48         32.2252
   367.62         32.1219
   367.76         32.0335
   367.90         31.9543
   368.04         31.8900
   368.18         31.8599
   368.32         31.8890
   368.46         31.9956
   368.60         32.1866
   368.74         32.4606
   368.88         32.8127
   369.02         33.2327
   369.16         33.7035
   369.30         34.1978
   369.44         34.6754
   369.58         35.0923
   369.72         35.4117
   369.86         35.6064
   370.00         35.6599
   370.14         35.5697
   370.28         35.3587
   370.42         35.0801
   370.56         34.8079
   370.70         34.6187
   370.84         34.5710
   370.98         34.6856
   371.12         34.9412
   371.26         35.2953
   371.40         35.7098
   371.54         36.1571
   371.68         36.6109
   371.82         37.0391
   371.96         37.4079
   372.10         37.6854
   372.24         37.8430
   372.38         37.8592
   372.52         37.7239
   372.66         37.4483
   372.80         37.0702
   372.94         36.6491
   373.08         36.2465
   373.22         35.9076
   373.36         35.6526
   373.50         35.4765
   373.64         35.3546
   373.78         35.2547
   373.92         35.1526
   374.06         35.0419
   374.20         34.9312
   374.34         34.8353
   374.48         34.7682
   374.62         34.7361
   374.76         34.7301
   374.90         34.7344
   375.04         34.7475
   375.18         34.7895
   375.32         34.8953
   375.46         35.0952
   375.60         35.3945
   375.74         35.7646
   375.88         36.1516
   376.02         36.4992
   376.16         36.7710
   376.30         36.9592
   376.44         37.0827
   376.58         37.1898
   376.72         37.3483
   376.86         37.6227
   377.00         38.0533
   377.14         38.6463
   377.28         39.3780
   377.42         40.2101
   377.56         41.1024
   377.70         42.0112
   377.84         42.8859
   377.98         43.6719
   378.12         44.3116
   378.26         44.7472
   378.40         44.9311
   378.54         44.8362
   378.68         44.4655
   378.82         43.8571
   378.96         43.0791
   379.10         42.2266
   379.24         41.4137
   379.38         40.7510
   379.52         40.3243
   379.66         40.1854
   379.80         40.3545
   379.94         40.8271
   380.08         41.5721
   380.22         42.5218
   380.36         43.5806
   380.50         44.6489
   380.64         45.6370
   380.78         46.4608
   380.92         47.0489
   381.06         47.3588
   381.20         47.3833
   381.34         47.1452
   381.48         46.6859
   381.62         46.0528
   381.76         45.2928
   381.90         44.4450
   382.04         43.5324
   382.18         42.5635
   382.32         41.5392
   382.46         40.4610
   382.60         39.3366
   382.74         38.1814
   382.88         37.0274
   383.02         35.9365
   383.16         34.9967
   383.30         34.2966
   383.44         33.9040
   383.58         33.8627
   383.72         34.1872
   383.86         34.8540
   384.00         35.8061
   384.14         36.9695
   384.28         38.2651
   384.42         39.6087
   384.56         40.9082
   384.70         42.0719
   384.84         43.0272
   384.98         43.7394
   385.12         44.2192
   385.26         44.5143
   385.40         44.6875
   385.54         44.7999
   385.68         44.9009
   385.82         45.0173
   385.96         45.1463
   386.10         45.2657
   386.24         45.3514
   386.38         45.3868
   386.52         45.3635
   386.66         45.2795
   386.80         45.1378
   386.94         44.9420
   387.08         44.6941
   387.22         44.3980
   387.36         44.0592
   387.50         43.6808
   387.64         43.2605
   387.78         42.7915
   387.92         42.2708
   388.06         41.7055
   388.20         41.1150
   388.34         40.5320
   388.48         40.0013
   388.62         39.5771
   388.76         39.3174
   388.90         39.2733
   389.04         39.4786
   389.18         39.9358
   389.32         40.6096
   389.46         41.4341
   389.60         42.3294
   389.74         43.2203
   389.88         44.0466
   390.02         44.7647
   390.16         45.3471
   390.30         45.7827
   390.44         46.0763
   390.58         46.2450
   390.72         46.3072
   390.86         46.2731
   391.00         46.1490
   391.14         45.9407
   391.28         45.6496
   391.42         45.2666
   391.56         44.7721
   391.70         44.1300
   391.84         43.2847
   391.98         42.1774
   392.12         40.7677
   392.26         39.0480
   392.40         37.0451
   392.54         34.8174
   392.68         32.4558
   392.82         30.0798
   392.96         27.8312
   393.10         25.8631
   393.24         24.3247
   393.38         23.3438
   393.52         23.0094
   393.66         23.3571
   393.80         24.3584
   393.94         25.9213
   394.08         27.9059
   394.22         30.1465
   394.36         32.4735
   394.50         34.7352
   394.64         36.8138
   394.78         38.6282
   394.92         40.1259
   395.06         41.2724
   395.20         42.0410
   395.34         42.4051
   395.48         42.3356
   395.62         41.8053
   395.76         40.8035
   395.90         39.3532
   396.04         37.5232
   396.18         35.4270
   396.32         33.2166
   396.46         31.0725
   396.60         29.1908
   396.74         27.7641
   396.88         26.9550
   397.02         26.8684
   397.16         27.5355
   397.30         28.9127
   397.44         30.8920
   397.58         33.3147
   397.72         35.9949
   397.86         38.7457
   398.00         41.4005
   398.14         43.8316
   398.28         45.9571
   398.42         47.7359
   398.56         49.1631
   398.70         50.2648
   398.84         51.0925
   398.98         51.7127
   399.12         52.1939
   399.26         52.5913
   399.40         52.9353
   399.54         53.2335
   399.68         53.4866
   399.82         53.7009
   399.96         53.8928
   400.10         54.0846
   400.24         54.2953
   400.38         54.5370
   400.52         54.8163
   400.66         55.1345
   400.80         55.4886
   400.94         55.8675
   401.08         56.2529
   401.22         56.6279
   401.36         56.9834
   401.50         57.3173
   401.64         57.6244
   401.78         57.8865
   401.92         58.0697
   402.06         58.1368
   402.20         58.0723
   402.34         57.8887
   402.48         57.6182
   402.62         57.3068
   402.76         57.0070
   402.90         56.7667
   403.04         56.6208
   403.18         56.5840
   403.32         56.6471
   403.46         56.7833
   403.60         56.9608
   403.74         57.1552
   403.88         57.3523
   404.02         57.5392
   404.16         57.6955
   404.30         57.7894
   404.44         57.7865
   404.58         57.6677
   404.72         57.4468
   404.86         57.1686
   405.00         56.8868
   405.14         56.6402
   405.28         56.4452
   405.42         56.2991
   405.56         56.1886
   405.70         56.1008
   405.84         56.0319
   405.98         55.9864
   406.12         55.9739
   406.26         56.0026
   406.40         56.0627
   406.54         56.1139
   406.68         56.0985
   406.82         55.9725
   406.96         55.7255
   407.10         55.3837
   407.24         54.9926
   407.38         54.5994
   407.52         54.2466
   407.66         53.9722
   407.80         53.8113
   407.94         53.7975
   408.08         53.9568
   408.22         54.2980
   408.36         54.8033
   408.50         55.4215
   408.64         56.0708
   408.78         56.6500
   408.92         57.0466
   409.06         57.1518
   409.20         56.8967
   409.34         56.2841
   409.48         55.3861
   409.62         54.3141
   409.76         53.1854
   409.90         52.1058
   410.04         51.1748
   410.18         50.4877
   410.32         50.1238
   410.46         50.1295
   410.60         50.5054
   410.74         51.2052
   410.88         52.1422
   411.02         53.2030
   411.16         54.2690
   411.30         55.2340
   411.44         56.0167
   411.58         56.5668
   411.72         56.8733
   411.86         56.9645
   412.00         56.8874
   412.14         56.6840
   412.28         56.3895
   412.42         56.0433
   412.56         55.6989
   412.70         55.4223
   412.84         55.2765
   412.98         55.3020
   413.12         55.5035
   413.26         55.8519
   413.40         56.3035
   413.54         56.8157
   413.68         57.3499
   413.82         57.8656
   413.96         58.3214
   414.10         58.6802
   414.24         58.9112
   414.38         58.9949
   414.52         58.9310
   414.66         58.7408
   414.80         58.4659
   414.94         58.1636
   415.08         57.8951
   415.22         57.7138
   415.36         57.6575
   415.50         57.7404
   415.64         57.9534
   415.78         58.2715
   415.92         58.6608
   416.06         59.0742
   416.20         59.4474
   416.34         59.7080
   416.48         59.7944
   416.62         59.6683
   416.76         59.3190
   416.90         58.7650
   417.04         58.0544
   417.18         57.2569
   417.32         56.4526
   417.46         55.7227
   417.60         55.1366
   417.74         54.7447
   417.88         54.5774
   418.02         54.6445
   418.16         54.9345
   418.30         55.4155
   418.44         56.0321
   418.58         56.7049
   418.72         57.3456
   418.86         57.8807
   419.00         58.2656
   419.14         58.4781
   419.28         58.5107
   419.42         58.3735
   419.56         58.0978
   419.70         57.7323
   419.84         57.3364
   419.98         56.9741
   420.12         56.7087
   420.26         56.5884
   420.40         56.6359
   420.54         56.8483
   420.68         57.2007
   420.82         57.6536
   420.96         58.1581
   421.10         58.6572
   421.24         59.0923
   421.38         59.4083
   421.52         59.5584
   421.66         59.5172
   421.80         59.2924
   421.94         58.9282
   422.08         58.4909
   422.22         58.0439
   422.36         57.6338
   422.50         57.2872
   422.64         57.0147
   422.78         56.8151
   422.92         56.6788
   423.06         56.5987
   423.20         56.5774
   423.34         56.6206
   423.48         56.7255
   423.62         56.8732
   423.76         57.0317
   423.90         57.1699
   424.04         57.2724
   424.18         57.3478
   424.32         57.4241
   424.46         57.5301
   424.60         57.6750
   424.74         57.8418
   424.88         57.9983
   425.02         58.1188
   425.16         58.1989
   425.30         58.2581
   425.44         58.3290
   425.58         58.4437
   425.72         58.6226
   425.86         58.8629
   426.00         59.1378
   426.14         59.4061
   426.28         59.6283
   426.42         59.7778
   426.56         59.8481
   426.70         59.8502
   426.84         59.8023
   426.98         59.7204
   427.12         59.6148
   427.26         59.4909
   427.40         59.3516
   427.54         59.2012
   427.68         59.0404
   427.82         58.8577
   427.96         58.6296
   428.10         58.3303
   428.24         57.9462
   428.38         57.4760
   428.52         56.9255
   428.66         56.3066
   428.80         55.6354
   428.94         54.9294
   429.08         54.2072
   429.22         53.4873
   429.36         52.7832
   429.50         52.0998
   429.64         51.4366
   429.78         50.7972
   429.92         50.1979
   430.06         49.6682
   430.20         49.2421
   430.34         48.9514
   430.48         48.8340
   430.62         48.9405
   430.76         49.3165
   430.90         49.9742
   431.04         50.8805
   431.18         51.9683
   431.32         53.1497
   431.46         54.3265
   431.60         55.4162
   431.74         56.3704
   431.88         57.1689
   432.02         57.8072
   432.16         58.2885
   432.30         58.6232
   432.44         58.8276
   432.58         58.9087
   432.72         58.8473
   432.86         58.5998
   433.00         58.1229
   433.14         57.3995
   433.28         56.4486
   433.42         55.3196
   433.56         54.0874
   433.70         52.8515
   433.84         51.7224
   433.98         50.7987
   434.12         50.1600
   434.26         49.8727
   434.40         49.9819
   434.54         50.4972
   434.68         51.3840
   434.82         52.5666
   434.96         53.9452
   435.10         55.4121
   435.24         56.8668
   435.38         58.2328
   435.52         59.4697
   435.66         60.5676
   435.80         61.5307
   435.94         62.3656
   436.08         63.0713
   436.22         63.6331
   436.36         64.0207
   436.50         64.2000
   436.64         64.1580
   436.78         63.9229
   436.92         63.5557
   437.06         63.1211
   437.20         62.6611
   437.34         62.1872
   437.48         61.7009
   437.62         61.2156
   437.76         60.7537
   437.90         60.3333
   438.04         59.9637
   438.18         59.6479
   438.32         59.3867
   438.46         59.1841
   438.60         59.0492
   438.74         58.9855
   438.88         58.9818
   439.02         59.0209
   439.16         59.0947
   439.30         59.2049
   439.44         59.3457
   439.58         59.4946
   439.72         59.6173
   439.86         59.6869
   440.00         59.7030
   440.14         59.6940
   440.28         59.6954
   440.42         59.7233
   440.56         59.7701
   440.70         59.8193
   440.84         59.8605
   440.98         59.8920
   441.12         59.9164
   441.26         59.9365
   441.40         59.9540
   441.54         59.9728
   441.68         60.0020
   441.82         60.0495
   441.96         60.1127
   442.10         60.1752
   442.24         60.2131
   442.38         60.2047
   442.52         60.1452
   442.66         60.0501
   442.80         59.9427
   442.94         59.8374
   443.08         59.7353
   443.22         59.6332
   443.36         59.5366
   443.50         59.4642
   443.64         59.4350
   443.78         59.4567
   443.92         59.5279
   444.06         59.6427
   444.20         59.7876
   444.34         59.9378
   444.48         60.0602
   444.62         60.1236
   444.76         60.1092
   444.90         60.0135
   445.04         59.8447
   445.18         59.6189
   445.32         59.3551
   445.46         59.0649
   445.60         58.7513
   445.74         58.4185
   445.88         58.0859
   446.02         57.7938
   446.16         57.5928
   446.30         57.5256
   446.44         57.6179
   446.58         57.8790
   446.72         58.3021
   446.86         58.8568
   447.00         59.4888
   447.14         60.1392
   447.28         60.7649
   447.42         61.3421
   447.56         61.8555
   447.70         62.2858
   447.84         62.6102
   447.98         62.8103
   448.12         62.8794
   448.26         62.8247
   448.40         62.6684
   448.54         62.4498
   448.68         62.2211
   448.82         62.0313
   448.96         61.9130
   449.10         61.8810
   449.24         61.9441
   449.38         62.1086
   449.52         62.3732
   449.66         62.7318
   449.80         63.1821
   449.94         63.7201
   450.08         64.3267
   450.22         64.9581
   450.36         65.5547
   450.50         66.0611
   450.64         66.4393
   450.78         66.6689
   450.92         66.7390
   451.06         66.6456
   451.20         66.3934
   451.34         65.9964
   451.48         65.4757
   451.62         64.8559
   451.76         64.1651
   451.90         63.4338
   452.04         62.6872
   452.18         61.9413
   452.32         61.2088
   452.46         60.5116
   452.60         59.8848
   452.74         59.3692
   452.88         58.9971
   453.02         58.7878
   453.16         58.7519
   453.30         58.8887
   453.44         59.1811
   453.58         59.5942
   453.72         60.0743
   453.86         60.5577
   454.00         60.9862
   454.14         61.3134
   454.28         61.5009
   454.42         61.5270
   454.56         61.3981
   454.70         61.1475
   454.84         60.8280
   454.98         60.5044
   455.12         60.2418
   455.26         60.0874
   455.40         60.0610
   455.54         60.1588
   455.68         60.3711
   455.82         60.6869
   455.96         61.0819
   456.10         61.5176
   456.24         61.9538
   456.38         62.3598
   456.52         62.7191
   456.66         63.0240
   456.80         63.2667
   456.94         63.4350
   457.08         63.5180
   457.22         63.5094
   457.36         63.4074
   457.50         63.2169
   457.64         62.9512
   457.78         62.6304
   457.92         62.2788
   458.06         61.9219
   458.20         61.5849
   458.34         61.2908
   458.48         61.0542
   458.62         60.8826
   458.76         60.7831
   458.90         60.7621
   459.04         60.8169
   459.18         60.9329
   459.32         61.0915
   459.46         61.2790
   459.60         61.4916
   459.74         61.7355
   459.88         62.0235
   460.02         62.3680
   460.16         62.7726
   460.30         63.2261
   460.44         63.7008
   460.58         64.1608
   460.72         64.5726
   460.86         64.9151
   461.00         65.1825
   461.14         65.3798
   461.28         65.5128
   461.42         65.5857
   461.56         65.6052
   461.70         65.5819
   461.84         65.5296
   461.98         65.4641
   462.12         65.3990
   462.26         65.3403
   462.40         65.2842
   462.54         65.2228
   462.68         65.1495
   462.82         65.0614
   462.96         64.9627
   463.10         64.8648
   463.24         64.7803
   463.38         64.7139
   463.52         64.6611
   463.66         64.6127
   463.80         64.5600
   463.94         64.4966
   464.08         64.4203
   464.22         64.3332
   464.36         64.2366
   464.50         64.1303
   464.64         64.0201
   464.78         63.9206
   464.92         63.8500
   465.06         63.8240
   465.20         63.8483
   465.34         63.9135
   465.48         63.9929
   465.62         64.0444
   465.76         64.0216
   465.90         63.8877
   466.04         63.6327
   466.18         63.2765
   466.32         62.8657
   466.46         62.4627
   466.60         62.1241
   466.74         61.8853
   466.88         61.7638
   467.02         61.7677
   467.16         61.9019
   467.30         62.1688
   467.44         62.5583
   467.58         63.0387
   467.72         63.5628
   467.86         64.0801
   468.00         64.5466
   468.14         64.9328
   468.28         65.2335
   468.42         65.4707
   468.56         65.6736
   468.70         65.8547
   468.84         66.0032
   468.98         66.0998
   469.12         66.1232
   469.26         66.0533
   469.40         65.8797
   469.54         65.6061
   469.68         65.2472
   469.82         64.8254
   469.96         64.3703
   470.10         63.9129
   470.24         63.4803
   470.38         63.0993
   470.52         62.7974
   470.66         62.6010
   470.80         62.5304
   470.94         62.5921
   471.08         62.7765
   471.22         63.0580
   471.36         63.4022
   471.50         63.7764
   471.64         64.1468
   471.78         64.4756
   471.92         64.7280
   472.06         64.8782
   472.20         64.9127
   472.34         64.8338
   472.48         64.6590
   472.62         64.4158
   472.76         64.1376
   472.90         63.8603
   473.04         63.6214
   473.18         63.4537
   473.32         63.3786
   473.46         63.4048
   473.60         63.5297
   473.74         63.7421
   473.88         64.0225
   474.02         64.3427
   474.16         64.6642
   474.30         64.9451
   474.44         65.1516
   474.58         65.2642
   474.72         65.2776
   474.86         65.1987
   475.00         65.0363
   475.14         64.7957
   475.28         64.4837
   475.42         64.1119
   475.56         63.6971
   475.70         63.2642
   475.84         62.8469
   475.98         62.4821
   476.12         62.2012
   476.26         62.0272
   476.40         61.9757
   476.54         62.0512
   476.68         62.2441
   476.82         62.5325
   476.96         62.8916
   477.10         63.2975
   477.24         63.7238
   477.38         64.1383
   477.52         64.5003
   477.66         64.7672
   477.80         64.9105
   477.94         64.9262
   478.08         64.8313
   478.22         64.6578
   478.36         64.4483
   478.50         64.2452
   478.64         64.0782
   478.78         63.9626
   478.92         63.9047
   479.06         63.9052
   479.20         63.9566
   479.34         64.0428
   479.48         64.1435
   479.62         64.2358
   479.76         64.2967
   479.90         64.3054
   480.04         64.2511
   480.18         64.1411
   480.32         63.9988
   480.46         63.8556
   480.60         63.7431
   480.74         63.6870
   480.88         63.7052
   481.02         63.8014
   481.16         63.9556
   481.30         64.1298
   481.44         64.2877
   481.58         64.4068
   481.72         64.4738
   481.86         64.4776
   482.00         64.4127
   482.14         64.2825
   482.28         64.0987
   482.42         63.8801
   482.56         63.6509
   482.70         63.4373
   482.84         63.2591
   482.98         63.1225
   483.12         63.0225
   483.26         62.9492
   483.40         62.8899
   483.54         62.8293
   483.68         62.7484
   483.82         62.6300
   483.96         62.4691
   484.10         62.2713
   484.24         62.0381
   484.38         61.7556
   484.52         61.3994
   484.66         60.9437
   484.80         60.3585
   484.94         59.6027
   485.08         58.6351
   485.22         57.4413
   485.36         56.0495
   485.50         54.5290
   485.64         52.9771
   485.78         51.5040
   485.92         50.2155
   486.06         49.1964
   486.20         48.5037
   486.34         48.1657
   486.48         48.1839
   486.62         48.5327
   486.76         49.1616
   486.90         50.0019
   487.04         50.9759
   487.18         52.0029
   487.32         53.0030
   487.46         53.9048
   487.60         54.6596
   487.74         55.2572
   487.88         55.7176
   488.02         56.0685
   488.16         56.3334
   488.30         56.5329
   488.44         56.6920
   488.58         56.8417
   488.72         57.0143
   488.86         57.2382
   489.00         57.5302
   489.14         57.8934
   489.28         58.3202
   489.42         58.7931
   489.56         59.2855
   489.70         59.7602
   489.84         60.1793
   489.98         60.5120
   490.12         60.7361
   490.26         60.8466
   490.40         60.8601
   490.54         60.8078
   490.68         60.7230
   490.82         60.6289
   490.96         60.5303
   491.10         60.4153
   491.24         60.2629
   491.38         60.0499
   491.52         59.7657
   491.66         59.4275
   491.80         59.0774
   491.94         58.7664
   492.08         58.5370
   492.22         58.4115
   492.36         58.3882
   492.50         58.4516
   492.64         58.5799
   492.78         58.7479
   492.92         58.9317
   493.06         59.1095
   493.20         59.2647
   493.34         59.3879
   493.48         59.4831
   493.62         59.5691
   493.76         59.6742
   493.90         59.8297
   494.04         60.0648
   494.18         60.4018
   494.32         60.8412
   494.46         61.3519
   494.60         61.8759
   494.74         62.3428
   494.88         62.6914
   495.02         62.8884
   495.16         62.9364
   495.30         62.8622
   495.44         62.6975
   495.58         62.4735
   495.72         62.2236
   495.86         61.9750
   496.00         61.7425
   496.14         61.5333
   496.28         61.3540
   496.42         61.2148
   496.56         61.1291
   496.70         61.1055
   496.84         61.1376
   496.98         61.1983
   497.12         61.2439
   497.26         61.2236
   497.40         61.0954
   497.54         60.8432
   497.68         60.4790
   497.82         60.0303
   497.96         59.5249
   498.10         58.9902
   498.24         58.4629
   498.38         57.9924
   498.52         57.6301
   498.66         57.4195
   498.80         57.3852
   498.94         57.5192
   499.08         57.7847
   499.22         58.1250
   499.36         58.4710
   499.50         58.7497
   499.64         58.9012
   499.78         58.9005
   499.92         58.7559
   500.06         58.4937
   500.20         58.1475
   500.34         57.7467
   500.48         57.3129
   500.62         56.8635
   500.76         56.4148
   500.90         55.9857
   501.04         55.5994
   501.18         55.2775
   501.32         55.0361
   501.46         54.8857
   501.60         54.8320
   501.74         54.8795
   501.88         55.0286
   502.02         55.2730
   502.16         55.6038
   502.30         56.0112
   502.44         56.4759
   502.58         56.9576
   502.72         57.4045
   502.86         57.7687
   503.00         58.0136
   503.14         58.1253
   503.28         58.1184
   503.42         58.0316
   503.56         57.9154
   503.70         57.8119
   503.84         57.7451
   503.98         57.7280
   504.12         57.7694
   504.26         57.8779
   504.40         58.0599
   504.54         58.3159
   504.68         58.6413
   504.82         59.0275
   504.96         59.4581
   505.10         59.9056
   505.24         60.3341
   505.38         60.7056
   505.52         60.9932
   505.66         61.1900
   505.80         61.3057
   505.94         61.3542
   506.08         61.3411
   506.22         61.2619
   506.36         61.1129
   506.50         60.9053
   506.64         60.6574
   506.78         60.3815
   506.92         60.0827
   507.06         59.7642
   507.20         59.4333
   507.34         59.1081
   507.48         58.8129
   507.62         58.5686
   507.76         58.3905
   507.90         58.2920
   508.04         58.2882
   508.18         58.3942
   508.32         58.6141
   508.46         58.9300
   508.60         59.2985
   508.74         59.6601
   508.88         59.9543
   509.02         60.1388
   509.16         60.1961
   509.30         60.1288
   509.44         59.9578
   509.58         59.7224
   509.72         59.4686
   509.86         59.2379
   510.00         59.0646
   510.14         58.9726
   510.28         58.9733
   510.42         59.0676
   510.56         59.2458
   510.70         59.4868
   510.84         59.7560
   510.98         60.0081
   511.12         60.1953
   511.26         60.2810
   511.40         60.2521
   511.54         60.1169
   511.68         59.8914
   511.82         59.5891
   511.96         59.2244
   512.10         58.8188
   512.24         58.3993
   512.38         57.9956
   512.52         57.6393
   512.66         57.3582
   512.80         57.1683
   512.94         57.0712
   513.08         57.0523
   513.22         57.0856
   513.36         57.1442
   513.50         57.2049
   513.64         57.2508
   513.78         57.2776
   513.92         57.2925
   514.06         57.3016
   514.20         57.3048
   514.34         57.3034
   514.48         57.3074
   514.62         57.3314
   514.76         57.3853
   514.90         57.4689
   515.04         57.5719
   515.18         57.6780
   515.32         57.7681
   515.46         57.8162
   515.60         57.7866
   515.74         57.6425
   515.88         57.3627
   516.02         56.9456
   516.16         56.4079
   516.30         55.7877
   516.44         55.1456
   516.58         54.5513
   516.72         54.0693
   516.86         53.7551
   517.00         53.6473
   517.14         53.7497
   517.28         54.0280
   517.42         54.4226
   517.56         54.8648
   517.70         55.2886
   517.84         55.6341
   517.98         55.8504
   518.12         55.9003
   518.26         55.7734
   518.40         55.4940
   518.54         55.1117
   518.68         54.6903
   518.82         54.2995
   518.96         54.0041
   519.10         53.8472
   519.24         53.8381
   519.38         53.9562
   519.52         54.1609
   519.66         54.4031
   519.80         54.6416
   519.94         54.8572
   520.08         55.0524
   520.22         55.2381
   520.36         55.4175
   520.50         55.5839
   520.64         55.7303
   520.78         55.8557
   520.92         55.9673
   521.06         56.0778
   521.20         56.1996
   521.34         56.3374
   521.48         56.4766
   521.62         56.5859
   521.76         56.6327
   521.90         56.6006
   522.04         56.4939
   522.18         56.3252
   522.32         56.1113
   522.46         55.8761
   522.60         55.6468
   522.74         55.4458
   522.88         55.2863
   523.02         55.1788
   523.16         55.1393
   523.30         55.1840
   523.44         55.3221
   523.58         55.5499
   523.72         55.8438
   523.86         56.1604
   524.00         56.4503
   524.14         56.6776
   524.28         56.8273
   524.42         56.8995
   524.56         56.9018
   524.70         56.8442
   524.84         56.7381
   524.98         56.5985
   525.12         56.4396
   525.26         56.2666
   525.40         56.0712
   525.54         55.8369
   525.68         55.5532
   525.82         55.2157
   525.96         54.8211
   526.10         54.3728
   526.24         53.8841
   526.38         53.3756
   526.52         52.8752
   526.66         52.4217
   526.80         52.0605
   526.94         51.8305
   527.08         51.7562
   527.22         51.8488
   527.36         52.1013
   527.50         52.4897
   527.64         52.9820
   527.78         53.5486
   527.92         54.1671
   528.06         54.8213
   528.20         55.4988
   528.34         56.1840
   528.48         56.8498
   528.62         57.4602
   528.76         57.9775
   528.90         58.3714
   529.04         58.6251
   529.18         58.7374
   529.32         58.7235
   529.46         58.6097
   529.60         58.4222
   529.74         58.1890
   529.88         57.9439
   530.02         57.7243
   530.16         57.5630
   530.30         57.4768
   530.44         57.4626
   530.58         57.4992
   530.72         57.5540
   530.86         57.5962
   531.00         57.6059
   531.14         57.5751
   531.28         57.5039
   531.42         57.3937
   531.56         57.2477
   531.70         57.0656
   531.84         56.8418
   531.98         56.5789
   532.12         56.2925
   532.26         56.0031
   532.40         55.7287
   532.54         55.4795
   532.68         55.2574
   532.82         55.0601
   532.96         54.8856
   533.10         54.7362
   533.24         54.6171
   533.38         54.5365
   533.52         54.5024
   533.66         54.5136
   533.80         54.5587
   533.94         54.6235
   534.08         54.7000
   534.22         54.7908
   534.36         54.9096
   534.50         55.0770
   534.64         55.3122
   534.78         55.6223
   534.92         55.9979
   535.06         56.4154
   535.20         56.8416
   535.34         57.2400
   535.48         57.5746
   535.62         57.8117
   535.76         57.9261
   535.90         57.9043
   536.04         57.7445
   536.18         57.4566
   536.32         57.0667
   536.46         56.6217
   536.60         56.1777
   536.74         55.7881
   536.88         55.4982
   537.02         55.3354
   537.16         55.3042
   537.30         55.3888
   537.44         55.5652
   537.58         55.8059
   537.72         56.0777
   537.86         56.3462
   538.00         56.5835
   538.14         56.7696
   538.28         56.8932
   538.42         56.9511
   538.56         56.9427
   538.70         56.8698
   538.84         56.7378
   538.98         56.5601
   539.12         56.3546
   539.26         56.1325
   539.40         55.8956
   539.54         55.6383
   539.68         55.3541
   539.82         55.0452
   539.96         54.7231
   540.10         54.4054
   540.24         54.1108
   540.38         53.8548
   540.52         53.6523
   540.66         53.5158
   540.80         53.4510
   540.94         53.4595
   541.08         53.5395
   541.22         53.6830
   541.36         53.8763
   541.50         54.1023
   541.64         54.3469
   541.78         54.5981
   541.92         54.8395
   542.06         55.0537
   542.20         55.2282
   542.34         55.3570
   542.48         55.4383
   542.62         55.4730
   542.76         55.4699
   542.90         55.4474
   543.04         55.4273
   543.18         55.4259
   543.32         55.4483
   543.46         55.4896
   543.60         55.5408
   543.74         55.5910
   543.88         55.6326
   544.02         55.6670
   544.16         55.7019
   544.30         55.7448
   544.44         55.7932
   544.58         55.8334
   544.72         55.8512
   544.86         55.8403
   545.00         55.8048
   545.14         55.7541
   545.28         55.6943
   545.42         55.6283
   545.56         55.5584
   545.70         55.4859
   545.84         55.4121
   545.98         55.3391
   546.12         55.2733
   546.26         55.2226
   546.40         55.1933
   546.54         55.1847
   546.68         55.1813
   546.82         55.1562
   546.96         55.0853
   547.10         54.9563
   547.24         54.7739
   547.38         54.5578
   547.52         54.3342
   547.66         54.1254
   547.80         53.9460
   547.94         53.8083
   548.08         53.7300
   548.22         53.7279
   548.36         53.8073
   548.50         53.9582
   548.64         54.1578
   548.78         54.3780
   548.92         54.5913
   549.06         54.7756
   549.20         54.9150
   549.34         55.0029
   549.48         55.0465
   549.62         55.0622
   549.76         55.0632
   549.90         55.0568
   550.04         55.0465
   550.18         55.0327
   550.32         55.0126
   550.46         54.9851
   550.60         54.9547
   550.74         54.9285
   550.88         54.9133
   551.02         54.9138
   551.16         54.9334
   551.30         54.9749
   551.44         55.0371
   551.58         55.1089
   551.72         55.1702
   551.86         55.2008
   552.00         55.1883
   552.14         55.1287
   552.28         55.0233
   552.42         54.8778
   552.56         54.7047
   552.70         54.5234
   552.84         54.3550
   552.98         54.2218
   553.12         54.1449
   553.26         54.1374
   553.40         54.1990
   553.54         54.3186
   553.68         54.4790
   553.82         54.6602
   553.96         54.8426
   554.10         55.0091
   554.24         55.1448
   554.38         55.2471
   554.52         55.3265
   554.66         55.3974
   554.80         55.4704
   554.94         55.5493
   555.08         55.6317
   555.22         55.7103
   555.36         55.7731
   555.50         55.8077
   555.64         55.8037
   555.78         55.7485
   555.92         55.6294
   556.06         55.4405
   556.20         55.1890
   556.34         54.8921
   556.48         54.5707
   556.62         54.2481
   556.76         53.9481
   556.90         53.6955
   557.04         53.5131
   557.18         53.4111
   557.32         53.3859
   557.46         53.4258
   557.60         53.5110
   557.74         53.6150
   557.88         53.7077
   558.02         53.7636
   558.16         53.7693
   558.30         53.7197
   558.44         53.6137
   558.58         53.4594
   558.72         53.2754
   558.86         53.0844
   559.00         52.9055
   559.14         52.7526
   559.28         52.6373
   559.42         52.5717
   559.56         52.5669
   559.70         52.6268
   559.84         52.7466
   559.98         52.9196
   560.12         53.1345
   560.26         53.3709
   560.40         53.6026
   560.54         53.8046
   560.68         53.9621
   560.82         54.0700
   560.96         54.1250
   561.10         54.1291
   561.24         54.0912
   561.38         54.0211
   561.52         53.9246
   561.66         53.8083
   561.80         53.6856
   561.94         53.5755
   562.08         53.4985
   562.22         53.4688
   562.36         53.4897
   562.50         53.5532
   562.64         53.6428
   562.78         53.7373
   562.92         53.8187
   563.06         53.8773
   563.20         53.9145
   563.34         53.9434
   563.48         53.9805
   563.62         54.0377
   563.76         54.1181
   563.90         54.2113
   564.04         54.3022
   564.18         54.3800
   564.32         54.4362
   564.46         54.4622
   564.60         54.4441
   564.74         54.3633
   564.88         54.2034
   565.02         53.9573
   565.16         53.6279
   565.30         53.2311
   565.44         52.8010
   565.58         52.3810
   565.72         52.0081
   565.86         51.7070
   566.00         51.4947
   566.14         51.3826
   566.28         51.3735
   566.42         51.4586
   566.56         51.6215
   566.70         51.8452
   566.84         52.1059
   566.98         52.3749
   567.12         52.6279
   567.26         52.8447
   567.40         53.0123
   567.54         53.1275
   567.68         53.1916
   567.82         53.2064
   567.96         53.1775
   568.10         53.1136
   568.24         53.0226
   568.38         52.9156
   568.52         52.8079
   568.66         52.7187
   568.80         52.6627
   568.94         52.6414
   569.08         52.6446
   569.22         52.6583
   569.36         52.6699
   569.50         52.6666
   569.64         52.6356
   569.78         52.5617
   569.92         52.4292
   570.06         52.2336
   570.20         51.9865
   570.34         51.7131
   570.48         51.4466
   570.62         51.2209
   570.76         51.0667
   570.90         51.0101
   571.04         51.0703
   571.18         51.2537
   571.32         51.5515
   571.46         51.9418
   571.60         52.3924
   571.74         52.8653
   571.88         53.3237
   572.02         53.7366
   572.16         54.0808
   572.30         54.3407
   572.44         54.5095
   572.58         54.5951
   572.72         54.6173
   572.86         54.5970
   573.00         54.5521
   573.14         54.4939
   573.28         54.4296
   573.42         54.3663
   573.56         54.3075
   573.70         54.2486
   573.84         54.1768
   573.98         54.0797
   574.12         53.9497
   574.26         53.7836
   574.40         53.5835
   574.54         53.3608
   574.68         53.1332
   574.82         52.9163
   574.96         52.7209
   575.10         52.5556
   575.24         52.4297
   575.38         52.3503
   575.52         52.3217
   575.66         52.3444
   575.80         52.4164
   575.94         52.5333
   576.08         52.6838
   576.22         52.8513
   576.36         53.0186
   576.50         53.1708
   576.64         53.2961
   576.78         53.3822
   576.92         53.4163
   577.06         53.3872
   577.20         53.2886
   577.34         53.1226
   577.48         52.8988
   577.62         52.6331
   577.76         52.3478
   577.90         52.0655
   578.04         51.8049
   578.18         51.5790
   578.32         51.3955
   578.46         51.2596
   578.60         51.1713
   578.74         51.1230
   578.88         51.1083
   579.02         51.1264
   579.16         51.1793
   579.30         51.2646
   579.44         51.3741
   579.58         51.4992
   579.72         51.6328
   579.86         51.7707
   580.00         51.9111
   580.14         52.0497
   580.28         52.1822
   580.42         52.3047
   580.56         52.4127
   580.70         52.5060
   580.84         52.5879
   580.98         52.6613
   581.12         52.7276
   581.26         52.7866
   581.40         52.8400
   581.54         52.8946
   581.68         52.9565
   581.82         53.0247
   581.96         53.0911
   582.10         53.1485
   582.24         53.1920
   582.38         53.2171
   582.52         53.2244
   582.66         53.2203
   582.80         53.2136
   582.94         53.2129
   583.08         53.2242
   583.22         53.2519
   583.36         53.3001
   583.50         53.3715
   583.64         53.4642
   583.78         53.5717
   583.92         53.6850
   584.06         53.7915
   584.20         53.8718
   584.34         53.9000
   584.48         53.8507
   584.62         53.7061
   584.76         53.4605
   584.90         53.1237
   585.04         52.7242
   585.18         52.3046
   585.32         51.9086
   585.46         51.5733
   585.60         51.3271
   585.74         51.1872
   585.88         51.1570
   586.02         51.2284
   586.16         51.3836
   586.30         51.5940
   586.44         51.8278
   586.58         52.0611
   586.72         52.2756
   586.86         52.4567
   587.00         52.5957
   587.14         52.6905
   587.28         52.7444
   587.42         52.7634
   587.56         52.7506
   587.70         52.6993
   587.84         52.5846
   587.98         52.3676
   588.12         52.0210
   588.26         51.5390
   588.40         50.9241
   588.54         50.1861
   588.68         49.3520
   588.82         48.4711
   588.96         47.6086
   589.10         46.8375
   589.24         46.2279
   589.38         45.8313
   589.52         45.6773
   589.66         45.7770
   589.80         46.1195
   589.94         46.6710
   590.08         47.3770
   590.22         48.1681
   590.36         48.9713
   590.50         49.7202
   590.64         50.3681
   590.78         50.8922
   590.92         51.2779
   591.06         51.5188
   591.20         51.6297
   591.34         51.6449
   591.48         51.6037
   591.62         51.5359
   591.76         51.4592
   591.90         51.3809
   592.04         51.3000
   592.18         51.2142
   592.32         51.1220
   592.46         51.0187
   592.60         50.9002
   592.74         50.7695
   592.88         50.6325
   593.02         50.4932
   593.16         50.3541
   593.30         50.2173
   593.44         50.0871
   593.58         49.9682
   593.72         49.8609
   593.86         49.7602
   594.00         49.6568
   594.14         49.5431
   594.28         49.4126
   594.42         49.2638
   594.56         49.1054
   594.70         48.9568
   594.84         48.8421
   594.98         48.7806
   595.12         48.7784
   595.26         48.8335
   595.40         48.9431
   595.54         49.0995
   595.68         49.2901
   595.82         49.5013
   595.96         49.7202
   596.10         49.9332
   596.24         50.1265
   596.38         50.2876
   596.52         50.4076
   596.66         50.4840
   596.80         50.5203
   596.94         50.5225
   597.08         50.4991
   597.22         50.4579
   597.36         50.4004
   597.50         50.3223
   597.64         50.2180
   597.78         50.0844
   597.92         49.9261
   598.06         49.7537
   598.20         49.5760
   598.34         49.3971
   598.48         49.2203
   598.62         49.0485
   598.76         48.8837
   598.90         48.7281
   599.04         48.5808
   599.18         48.4385
   599.32         48.3026
   599.46         48.1773
   599.60         48.0657
   599.74         47.9669
   599.88         47.8806
   600.02         47.8105
   600.16         47.7599
   600.30         47.7277
   600.44         47.7084
   600.58         47.6933
   600.72         47.6746
   600.86         47.6443
   601.00         47.5930
   601.14         47.5133
   601.28         47.4035
   601.42         47.2705
   601.56         47.1268
   601.70         46.9859
   601.84         46.8596
   601.98         46.7578
   602.12         46.6868
   602.26         46.6499
   602.40         46.6511
   602.54         46.6942
   602.68         46.7771
   602.82         46.8866
   602.96         47.0029
   603.10         47.1056
   603.24         47.1764
   603.38         47.2055
   603.52         47.1948
   603.66         47.1534
   603.80         47.0974
   603.94         47.0471
   604.08         47.0203
   604.22         47.0246
   604.36         47.0607
   604.50         47.1270
   604.64         47.2206
   604.78         47.3389
   604.92         47.4791
   605.06         47.6335
   605.20         47.7858
   605.34         47.9142
   605.48         48.0016
   605.62         48.0433
   605.76         48.0461
   605.90         48.0258
   606.04         48.0036
   606.18         47.9965
   606.32         48.0095
   606.46         48.0378
   606.60         48.0702
   606.74         48.0913
   606.88         48.0884
   607.02         48.0531
   607.16         47.9783
   607.30         47.8575
   607.44         47.6907
   607.58         47.4851
   607.72         47.2532
   607.86         47.0106
   608.00         46.7737
   608.14         46.5570
   608.28         46.3742
   608.42         46.2394
   608.56         46.1626
   608.70         46.1438
   608.84         46.1699
   608.98         46.2183
   609.12         46.2638
   609.26         46.2893
   609.40         46.2894
   609.54         46.2667
   609.68         46.2280
   609.82         46.1829
   609.96         46.1451
   610.10         46.1290
   610.24         46.1448
   610.38         46.1946
   610.52         46.2730
   610.66         46.3722
   610.80         46.4870
   610.94         46.6112
   611.08         46.7282
   611.22         46.8159
   611.36         46.8574
   611.50         46.8445
   611.64         46.7771
   611.78         46.6648
   611.92         46.5274
   612.06         46.3851
   612.20         46.2521
   612.34         46.1370
   612.48         46.0388
   612.62         45.9486
   612.76         45.8586
   612.90         45.7640
   613.04         45.6592
   613.18         45.5415
   613.32         45.4152
   613.46         45.2884
   613.60         45.1683
   613.74         45.0631
   613.88         44.9853
   614.02         44.9488
   614.16         44.9637
   614.30         45.0346
   614.44         45.1615
   614.58         45.3368
   614.72         45.5439
   614.86         45.7585
   615.00         45.9483
   615.14         46.0823
   615.28         46.1442
   615.42         46.1357
   615.56         46.0649
   615.70         45.9388
   615.84         45.7686
   615.98         45.5717
   616.12         45.3672
   616.26         45.1737
   616.40         45.0087
   616.54         44.8882
   616.68         44.8260
   616.82         44.8264
   616.96         44.8824
   617.10         44.9822
   617.24         45.1130
   617.38         45.2621
   617.52         45.4160
   617.66         45.5637
   617.80         45.7016
   617.94         45.8291
   618.08         45.9425
   618.22         46.0337
   618.36         46.0975
   618.50         46.1379
   618.64         46.1648
   618.78         46.1860
   618.92         46.2036
   619.06         46.2150
   619.20         46.2185
   619.34         46.2174
   619.48         46.2170
   619.62         46.2207
   619.76         46.2309
   619.90         46.2487
   620.04         46.2735
   620.18         46.3029
   620.32         46.3340
   620.46         46.3656
   620.60         46.3974
   620.74         46.4288
   620.88         46.4591
   621.02         46.4879
   621.16         46.5170
   621.30         46.5490
   621.44         46.5831
   621.58         46.6154
   621.72         46.6396
   621.86         46.6477
   622.00         46.6299
   622.14         46.5770
   622.28         46.4833
   622.42         46.3511
   622.56         46.1866
   622.70         45.9965
   622.84         45.7896
   622.98         45.5814
   623.12         45.3912
   623.26         45.2318
   623.40         45.1050
   623.54         45.0051
   623.68         44.9253
   623.82         44.8605
   623.96         44.8030
   624.10         44.7401
   624.24         44.6593
   624.38         44.5538
   624.52         44.4251
   624.66         44.2852
   624.80         44.1521
   624.94         44.0459
   625.08         43.9857
   625.22         43.9842
   625.36         44.0462
   625.50         44.1718
   625.64         44.3551
   625.78         44.5795
   625.92         44.8184
   626.06         45.0459
   626.20         45.2444
   626.34         45.4045
   626.48         45.5164
   626.62         45.5662
   626.76         45.5397
   626.90         45.4318
   627.04         45.2511
   627.18         45.0190
   627.32         44.7635
   627.46         44.5135
   627.60         44.2964
   627.74         44.1343
   627.88         44.0372
   628.02         44.0042
   628.16         44.0303
   628.30         44.1063
   628.44         44.2191
   628.58         44.3543
   628.72         44.4971
   628.86         44.6315
   629.00         44.7385
   629.14         44.8023
   629.28         44.8173
   629.42         44.7889
   629.56         44.7306
   629.70         44.6604
   629.84         44.5929
   629.98         44.5361
   630.12         44.4931
   630.26         44.4644
   630.40         44.4450
   630.54         44.4243
   630.68         44.3919
   630.82         44.3418
   630.96         44.2710
   631.10         44.1798
   631.24         44.0731
   631.38         43.9614
   631.52         43.8578
   631.66         43.7785
   631.80         43.7409
   631.94         43.7558
   632.08         43.8222
   632.22         43.9310
   632.36         44.0678
   632.50         44.2115
   632.64         44.3390
   632.78         44.4329
   632.92         44.4817
   633.06         44.4794
   633.20         44.4266
   633.34         44.3308
   633.48         44.2053
   633.62         44.0691
   633.76         43.9448
   633.90         43.8545
   634.04         43.8143
   634.18         43.8313
   634.32         43.9022
   634.46         44.0145
   634.60         44.1495
   634.74         44.2870
   634.88         44.4069
   635.02         44.4907
   635.16         44.5265
   635.30         44.5136
   635.44         44.4587
   635.58         44.3707
   635.72         44.2570
   635.86         44.1231
   636.00         43.9759
   636.14         43.8284
   636.28         43.6971
   636.42         43.5960
   636.56         43.5310
   636.70         43.5000
   636.84         43.4955
   636.98         43.5098
   637.12         43.5361
   637.26         43.5689
   637.40         43.6055
   637.54         43.6475
   637.68         43.7009
   637.82         43.7718
   637.96         43.8614
   638.10         43.9641
   638.24         44.0708
   638.38         44.1721
   638.52         44.2620
   638.66         44.3378
   638.80         44.3971
   638.94         44.4358
   639.08         44.4494
   639.22         44.4358
   639.36         44.3953
   639.50         44.3308
   639.64         44.2493
   639.78         44.1600
   639.92         44.0732
   640.06         43.9979
   640.20         43.9390
   640.34         43.8956
   640.48         43.8606
   640.62         43.8255
   640.76         43.7830
   640.90         43.7292
   641.04         43.6642
   641.18         43.5938
   641.32         43.5292
   641.46         43.4843
   641.60         43.4722
   641.74         43.5001
   641.88         43.5640
   642.02         43.6489
   642.16         43.7393
   642.30         43.8246
   642.44         43.8980
   642.58         43.9486
   642.72         43.9651
   642.86         43.9419
   643.00         43.8790
   643.14         43.7835
   643.28         43.6679
   643.42         43.5479
   643.56         43.4380
   643.70         43.3481
   643.84         43.2804
   643.98         43.2294
   644.12         43.1853
   644.26         43.1373
   644.40         43.0745
   644.54         42.9881
   644.68         42.8791
   644.82         42.7600
   644.96         42.6453
   645.10         42.5412
   645.24         42.4479
   645.38         42.3718
   645.52         42.3257
   645.66         42.3204
   645.80         42.3596
   645.94         42.4386
   646.08         42.5472
   646.22         42.6730
   646.36         42.8047
   646.50         42.9363
   646.64         43.0681
   646.78         43.2000
   646.92         43.3265
   647.06         43.4397
   647.20         43.5348
   647.34         43.6123
   647.48         43.6743
   647.62         43.7204
   647.76         43.7497
   647.90         43.7653
   648.04         43.7709
   648.18         43.7597
   648.32         43.7129
   648.46         43.6086
   648.60         43.4345
   648.74         43.1953
   648.88         42.9126
   649.02         42.6198
   649.16         42.3510
   649.30         42.1347
   649.44         41.9933
   649.58         41.9448
   649.72         42.0015
   649.86         42.1686
   650.00         42.4418
   650.14         42.8049
   650.28         43.2277
   650.42         43.6698
   650.56         44.0883
   650.70         44.4438
   650.84         44.7084
   650.98         44.8751
   651.12         44.9579
   651.26         44.9834
   651.40         44.9795
   651.54         44.9691
   651.68         44.9680
   651.82         44.9836
   651.96         45.0186
   652.10         45.0740
   652.24         45.1465
   652.38         45.2296
   652.52         45.3140
   652.66         45.3893
   652.80         45.4445
   652.94         45.4707
   653.08         45.4639
   653.22         45.4263
   653.36         45.3644
   653.50         45.2866
   653.64         45.1986
   653.78         45.1010
   653.92         44.9919
   654.06         44.8677
   654.20         44.7239
   654.34         44.5544
   654.48         44.3519
   654.62         44.1103
   654.76         43.8220
   654.90         43.4682
   655.04         43.0155
   655.18         42.4279
   655.32         41.6896
   655.46         40.8192
   655.60         39.8647
   655.74         38.8934
   655.88         37.9806
   656.02         37.2037
   656.16         36.6322
   656.30         36.3166
   656.44         36.2837
   656.58         36.5364
   656.72         37.0529
   656.86         37.7878
   657.00         38.6755
   657.14         39.6406
   657.28         40.6050
   657.42         41.4937
   657.56         42.2461
   657.70         42.8318
   657.84         43.2539
   657.98         43.5382
   658.12         43.7139
   658.26         43.8018
   658.40         43.8183
   658.54         43.7794
   658.68         43.7021
   658.82         43.6017
   658.96         43.4917
   659.10         43.3849
   659.24         43.2885
   659.38         43.2018
   659.52         43.1197
   659.66         43.0385
   659.80         42.9583
   659.94         42.8791
   660.08         42.8000
   660.22         42.7203
   660.36         42.6396
   660.50         42.5598
   660.64         42.4869
   660.78         42.4317
   660.92         42.4070
   661.06         42.4222
   661.20         42.4799
   661.34         42.5755
   661.48         42.6996
   661.62         42.8383
   661.76         42.9739
   661.90         43.0882
   662.04         43.1688
   662.18         43.2083
   662.32         43.2032
   662.46         43.1550
   662.60         43.0712
   662.74         42.9628
   662.88         42.8411
   663.02         42.7158
   663.16         42.5941
   663.30         42.4818
   663.44         42.3851
   663.58         42.3115
   663.72         42.2697
   663.86         42.2659
   664.00         42.2988
   664.14         42.3589
   664.28         42.4326
   664.42         42.5064
   664.56         42.5681
   664.70         42.6102
   664.84         42.6300
   664.98         42.6274
   665.12         42.6035
   665.26         42.5575
   665.40         42.4889
   665.54         42.3992
   665.68         42.2930
   665.82         42.1795
   665.96         42.0694
   666.10         41.9707
   666.24         41.8879
   666.38         41.8204
   666.52         41.7615
   666.66         41.6999
   666.80         41.6278
   666.94         41.5472
   667.08         41.4651
   667.22         41.3878
   667.36         41.3220
   667.50         41.2705
   667.64         41.2325
   667.78         41.2081
   667.92         41.2010
   668.06         41.2176
   668.20         41.2617
   668.34         41.3303
   668.48         41.4147
   668.62         41.5029
   668.76         41.5848
   668.90         41.6546
   669.04         41.7090
   669.18         41.7451
   669.32         41.7621
   669.46         41.7643
   669.60         41.7573
   669.74         41.7419
   669.88         41.7158
   670.02         41.6775
   670.16         41.6260
   670.30         41.5630
   670.44         41.4908
   670.58         41.4092
   670.72         41.3141
   670.86         41.2025
   671.00         41.0765
   671.14         40.9436
   671.28         40.8171
   671.42         40.7096
   671.56         40.6289
   671.70         40.5786
   671.84         40.5593
   671.98         40.5687
   672.12         40.6027
   672.26         40.6552
   672.40         40.7187
   672.54         40.7870
   672.68         40.8527
   672.82         40.9066
   672.96         40.9389
   673.10         40.9418
   673.24         40.9135
   673.38         40.8606
   673.52         40.7941
   673.66         40.7223
   673.80         40.6485
   673.94         40.5754
   674.08         40.5063
   674.22         40.4462
   674.36         40.4002
   674.50         40.3712
   674.64         40.3594
   674.78         40.3662
   674.92         40.3961
   675.06         40.4538
   675.20         40.5404
   675.34         40.6527
   675.48         40.7836
   675.62         40.9252
   675.76         41.0679
   675.90         41.2007
   676.04         41.3107
   676.18         41.3833
   676.32         41.4070
   676.46         41.3775
   676.60         41.2971
   676.74         41.1731
   676.88         41.0134
   677.02         40.8293
   677.16         40.6360
   677.30         40.4501
   677.44         40.2867
   677.58         40.1571
   677.72         40.0672
   677.86         40.0186
   678.00         40.0087
   678.14         40.0315
   678.28         40.0805
   678.42         40.1489
   678.56         40.2313
   678.70         40.3242
   678.84         40.4232
   678.98         40.5226
   679.12         40.6142
   679.26         40.6885
   679.40         40.7371
   679.54         40.7557
   679.68         40.7469
   679.82         40.7151
   679.96         40.6619
   680.10         40.5901
   680.24         40.5061
   680.38         40.4188
   680.52         40.3370
   680.66         40.2674
   680.80         40.2153
   680.94         40.1838
   681.08         40.1715
   681.22         40.1745
   681.36         40.1872
   681.50         40.2025
   681.64         40.2124
   681.78         40.2109
   681.92         40.1961
   682.06         40.1704
   682.20         40.1372
   682.34         40.0966
   682.48         40.0461
   682.62         39.9846
   682.76         39.9128
   682.90         39.8306
   683.04         39.7362
   683.18         39.6264
   683.32         39.4982
   683.46         39.3513
   683.60         39.1894
   683.74         39.0204
   683.88         38.8584
   684.02         38.7181
   684.16         38.6085
   684.30         38.5343
   684.44         38.4985
   684.58         38.5025
   684.72         38.5418
   684.86         38.6072
   685.00         38.6876
   685.14         38.7700
   685.28         38.8367
   685.42         38.8621
   685.56         38.8106
   685.70         38.6421
   685.84         38.3253
   685.98         37.8463
   686.12         37.2101
   686.26         36.4396
   686.40         35.5744
   686.54         34.6668
   686.68         33.7767
   686.82         32.9668
   686.96         32.2982
   687.10         31.8202
   687.24         31.5592
   687.38         31.5168
   687.52         31.6736
   687.66         31.9902
   687.80         32.4111
   687.94         32.8759
   688.08         33.3264
   688.22         33.7153
   688.36         34.0181
   688.50         34.2326
   688.64         34.3717
   688.78         34.4540
   688.92         34.5005
   689.06         34.5314
   689.20         34.5638
   689.34         34.6114
   689.48         34.6844
   689.62         34.7868
   689.76         34.9159
   689.90         35.0650
   690.04         35.2272
   690.18         35.3950
   690.32         35.5603
   690.46         35.7168
   690.60         35.8601
   690.74         35.9861
   690.88         36.0944
   691.02         36.1891
   691.16         36.2774
   691.30         36.3698
   691.44         36.4762
   691.58         36.6036
   691.72         36.7538
   691.86         36.9239
   692.00         37.1103
   692.14         37.3072
   692.28         37.5038
   692.42         37.6868
   692.56         37.8435
   692.70         37.9635
   692.84         38.0419
   692.98         38.0801
   693.12         38.0853
   693.26         38.0670
   693.40         38.0341
   693.54         37.9953
   693.68         37.9577
   693.82         37.9272
   693.96         37.9067
   694.10         37.8951
   694.24         37.8880
   694.38         37.8808
   694.52         37.8703
   694.66         37.8543
   694.80         37.8299
   694.94         37.7961
   695.08         37.7558
   695.22         37.7146
   695.36         37.6794
   695.50         37.6588
   695.64         37.6622
   695.78         37.6979
   695.92         37.7717
   696.06         37.8870
   696.20         38.0448
   696.34         38.2401
   696.48         38.4575
   696.62         38.6705
   696.76         38.8513
   696.90         38.9811
   697.04         39.0529
   697.18         39.0685
   697.32         39.0347
   697.46         38.9606
   697.60         38.8579
   697.74         38.7409
   697.88         38.6245
   698.02         38.5202
   698.16         38.4355
   698.30         38.3741
   698.44         38.3350
   698.58         38.3121
   698.72         38.2930
   698.86         38.2618
   699.00         38.2022
   699.14         38.1014
   699.28         37.9585
   699.42         37.7877
   699.56         37.6096
   699.70         37.4415
   699.84         37.2944
   699.98         37.1744
   700.12         37.0877
   700.26         37.0399
   700.40         37.0325
   700.54         37.0595
   700.68         37.1098
   700.82         37.1725
   700.96         37.2381
   701.10         37.2960
   701.24         37.3360
   701.38         37.3514
   701.52         37.3429
   701.66         37.3175
   701.80         37.2857
   701.94         37.2599
   702.08         37.2489
   702.22         37.2561
   702.36         37.2824
   702.50         37.3273
   702.64         37.3892
   702.78         37.4638
   702.92         37.5449
   703.06         37.6259
   703.20         37.7024
   703.34         37.7716
   703.48         37.8304
   703.62         37.8744
   703.76         37.9002
   703.90         37.9097
   704.04         37.9099
   704.18         37.9098
   704.32         37.9159
   704.46         37.9323
   704.60         37.9612
   704.74         38.0025
   704.88         38.0542
   705.02         38.1121
   705.16         38.1691
   705.30         38.2153
   705.44         38.2410
   705.58         38.2382
   705.72         38.2031
   705.86         38.1381
   706.00         38.0503
   706.14         37.9500
   706.28         37.8496
   706.42         37.7632
   706.56         37.7037
   706.70         37.6793
   706.84         37.6920
   706.98         37.7387
   707.12         37.8118
   707.26         37.9012
   707.40         37.9986
   707.54         38.0954
   707.68         38.1826
   707.82         38.2511
   707.96         38.2958
   708.10         38.3160
   708.24         38.3147
   708.38         38.2957
   708.52         38.2604
   708.66         38.2070
   708.80         38.1320
   708.94         38.0331
   709.08         37.9135
   709.22         37.7813
   709.36         37.6476
   709.50         37.5241
   709.64         37.4222
   709.78         37.3513
   709.92         37.3171
   710.06         37.3193
   710.20         37.3496
   710.34         37.3963
   710.48         37.4496
   710.62         37.5014
   710.76         37.5455
   710.90         37.5750
   711.04         37.5829
   711.18         37.5663
   711.32         37.5283
   711.46         37.4775
   711.60         37.4258
   711.74         37.3828
   711.88         37.3506
   712.02         37.3270
   712.16         37.3108
   712.30         37.3033
   712.44         37.3041
   712.58         37.3118
   712.72         37.3264
   712.86         37.3502
   713.00         37.3872
   713.14         37.4421
   713.28         37.5163
   713.42         37.6018
   713.56         37.6824
   713.70         37.7425
   713.84         37.7746
   713.98         37.7787
   714.12         37.7599
   714.26         37.7267
   714.40         37.6876
   714.54         37.6517
   714.68         37.6314
   714.82         37.6352
   714.96         37.6640
   715.10         37.7090
   715.24         37.7529
   715.38         37.7763
   715.52         37.7621
   715.66         37.7020
   715.80         37.5938
   715.94         37.4364
   716.08         37.2334
   716.22         37.0000
   716.36         36.7613
   716.50         36.5435
   716.64         36.3661
   716.78         36.2368
   716.92         36.1484
   717.06         36.0834
   717.20         36.0203
   717.34         35.9342
   717.48         35.8017
   717.62         35.6112
   717.76         35.3630
   717.90         35.0673
   718.04         34.7427
   718.18         34.4139
   718.32         34.1088
   718.46         33.8504
   718.60         33.6529
   718.74         33.5237
   718.88         33.4637
   719.02         33.4692
   719.16         33.5319
   719.30         33.6378
   719.44         33.7666
   719.58         33.8975
   719.72         34.0167
   719.86         34.1205
   720.00         34.2141
   720.14         34.3104
   720.28         34.4241
   720.42         34.5639
   720.56         34.7340
   720.70         34.9369
   720.84         35.1718
   720.98         35.4304
   721.12         35.6955
   721.26         35.9463
   721.40         36.1643
   721.54         36.3363
   721.68         36.4540
   721.82         36.5115
   721.96         36.5045
   722.10         36.4332
   722.24         36.3040
   722.38         36.1318
   722.52         35.9400
   722.66         35.7507
   722.80         35.5766
   722.94         35.4244
   723.08         35.2995
   723.22         35.2067
   723.36         35.1447
   723.50         35.1083
   723.64         35.0929
   723.78         35.0931
   723.92         35.0997
   724.06         35.1005
   724.20         35.0868
   724.34         35.0564
   724.48         35.0116
   724.62         34.9543
   724.76         34.8855
   724.90         34.8058
   725.04         34.7176
   725.18         34.6228
   725.32         34.5191
   725.46         34.4085
   725.60         34.3026
   725.74         34.2161
   725.88         34.1599
   726.02         34.1393
   726.16         34.1526
   726.30         34.1907
   726.44         34.2375
   726.58         34.2801
   726.72         34.3146
   726.86         34.3411
   727.00         34.3586
   727.14         34.3630
   727.28         34.3488
   727.42         34.3141
   727.56         34.2592
   727.70         34.1833
   727.84         34.0861
   727.98         33.9714
   728.12         33.8481
   728.26         33.7252
   728.40         33.6083
   728.54         33.5029
   728.68         33.4168
   728.82         33.3577
   728.96         33.3293
   729.10         33.3326
   729.24         33.3675
   729.38         33.4298
   729.52         33.5091
   729.66         33.5932
   729.80         33.6694
   729.94         33.7259
   730.08         33.7528
   730.22         33.7435
   730.36         33.6981
   730.50         33.6271
   730.64         33.5473
   730.78         33.4761
   730.92         33.4265
   731.06         33.4065
   731.20         33.4180
   731.34         33.4554
   731.48         33.5047
   731.62         33.5491
   731.76         33.5767
   731.90         33.5815
   732.04         33.5603
   732.18         33.5100
   732.32         33.4304
   732.46         33.3268
   732.60         33.2095
   732.74         33.0933
   732.88         32.9921
   733.02         32.9136
   733.16         32.8618
   733.30         32.8375
   733.44         32.8380
   733.58         32.8573
   733.72         32.8852
   733.86         32.9095
   734.00         32.9195
   734.14         32.9077
   734.28         32.8705
   734.42         32.8075
   734.56         32.7196
   734.70         32.6106
   734.84         32.4881
   734.98         32.3611
   735.12         32.2368
   735.26         32.1201
   735.40         32.0151
   735.54         31.9223
   735.68         31.8411
   735.82         31.7736
   735.96         31.7223
   736.10         31.6891
   736.24         31.6758
   736.38         31.6861
   736.52         31.7250
   736.66         31.7942
   736.80         31.8892
   736.94         32.0023
   737.08         32.1232
   737.22         32.2406
   737.36         32.3429
   737.50         32.4179
   737.64         32.4557
   737.78         32.4532
   737.92         32.4163
   738.06         32.3551
   738.20         32.2795
   738.34         32.1993
   738.48         32.1267
   738.62         32.0727
   738.76         32.0459
   738.90         32.0527
   739.04         32.0940
   739.18         32.1618
   739.32         32.2418
   739.46         32.3205
   739.60         32.3868
   739.74         32.4299
   739.88         32.4430
   740.02         32.4243
   740.16         32.3772
   740.30         32.3096
   740.44         32.2316
   740.58         32.1548
   740.72         32.0900
   740.86         32.0460
   741.00         32.0314
   741.14         32.0532
   741.28         32.1126
   741.42         32.2047
   741.56         32.3191
   741.70         32.4417
   741.84         32.5578
   741.98         32.6575
   742.12         32.7377
   742.26         32.7979
   742.40         32.8390
   742.54         32.8652
   742.68         32.8812
   742.82         32.8892
   742.96         32.8892
   743.10         32.8812
   743.24         32.8652
   743.38         32.8390
   743.52         32.7979
   743.66         32.7377
   743.80         32.6575
   743.94         32.5578
   744.08         32.4417
   744.22         32.3191
