# File HD186293
# Wavelength [nm]    Normalized Amplitude
   349.70         3.8585
   349.84         3.8819
   349.98         3.9146
   350.12         3.9518
   350.26         3.9899
   350.40         4.0264
   350.54         4.0590
   350.68         4.0853
   350.82         4.1038
   350.96         4.1145
   351.10         4.1180
   351.24         4.1145
   351.38         4.1038
   351.52         4.0853
   351.66         4.0590
   351.80         4.0264
   351.94         3.9899
   352.08         3.9518
   352.22         3.9146
   352.36         3.8819
   352.50         3.8585
   352.64         3.8488
   352.78         3.8564
   352.92         3.8824
   353.06         3.9254
   353.20         3.9818
   353.34         4.0456
   353.48         4.1093
   353.62         4.1645
   353.76         4.2048
   353.90         4.2265
   354.04         4.2291
   354.18         4.2140
   354.32         4.1835
   354.46         4.1395
   354.60         4.0834
   354.74         4.0167
   354.88         3.9427
   355.02         3.8659
   355.16         3.7898
   355.30         3.7167
   355.44         3.6473
   355.58         3.5817
   355.72         3.5193
   355.86         3.4586
   356.00         3.3977
   356.14         3.3364
   356.28         3.2763
   356.42         3.2196
   356.56         3.1678
   356.70         3.1210
   356.84         3.0782
   356.98         3.0376
   357.12         2.9962
   357.26         2.9502
   357.40         2.8968
   357.54         2.8348
   357.68         2.7647
   357.82         2.6890
   357.96         2.6136
   358.10         2.5472
   358.24         2.4995
   358.38         2.4804
   358.52         2.4989
   358.66         2.5627
   358.80         2.6763
   358.94         2.8398
   359.08         3.0473
   359.22         3.2865
   359.36         3.5412
   359.50         3.7929
   359.64         4.0233
   359.78         4.2164
   359.92         4.3608
   360.06         4.4513
   360.20         4.4887
   360.34         4.4793
   360.48         4.4338
   360.62         4.3646
   360.76         4.2823
   360.90         4.1955
   361.04         4.1124
   361.18         4.0414
   361.32         3.9903
   361.46         3.9672
   361.60         3.9792
   361.74         4.0311
   361.88         4.1232
   362.02         4.2503
   362.16         4.4021
   362.30         4.5659
   362.44         4.7293
   362.58         4.8831
   362.72         5.0211
   362.86         5.1393
   363.00         5.2362
   363.14         5.3116
   363.28         5.3661
   363.42         5.4009
   363.56         5.4189
   363.70         5.4242
   363.84         5.4202
   363.98         5.4094
   364.12         5.3955
   364.26         5.3827
   364.40         5.3740
   364.54         5.3722
   364.68         5.3820
   364.82         5.4113
   364.96         5.4699
   365.10         5.5656
   365.24         5.7020
   365.38         5.8758
   365.52         6.0765
   365.66         6.2881
   365.80         6.4920
   365.94         6.6697
   366.08         6.8068
   366.22         6.8954
   366.36         6.9350
   366.50         6.9314
   366.64         6.8947
   366.78         6.8358
   366.92         6.7644
   367.06         6.6890
   367.20         6.6170
   367.34         6.5545
   367.48         6.5047
   367.62         6.4658
   367.76         6.4334
   367.90         6.4032
   368.04         6.3739
   368.18         6.3475
   368.32         6.3288
   368.46         6.3234
   368.60         6.3349
   368.74         6.3664
   368.88         6.4214
   369.02         6.5023
   369.16         6.6067
   369.30         6.7266
   369.44         6.8491
   369.58         6.9593
   369.72         7.0431
   369.86         7.0884
   370.00         7.0880
   370.14         7.0419
   370.28         6.9585
   370.42         6.8542
   370.56         6.7489
   370.70         6.6596
   370.84         6.5939
   370.98         6.5489
   371.12         6.5156
   371.26         6.4855
   371.40         6.4546
   371.54         6.4204
   371.68         6.3780
   371.82         6.3192
   371.96         6.2383
   372.10         6.1338
   372.24         6.0066
   372.38         5.8601
   372.52         5.6994
   372.66         5.5316
   372.80         5.3658
   372.94         5.2115
   373.08         5.0748
   373.22         4.9562
   373.36         4.8522
   373.50         4.7583
   373.64         4.6723
   373.78         4.5955
   373.92         4.5317
   374.06         4.4858
   374.20         4.4630
   374.34         4.4674
   374.48         4.5010
   374.62         4.5607
   374.76         4.6371
   374.90         4.7188
   375.04         4.7984
   375.18         4.8727
   375.32         4.9414
   375.46         5.0049
   375.60         5.0611
   375.74         5.1062
   375.88         5.1377
   376.02         5.1583
   376.16         5.1756
   376.30         5.1999
   376.44         5.2423
   376.58         5.3135
   376.72         5.4212
   376.86         5.5670
   377.00         5.7447
   377.14         5.9410
   377.28         6.1408
   377.42         6.3307
   377.56         6.4990
   377.70         6.6342
   377.84         6.7247
   377.98         6.7619
   378.12         6.7425
   378.26         6.6678
   378.40         6.5425
   378.54         6.3745
   378.68         6.1731
   378.82         5.9495
   378.96         5.7181
   379.10         5.4967
   379.24         5.3040
   379.38         5.1562
   379.52         5.0634
   379.66         5.0278
   379.80         5.0442
   379.94         5.1026
   380.08         5.1886
   380.22         5.2854
   380.36         5.3761
   380.50         5.4461
   380.64         5.4841
   380.78         5.4807
   380.92         5.4290
   381.06         5.3266
   381.20         5.1767
   381.34         4.9869
   381.48         4.7682
   381.62         4.5343
   381.76         4.2992
   381.90         4.0748
   382.04         3.8698
   382.18         3.6900
   382.32         3.5396
   382.46         3.4221
   382.60         3.3377
   382.74         3.2823
   382.88         3.2491
   383.02         3.2316
   383.16         3.2267
   383.30         3.2338
   383.44         3.2528
   383.58         3.2836
   383.72         3.3249
   383.86         3.3736
   384.00         3.4260
   384.14         3.4793
   384.28         3.5318
   384.42         3.5807
   384.56         3.6214
   384.70         3.6484
   384.84         3.6576
   384.98         3.6481
   385.12         3.6221
   385.26         3.5835
   385.40         3.5377
   385.54         3.4907
   385.68         3.4484
   385.82         3.4147
   385.96         3.3913
   386.10         3.3777
   386.24         3.3741
   386.38         3.3811
   386.52         3.3998
   386.66         3.4303
   386.80         3.4711
   386.94         3.5190
   387.08         3.5719
   387.22         3.6313
   387.36         3.7012
   387.50         3.7859
   387.64         3.8897
   387.78         4.0159
   387.92         4.1682
   388.06         4.3502
   388.20         4.5645
   388.34         4.8118
   388.48         5.0893
   388.62         5.3915
   388.76         5.7094
   388.90         6.0325
   389.04         6.3480
   389.18         6.6419
   389.32         6.9001
   389.46         7.1116
   389.60         7.2705
   389.74         7.3774
   389.88         7.4379
   390.02         7.4611
   390.16         7.4577
   390.30         7.4393
   390.44         7.4157
   390.58         7.3932
   390.72         7.3731
   390.86         7.3513
   391.00         7.3205
   391.14         7.2727
   391.28         7.2016
   391.42         7.1022
   391.56         6.9685
   391.70         6.7939
   391.84         6.5716
   391.98         6.2979
   392.12         5.9739
   392.26         5.6061
   392.40         5.2060
   392.54         4.7899
   392.68         4.3766
   392.82         3.9867
   392.96         3.6409
   393.10         3.3589
   393.24         3.1580
   393.38         3.0520
   393.52         3.0492
   393.66         3.1519
   393.80         3.3558
   393.94         3.6494
   394.08         4.0135
   394.22         4.4246
   394.36         4.8576
   394.50         5.2895
   394.64         5.7008
   394.78         6.0760
   394.92         6.4016
   395.06         6.6655
   395.20         6.8560
   395.34         6.9617
   395.48         6.9730
   395.62         6.8833
   395.76         6.6917
   395.90         6.4060
   396.04         6.0445
   396.18         5.6348
   396.32         5.2115
   396.46         4.8142
   396.60         4.4825
   396.74         4.2529
   396.88         4.1543
   397.02         4.2035
   397.16         4.4032
   397.30         4.7429
   397.44         5.2022
   397.58         5.7524
   397.72         6.3602
   397.86         6.9912
   398.00         7.6131
   398.14         8.1989
   398.28         8.7294
   398.42         9.1929
   398.56         9.5852
   398.70         9.9092
   398.84         10.1741
   398.98         10.3933
   399.12         10.5806
   399.26         10.7466
   399.40         10.8955
   399.54         11.0267
   399.68         11.1392
   399.82         11.2347
   399.96         11.3194
   400.10         11.4010
   400.24         11.4857
   400.38         11.5781
   400.52         11.6814
   400.66         11.7968
   400.80         11.9244
   400.94         12.0618
   401.08         12.2035
   401.22         12.3437
   401.36         12.4779
   401.50         12.6037
   401.64         12.7184
   401.78         12.8173
   401.92         12.8918
   402.06         12.9323
   402.20         12.9339
   402.34         12.8982
   402.48         12.8333
   402.62         12.7509
   402.76         12.6628
   402.90         12.5787
   403.04         12.5050
   403.18         12.4424
   403.32         12.3849
   403.46         12.3235
   403.60         12.2515
   403.74         12.1700
   403.88         12.0875
   404.02         12.0150
   404.16         11.9601
   404.30         11.9231
   404.44         11.8978
   404.58         11.8758
   404.72         11.8529
   404.86         11.8307
   405.00         11.8131
   405.14         11.8005
   405.28         11.7872
   405.42         11.7639
   405.56         11.7233
   405.70         11.6628
   405.84         11.5854
   405.98         11.4990
   406.12         11.4172
   406.26         11.3569
   406.40         11.3292
   406.54         11.3324
   406.68         11.3548
   406.82         11.3840
   406.96         11.4140
   407.10         11.4463
   407.24         11.4860
   407.38         11.5391
   407.52         11.6108
   407.66         11.7063
   407.80         11.8303
   407.94         11.9879
   408.08         12.1824
   408.22         12.4122
   408.36         12.6683
   408.50         12.9330
   408.64         13.1832
   408.78         13.3950
   408.92         13.5461
   409.06         13.6187
   409.20         13.6058
   409.34         13.5161
   409.48         13.3712
   409.62         13.1970
   409.76         13.0161
   409.90         12.8457
   410.04         12.6999
   410.18         12.5915
   410.32         12.5301
   410.46         12.5193
   410.60         12.5537
   410.74         12.6200
   410.88         12.7007
   411.02         12.7768
   411.16         12.8324
   411.30         12.8573
   411.44         12.8477
   411.58         12.8050
   411.72         12.7352
   411.86         12.6471
   412.00         12.5483
   412.14         12.4424
   412.28         12.3295
   412.42         12.2102
   412.56         12.0890
   412.70         11.9748
   412.84         11.8776
   412.98         11.8033
   413.12         11.7494
   413.26         11.7071
   413.40         11.6673
   413.54         11.6256
   413.68         11.5797
   413.82         11.5278
   413.96         11.4671
   414.10         11.3947
   414.24         11.3082
   414.38         11.2068
   414.52         11.0930
   414.66         10.9737
   414.80         10.8607
   414.94         10.7692
   415.08         10.7138
   415.22         10.7033
   415.36         10.7390
   415.50         10.8142
   415.64         10.9173
   415.78         11.0364
   415.92         11.1621
   416.06         11.2861
   416.20         11.3970
   416.34         11.4804
   416.48         11.5241
   416.62         11.5207
   416.76         11.4684
   416.90         11.3715
   417.04         11.2397
   417.18         11.0895
   417.32         10.9422
   417.46         10.8192
   417.60         10.7367
   417.74         10.7038
   417.88         10.7236
   418.02         10.7948
   418.16         10.9114
   418.30         11.0630
   418.44         11.2336
   418.58         11.4022
   418.72         11.5476
   418.86         11.6539
   419.00         11.7130
   419.14         11.7239
   419.28         11.6910
   419.42         11.6257
   419.56         11.5467
   419.70         11.4763
   419.84         11.4349
   419.98         11.4360
   420.12         11.4834
   420.26         11.5711
   420.40         11.6877
   420.54         11.8232
   420.68         11.9722
   420.82         12.1349
   420.96         12.3141
   421.10         12.5100
   421.24         12.7183
   421.38         12.9274
   421.52         13.1191
   421.66         13.2771
   421.80         13.3946
   421.94         13.4764
   422.08         13.5347
   422.22         13.5801
   422.36         13.6173
   422.50         13.6463
   422.64         13.6665
   422.78         13.6800
   422.92         13.6939
   423.06         13.7218
   423.20         13.7802
   423.34         13.8823
   423.48         14.0304
   423.62         14.2123
   423.76         14.4046
   423.90         14.5816
   424.04         14.7243
   424.18         14.8259
   424.32         14.8910
   424.46         14.9273
   424.60         14.9392
   424.74         14.9245
   424.88         14.8777
   425.02         14.7982
   425.16         14.6962
   425.30         14.5932
   425.44         14.5154
   425.58         14.4857
   425.72         14.5155
   425.86         14.6002
   426.00         14.7190
   426.14         14.8417
   426.28         14.9372
   426.42         14.9837
   426.56         14.9744
   426.70         14.9165
   426.84         14.8239
   426.98         14.7117
   427.12         14.5949
   427.26         14.4878
   427.40         14.4020
   427.54         14.3470
   427.68         14.3289
   427.82         14.3457
   427.96         14.3862
   428.10         14.4321
   428.24         14.4637
   428.38         14.4643
   428.52         14.4217
   428.66         14.3305
   428.80         14.1910
   428.94         14.0076
   429.08         13.7875
   429.22         13.5379
   429.36         13.2625
   429.50         12.9617
   429.64         12.6351
   429.78         12.2859
   429.92         11.9229
   430.06         11.5620
   430.20         11.2272
   430.34         10.9506
   430.48         10.7727
   430.62         10.7373
   430.76         10.8811
   430.90         11.2205
   431.04         11.7444
   431.18         12.4150
   431.32         13.1734
   431.46         13.9522
   431.60         14.6928
   431.74         15.3535
   431.88         15.9088
   432.02         16.3470
   432.16         16.6696
   432.30         16.8924
   432.44         17.0431
   432.58         17.1529
   432.72         17.2457
   432.86         17.3343
   433.00         17.4242
   433.14         17.5153
   433.28         17.6029
   433.42         17.6774
   433.56         17.7283
   433.70         17.7498
   433.84         17.7449
   433.98         17.7222
   434.12         17.6953
   434.26         17.6830
   434.40         17.7023
   434.54         17.7620
   434.68         17.8611
   434.82         17.9898
   434.96         18.1350
   435.10         18.2830
   435.24         18.4233
   435.38         18.5517
   435.52         18.6723
   435.66         18.7940
   435.80         18.9229
   435.94         19.0592
   436.08         19.1944
   436.22         19.3120
   436.36         19.3916
   436.50         19.4145
   436.64         19.3718
   436.78         19.2694
   436.92         19.1229
   437.06         18.9460
   437.20         18.7423
   437.34         18.5074
   437.48         18.2398
   437.62         17.9477
   437.76         17.6450
   437.90         17.3446
   438.04         17.0563
   438.18         16.7893
   438.32         16.5549
   438.46         16.3674
   438.60         16.2424
   438.74         16.1913
   438.88         16.2184
   439.02         16.3215
   439.16         16.4929
   439.30         16.7145
   439.44         16.9556
   439.58         17.1797
   439.72         17.3555
   439.86         17.4674
   440.00         17.5207
   440.14         17.5371
   440.28         17.5403
   440.42         17.5453
   440.56         17.5610
   440.70         17.5964
   440.84         17.6617
   440.98         17.7638
   441.12         17.9022
   441.26         18.0687
   441.40         18.2508
   441.54         18.4349
   441.68         18.6090
   441.82         18.7619
   441.96         18.8841
   442.10         18.9709
   442.24         19.0235
   442.38         19.0457
   442.52         19.0438
   442.66         19.0271
   442.80         19.0053
   442.94         18.9829
   443.08         18.9618
   443.22         18.9457
   443.36         18.9419
   443.50         18.9596
   443.64         19.0055
   443.78         19.0829
   443.92         19.1933
   444.06         19.3354
   444.20         19.5010
   444.34         19.6738
   444.48         19.8324
   444.62         19.9562
   444.76         20.0287
   444.90         20.0386
   445.04         19.9815
   445.18         19.8626
   445.32         19.6953
   445.46         19.4960
   445.60         19.2811
   445.74         19.0689
   445.88         18.8817
   446.02         18.7448
   446.16         18.6813
   446.30         18.7074
   446.44         18.8306
   446.58         19.0506
   446.72         19.3567
   446.86         19.7251
   447.00         20.1225
   447.14         20.5157
   447.28         20.8799
   447.42         21.2018
   447.56         21.4751
   447.70         21.6952
   447.84         21.8575
   447.98         21.9598
   448.12         22.0028
   448.26         21.9882
   448.40         21.9199
   448.54         21.8092
   448.68         21.6757
   448.82         21.5422
   448.96         21.4285
   449.10         21.3499
   449.24         21.3199
   449.38         21.3490
   449.52         21.4436
   449.66         21.6079
   449.80         21.8446
   449.94         22.1499
   450.08         22.5066
   450.22         22.8815
   450.36         23.2349
   450.50         23.5334
   450.64         23.7543
   450.78         23.8854
   450.92         23.9249
   451.06         23.8821
   451.20         23.7742
   451.34         23.6200
   451.48         23.4335
   451.62         23.2223
   451.76         22.9905
   451.90         22.7413
   452.04         22.4752
   452.18         22.1921
   452.32         21.8946
   452.46         21.5918
   452.60         21.3002
   452.74         21.0398
   452.88         20.8292
   453.02         20.6840
   453.16         20.6158
   453.30         20.6288
   453.44         20.7183
   453.58         20.8705
   453.72         21.0621
   453.86         21.2645
   454.00         21.4511
   454.14         21.5998
   454.28         21.6960
   454.42         21.7374
   454.56         21.7367
   454.70         21.7159
   454.84         21.6996
   454.98         21.7102
   455.12         21.7636
   455.26         21.8638
   455.40         22.0013
   455.54         22.1607
   455.68         22.3296
   455.82         22.4995
   455.96         22.6611
   456.10         22.8066
   456.24         22.9318
   456.38         23.0360
   456.52         23.1205
   456.66         23.1861
   456.80         23.2308
   456.94         23.2509
   457.08         23.2457
   457.22         23.2161
   457.36         23.1614
   457.50         23.0815
   457.64         22.9808
   457.78         22.8700
   457.92         22.7622
   458.06         22.6702
   458.20         22.6039
   458.34         22.5665
   458.48         22.5533
   458.62         22.5564
   458.76         22.5687
   458.90         22.5826
   459.04         22.5890
   459.18         22.5790
   459.32         22.5479
   459.46         22.4987
   459.60         22.4468
   459.74         22.4181
   459.88         22.4397
   460.02         22.5303
   460.16         22.6979
   460.30         22.9408
   460.44         23.2480
   460.58         23.5991
   460.72         23.9696
   460.86         24.3372
   461.00         24.6855
   461.14         25.0030
   461.28         25.2814
   461.42         25.5151
   461.56         25.7000
   461.70         25.8351
   461.84         25.9231
   461.98         25.9702
   462.12         25.9836
   462.26         25.9687
   462.40         25.9255
   462.54         25.8488
   462.68         25.7334
   462.82         25.5793
   462.96         25.3940
   463.10         25.1889
   463.24         24.9743
   463.38         24.7556
   463.52         24.5346
   463.66         24.3118
   463.80         24.0899
   463.94         23.8772
   464.08         23.6849
   464.22         23.5221
   464.36         23.3938
   464.50         23.3022
   464.64         23.2510
   464.78         23.2466
   464.92         23.2933
   465.06         23.3889
   465.20         23.5223
   465.34         23.6756
   465.48         23.8251
   465.62         23.9441
   465.76         24.0090
   465.90         24.0047
   466.04         23.9311
   466.18         23.8007
   466.32         23.6372
   466.46         23.4718
   466.60         23.3328
   466.74         23.2371
   466.88         23.1903
   467.02         23.1934
   467.16         23.2477
   467.30         23.3538
   467.44         23.5033
   467.58         23.6756
   467.72         23.8451
   467.86         23.9913
   468.00         24.1022
   468.14         24.1752
   468.28         24.2181
   468.42         24.2484
   468.56         24.2815
   468.70         24.3221
   468.84         24.3643
   468.98         24.3997
   469.12         24.4194
   469.26         24.4145
   469.40         24.3797
   469.54         24.3141
   469.68         24.2220
   469.82         24.1111
   469.96         23.9908
   470.10         23.8709
   470.24         23.7598
   470.38         23.6676
   470.52         23.6072
   470.66         23.5919
   470.80         23.6333
   470.94         23.7381
   471.08         23.9047
   471.22         24.1223
   471.36         24.3751
   471.50         24.6440
   471.64         24.9037
   471.78         25.1266
   471.92         25.2903
   472.06         25.3806
   472.20         25.3914
   472.34         25.3266
   472.48         25.1992
   472.62         25.0293
   472.76         24.8413
   472.90         24.6612
   473.04         24.5152
   473.18         24.4269
   473.32         24.4128
   473.46         24.4786
   473.60         24.6192
   473.74         24.8201
   473.88         25.0601
   474.02         25.3136
   474.16         25.5537
   474.30         25.7588
   474.44         25.9173
   474.58         26.0266
   474.72         26.0886
   474.86         26.1072
   475.00         26.0855
   475.14         26.0255
   475.28         25.9301
   475.42         25.8030
   475.56         25.6494
   475.70         25.4793
   475.84         25.3086
   475.98         25.1551
   476.12         25.0353
   476.26         24.9632
   476.40         24.9502
   476.54         25.0018
   476.68         25.1188
   476.82         25.2967
   476.96         25.5255
   477.10         25.7892
   477.24         26.0674
   477.38         26.3356
   477.52         26.5671
   477.66         26.7363
   477.80         26.8262
   477.94         26.8331
   478.08         26.7690
   478.22         26.6599
   478.36         26.5393
   478.50         26.4380
   478.64         26.3753
   478.78         26.3583
   478.92         26.3860
   479.06         26.4527
   479.20         26.5497
   479.34         26.6640
   479.48         26.7786
   479.62         26.8747
   479.76         26.9343
   479.90         26.9457
   480.04         26.9065
   480.18         26.8242
   480.32         26.7145
   480.46         26.5991
   480.60         26.5019
   480.74         26.4452
   480.88         26.4441
   481.02         26.5007
   481.16         26.6028
   481.30         26.7304
   481.44         26.8661
   481.58         26.9992
   481.72         27.1210
   481.86         27.2205
   482.00         27.2856
   482.14         27.3096
   482.28         27.2923
   482.42         27.2406
   482.56         27.1661
   482.70         27.0808
   482.84         26.9931
   482.98         26.9070
   483.12         26.8240
   483.26         26.7456
   483.40         26.6745
   483.54         26.6128
   483.68         26.5599
   483.82         26.5148
   483.96         26.4798
   484.10         26.4583
   484.24         26.4489
   484.38         26.4424
   484.52         26.4268
   484.66         26.3913
   484.80         26.3241
   484.94         26.2092
   485.08         26.0299
   485.22         25.7777
   485.36         25.4570
   485.50         25.0856
   485.64         24.6906
   485.78         24.3021
   485.92         23.9479
   486.06         23.6479
   486.20         23.4123
   486.34         23.2454
   486.48         23.1488
   486.62         23.1228
   486.76         23.1656
   486.90         23.2719
   487.04         23.4319
   487.18         23.6318
   487.32         23.8543
   487.46         24.0783
   487.60         24.2839
   487.74         24.4598
   487.88         24.6018
   488.02         24.7086
   488.16         24.7817
   488.30         24.8284
   488.44         24.8633
   488.58         24.9062
   488.72         24.9771
   488.86         25.0927
   489.00         25.2634
   489.14         25.4907
   489.28         25.7671
   489.42         26.0763
   489.56         26.3938
   489.70         26.6901
   489.84         26.9373
   489.98         27.1123
   490.12         27.2004
   490.26         27.2025
   490.40         27.1335
   490.54         27.0173
   490.68         26.8783
   490.82         26.7349
   490.96         26.5928
   491.10         26.4462
   491.24         26.2860
   491.38         26.1071
   491.52         25.9133
   491.66         25.7199
   491.80         25.5501
   491.94         25.4278
   492.08         25.3713
   492.22         25.3902
   492.36         25.4850
   492.50         25.6478
   492.64         25.8619
   492.78         26.1034
   492.92         26.3468
   493.06         26.5697
   493.20         26.7554
   493.34         26.8935
   493.48         26.9821
   493.62         27.0315
   493.76         27.0659
   493.90         27.1172
   494.04         27.2125
   494.18         27.3685
   494.32         27.5885
   494.46         27.8597
   494.60         28.1516
   494.74         28.4246
   494.88         28.6437
   495.02         28.7878
   495.16         28.8505
   495.30         28.8364
   495.44         28.7582
   495.58         28.6345
   495.72         28.4854
   495.86         28.3270
   496.00         28.1699
   496.14         28.0244
   496.28         27.9033
   496.42         27.8182
   496.56         27.7726
   496.70         27.7592
   496.84         27.7631
   496.98         27.7644
   497.12         27.7412
   497.26         27.6746
   497.40         27.5569
   497.54         27.3942
   497.68         27.2010
   497.82         26.9939
   497.96         26.7868
   498.10         26.5916
   498.24         26.4224
   498.38         26.2956
   498.52         26.2253
   498.66         26.2192
   498.80         26.2755
   498.94         26.3804
   499.08         26.5086
   499.22         26.6276
   499.36         26.7054
   499.50         26.7176
   499.64         26.6535
   499.78         26.5201
   499.92         26.3347
   500.06         26.1168
   500.20         25.8862
   500.34         25.6593
   500.48         25.4460
   500.62         25.2512
   500.76         25.0789
   500.90         24.9342
   501.04         24.8210
   501.18         24.7414
   501.32         24.6963
   501.46         24.6855
   501.60         24.7073
   501.74         24.7608
   501.88         24.8478
   502.02         24.9735
   502.16         25.1449
   502.30         25.3646
   502.44         25.6226
   502.58         25.8940
   502.72         26.1485
   502.86         26.3570
   503.00         26.4931
   503.14         26.5432
   503.28         26.5136
   503.42         26.4271
   503.56         26.3129
   503.70         26.1956
   503.84         26.0937
   503.98         26.0222
   504.12         25.9929
   504.26         26.0159
   504.40         26.0982
   504.54         26.2414
   504.68         26.4412
   504.82         26.6864
   504.96         26.9589
   505.10         27.2365
   505.24         27.4980
   505.38         27.7245
   505.52         27.9046
   505.66         28.0377
   505.80         28.1321
   505.94         28.1946
   506.08         28.2237
   506.22         28.2122
   506.36         28.1550
   506.50         28.0563
   506.64         27.9246
   506.78         27.7667
   506.92         27.5897
   507.06         27.4023
   507.20         27.2157
   507.34         27.0433
   507.48         26.8975
   507.62         26.7872
   507.76         26.7187
   507.90         26.6983
   508.04         26.7341
   508.18         26.8322
   508.32         26.9905
   508.46         27.1954
   508.60         27.4227
   508.74         27.6438
   508.88         27.8332
   509.02         27.9727
   509.16         28.0504
   509.30         28.0600
   509.44         28.0048
   509.58         27.8982
   509.72         27.7575
   509.86         27.5993
   510.00         27.4402
   510.14         27.2975
   510.28         27.1864
   510.42         27.1206
   510.56         27.1094
   510.70         27.1552
   510.84         27.2501
   510.98         27.3759
   511.12         27.5077
   511.26         27.6216
   511.40         27.7027
   511.54         27.7437
   511.68         27.7374
   511.82         27.6757
   511.96         27.5568
   512.10         27.3906
   512.24         27.1945
   512.38         26.9900
   512.52         26.7989
   512.66         26.6405
   512.80         26.5284
   512.94         26.4665
   513.08         26.4476
   513.22         26.4561
   513.36         26.4738
   513.50         26.4822
   513.64         26.4656
   513.78         26.4172
   513.92         26.3412
   514.06         26.2471
   514.20         26.1465
   514.34         26.0550
   514.48         25.9933
   514.62         25.9821
   514.76         26.0325
   514.90         26.1432
   515.04         26.3007
   515.18         26.4822
   515.32         26.6581
   515.46         26.7927
   515.60         26.8486
   515.74         26.7962
   515.88         26.6225
   516.02         26.3291
   516.16         25.9313
   516.30         25.4627
   516.44         24.9735
   516.58         24.5217
   516.72         24.1628
   516.86         23.9406
   517.00         23.8761
   517.14         23.9604
   517.28         24.1621
   517.42         24.4418
   517.56         24.7621
   517.70         25.0890
   517.84         25.3921
   517.98         25.6462
   518.12         25.8348
   518.26         25.9561
   518.40         26.0219
   518.54         26.0520
   518.68         26.0709
   518.82         26.1071
   518.96         26.1870
   519.10         26.3226
   519.24         26.5069
   519.38         26.7170
   519.52         26.9221
   519.66         27.0924
   519.80         27.2105
   519.94         27.2778
   520.08         27.3078
   520.22         27.3133
   520.36         27.2986
   520.50         27.2652
   520.64         27.2183
   520.78         27.1699
   520.92         27.1365
   521.06         27.1330
   521.20         27.1659
   521.34         27.2289
   521.48         27.3038
   521.62         27.3673
   521.76         27.4007
   521.90         27.3958
   522.04         27.3546
   522.18         27.2847
   522.32         27.1978
   522.46         27.1124
   522.60         27.0514
   522.74         27.0350
   522.88         27.0748
   523.02         27.1771
   523.16         27.3451
   523.30         27.5740
   523.44         27.8478
   523.58         28.1399
   523.72         28.4157
   523.86         28.6386
   524.00         28.7814
   524.14         28.8351
   524.28         28.8064
   524.42         28.7097
   524.56         28.5644
   524.70         28.3936
   524.84         28.2209
   524.98         28.0666
   525.12         27.9427
   525.26         27.8473
   525.40         27.7651
   525.54         27.6736
   525.68         27.5520
   525.82         27.3819
   525.96         27.1485
   526.10         26.8496
   526.24         26.4985
   526.38         26.1210
   526.52         25.7529
   526.66         25.4380
   526.80         25.2193
   526.94         25.1272
   527.08         25.1755
   527.22         25.3624
   527.36         25.6702
   527.50         26.0694
   527.64         26.5267
   527.78         27.0121
   527.92         27.5030
   528.06         27.9851
   528.20         28.4494
   528.34         28.8865
   528.48         29.2813
   528.62         29.6161
   528.76         29.8747
   528.90         30.0453
   529.04         30.1230
   529.18         30.1127
   529.32         30.0306
   529.46         29.8997
   529.60         29.7456
   529.74         29.5982
   529.88         29.4908
   530.02         29.4560
   530.16         29.5181
   530.30         29.6849
   530.44         29.9455
   530.58         30.2733
   530.72         30.6309
   530.86         30.9759
   531.00         31.2681
   531.14         31.4753
   531.28         31.5769
   531.42         31.5649
   531.56         31.4423
   531.70         31.2167
   531.84         30.8986
   531.98         30.5072
   532.12         30.0716
   532.26         29.6270
   532.40         29.2119
   532.54         28.8634
   532.68         28.6112
   532.82         28.4695
   532.96         28.4359
   533.10         28.4975
   533.24         28.6373
   533.38         28.8373
   533.52         29.0775
   533.66         29.3345
   533.80         29.5820
   533.94         29.7962
   534.08         29.9618
   534.22         30.0755
   534.36         30.1466
   534.50         30.1969
   534.64         30.2564
   534.78         30.3517
   534.92         30.4966
   535.06         30.6916
   535.20         30.9245
   535.34         31.1743
   535.48         31.4148
   535.62         31.6217
   535.76         31.7768
   535.90         31.8652
   536.04         31.8731
   536.18         31.7926
   536.32         31.6280
   536.46         31.4010
   536.60         31.1431
   536.74         30.8882
   536.88         30.6677
   537.02         30.5040
   537.16         30.4086
   537.30         30.3824
   537.44         30.4174
   537.58         30.5001
   537.72         30.6124
   537.86         30.7329
   538.00         30.8398
   538.14         30.9119
   538.28         30.9316
   538.42         30.8880
   538.56         30.7771
   538.70         30.6033
   538.84         30.3802
   538.98         30.1275
   539.12         29.8647
   539.26         29.6033
   539.40         29.3487
   539.54         29.1024
   539.68         28.8654
   539.82         28.6441
   539.96         28.4470
   540.10         28.2838
   540.24         28.1643
   540.38         28.0965
   540.52         28.0877
   540.66         28.1430
   540.80         28.2628
   540.94         28.4410
   541.08         28.6666
   541.22         28.9252
   541.36         29.2004
   541.50         29.4760
   541.64         29.7372
   541.78         29.9684
   541.92         30.1520
   542.06         30.2730
   542.20         30.3248
   542.34         30.3101
   542.48         30.2383
   542.62         30.1228
   542.76         29.9846
   542.90         29.8507
   543.04         29.7473
   543.18         29.6945
   543.32         29.7016
   543.46         29.7666
   543.60         29.8782
   543.74         30.0220
   543.88         30.1866
   544.02         30.3637
   544.16         30.5466
   544.30         30.7242
   544.44         30.8789
   544.58         30.9927
   544.72         31.0573
   544.86         31.0779
   545.00         31.0689
   545.14         31.0462
   545.28         31.0221
   545.42         31.0045
   545.56         30.9967
   545.70         30.9972
   545.84         31.0005
   545.98         30.9987
   546.12         30.9846
   546.26         30.9543
   546.40         30.9067
   546.54         30.8396
   546.68         30.7458
   546.82         30.6170
   546.96         30.4498
   547.10         30.2491
   547.24         30.0298
   547.38         29.8157
   547.52         29.6303
   547.66         29.4880
   547.80         29.3947
   547.94         29.3535
   548.08         29.3682
   548.22         29.4405
   548.36         29.5652
   548.50         29.7293
   548.64         29.9160
   548.78         30.1091
   548.92         30.2944
   549.06         30.4602
   549.20         30.5966
   549.34         30.6979
   549.48         30.7635
   549.62         30.7941
   549.76         30.7917
   549.90         30.7610
   550.04         30.7090
   550.18         30.6402
   550.32         30.5554
   550.46         30.4575
   550.60         30.3558
   550.74         30.2638
   550.88         30.1968
   551.02         30.1682
   551.16         30.1863
   551.30         30.2537
   551.44         30.3668
   551.58         30.5132
   551.72         30.6736
   551.86         30.8280
   552.00         30.9601
   552.14         31.0595
   552.28         31.1196
   552.42         31.1381
   552.56         31.1164
   552.70         31.0606
   552.84         30.9821
   552.98         30.8976
   553.12         30.8275
   553.26         30.7892
   553.40         30.7923
   553.54         30.8394
   553.68         30.9266
   553.82         31.0455
   553.96         31.1875
   554.10         31.3444
   554.24         31.5061
   554.38         31.6644
   554.52         31.8147
   554.66         31.9537
   554.80         32.0790
   554.94         32.1883
   555.08         32.2795
   555.22         32.3496
   555.36         32.3953
   555.50         32.4125
   555.64         32.3963
   555.78         32.3419
   555.92         32.2491
   556.06         32.1242
   556.20         31.9789
   556.34         31.8275
   556.48         31.6842
   556.62         31.5618
   556.76         31.4693
   556.90         31.4122
   557.04         31.3950
   557.18         31.4171
   557.32         31.4709
   557.46         31.5432
   557.60         31.6153
   557.74         31.6650
   557.88         31.6712
   558.02         31.6197
   558.16         31.5061
   558.30         31.3354
   558.44         31.1218
   558.58         30.8872
   558.72         30.6568
   558.86         30.4537
   559.00         30.2940
   559.14         30.1863
   559.28         30.1350
   559.42         30.1432
   559.56         30.2128
   559.70         30.3412
   559.84         30.5181
   559.98         30.7305
   560.12         30.9648
   560.26         31.2047
   560.40         31.4318
   560.54         31.6274
   560.68         31.7794
   560.82         31.8831
   560.96         31.9383
   561.10         31.9485
   561.24         31.9183
   561.38         31.8495
   561.52         31.7435
   561.66         31.6083
   561.80         31.4632
   561.94         31.3349
   562.08         31.2482
   562.22         31.2172
   562.36         31.2423
   562.50         31.3131
   562.64         31.4127
   562.78         31.5210
   562.92         31.6177
   563.06         31.6871
   563.20         31.7210
   563.34         31.7211
   563.48         31.6954
   563.62         31.6527
   563.76         31.6014
   563.90         31.5463
   564.04         31.4933
   564.18         31.4530
   564.32         31.4342
   564.46         31.4385
   564.60         31.4566
   564.74         31.4693
   564.88         31.4557
   565.02         31.4015
   565.16         31.3011
   565.30         31.1587
   565.44         30.9880
   565.58         30.8075
   565.72         30.6352
   565.86         30.4882
   566.00         30.3839
   566.14         30.3384
   566.28         30.3619
   566.42         30.4567
   566.56         30.6189
   566.70         30.8398
   566.84         31.1019
   566.98         31.3803
   567.12         31.6511
   567.26         31.8933
   567.40         32.0914
   567.54         32.2373
   567.68         32.3278
   567.82         32.3633
   567.96         32.3490
   568.10         32.2950
   568.24         32.2138
   568.38         32.1199
   568.52         32.0290
   568.66         31.9550
   568.80         31.9060
   568.94         31.8809
   569.08         31.8713
   569.22         31.8658
   569.36         31.8520
   569.50         31.8171
   569.64         31.7509
   569.78         31.6462
   569.92         31.4984
   570.06         31.3085
   570.20         31.0871
   570.34         30.8563
   570.48         30.6450
   570.62         30.4818
   570.76         30.3898
   570.90         30.3849
   571.04         30.4747
   571.18         30.6586
   571.32         30.9269
   571.46         31.2622
   571.60         31.6421
   571.74         32.0415
   571.88         32.4350
   572.02         32.7992
   572.16         33.1148
   572.30         33.3698
   572.44         33.5600
   572.58         33.6888
   572.72         33.7648
   572.86         33.7999
   573.00         33.8058
   573.14         33.7916
   573.28         33.7630
   573.42         33.7251
   573.56         33.6814
   573.70         33.6330
   573.84         33.5790
   573.98         33.5173
   574.12         33.4442
   574.26         33.3552
   574.40         33.2478
   574.54         33.1271
   574.68         33.0047
   574.82         32.8922
   574.96         32.7963
   575.10         32.7188
   575.24         32.6613
   575.38         32.6288
   575.52         32.6288
   575.66         32.6666
   575.80         32.7416
   575.94         32.8468
   576.08         32.9704
   576.22         33.0991
   576.36         33.2211
   576.50         33.3266
   576.64         33.4074
   576.78         33.4549
   576.92         33.4605
   577.06         33.4162
   577.20         33.3166
   577.34         33.1591
   577.48         32.9452
   577.62         32.6844
   577.76         32.3968
   577.90         32.1082
   578.04         31.8434
   578.18         31.6220
   578.32         31.4582
   578.46         31.3623
   578.60         31.3384
   578.74         31.3839
   578.88         31.4947
   579.02         31.6653
   579.16         31.8857
   579.30         32.1365
   579.44         32.3911
   579.58         32.6252
   579.72         32.8231
   579.86         32.9796
   580.00         33.0974
   580.14         33.1827
   580.28         33.2428
   580.42         33.2833
   580.56         33.3084
   580.70         33.3269
   580.84         33.3509
   580.98         33.3901
   581.12         33.4502
   581.26         33.5334
   581.40         33.6410
   581.54         33.7723
   581.68         33.9209
   581.82         34.0729
   581.96         34.2123
   582.10         34.3305
   582.24         34.4254
   582.38         34.4968
   582.52         34.5468
   582.66         34.5795
   582.80         34.5989
   582.94         34.6094
   583.08         34.6167
   583.22         34.6270
   583.36         34.6452
   583.50         34.6710
   583.64         34.6988
   583.78         34.7208
   583.92         34.7320
   584.06         34.7275
   584.20         34.7006
   584.34         34.6435
   584.48         34.5508
   584.62         34.4202
   584.76         34.2538
   584.90         34.0600
   585.04         33.8538
   585.18         33.6527
   585.32         33.4724
   585.46         33.3247
   585.60         33.2187
   585.74         33.1604
   585.88         33.1526
   586.02         33.1975
   586.16         33.2942
   586.30         33.4362
   586.44         33.6150
   586.58         33.8216
   586.72         34.0411
   586.86         34.2539
   587.00         34.4407
   587.14         34.5861
   587.28         34.6807
   587.42         34.7226
   587.56         34.7108
   587.70         34.6347
   587.84         34.4717
   587.98         34.1970
   588.12         33.8016
   588.26         33.2954
   588.40         32.6967
   588.54         32.0285
   588.68         31.3224
   588.82         30.6213
   588.96         29.9757
   589.10         29.4379
   589.24         29.0533
   589.38         28.8507
   589.52         28.8410
   589.66         29.0205
   589.80         29.3709
   589.94         29.8597
   590.08         30.4422
   590.22         31.0605
   590.36         31.6527
   590.50         32.1691
   590.64         32.5834
   590.78         32.8912
   590.92         33.0960
   591.06         33.2061
   591.20         33.2411
   591.34         33.2326
   591.48         33.2124
   591.62         33.2007
   591.76         33.2040
   591.90         33.2190
   592.04         33.2385
   592.18         33.2563
   592.32         33.2674
   592.46         33.2664
   592.60         33.2517
   592.74         33.2254
   592.88         33.1890
   593.02         33.1427
   593.16         33.0888
   593.30         33.0315
   593.44         32.9756
   593.58         32.9228
   593.72         32.8692
   593.86         32.8080
   594.00         32.7329
   594.14         32.6390
   594.28         32.5239
   594.42         32.3897
   594.56         32.2436
   594.70         32.0971
   594.84         31.9635
   594.98         31.8576
   595.12         31.7952
   595.26         31.7897
   595.40         31.8461
   595.54         31.9605
   595.68         32.1248
   595.82         32.3319
   595.96         32.5740
   596.10         32.8392
   596.24         33.1101
   596.38         33.3654
   596.52         33.5851
   596.66         33.7549
   596.80         33.8673
   596.94         33.9201
   597.08         33.9147
   597.22         33.8552
   597.36         33.7486
   597.50         33.6067
   597.64         33.4421
   597.78         33.2632
   597.92         33.0750
   598.06         32.8832
   598.20         32.6974
   598.34         32.5285
   598.48         32.3844
   598.62         32.2652
   598.76         32.1661
   598.90         32.0830
   599.04         32.0142
   599.18         31.9602
   599.32         31.9224
   599.46         31.8993
   599.60         31.8833
   599.74         31.8646
   599.88         31.8368
   600.02         31.7994
   600.16         31.7539
   600.30         31.7009
   600.44         31.6412
   600.58         31.5783
   600.72         31.5168
   600.86         31.4583
   601.00         31.4004
   601.14         31.3399
   601.28         31.2762
   601.42         31.2149
   601.56         31.1645
   601.70         31.1316
   601.84         31.1181
   601.98         31.1254
   602.12         31.1570
   602.26         31.2182
   602.40         31.3141
   602.54         31.4455
   602.68         31.6058
   602.82         31.7806
   602.96         31.9505
   603.10         32.0977
   603.24         32.2088
   603.38         32.2770
   603.52         32.3022
   603.66         32.2902
   603.80         32.2548
   603.94         32.2146
   604.08         32.1842
   604.22         32.1698
   604.36         32.1703
   604.50         32.1819
   604.64         32.2014
   604.78         32.2261
   604.92         32.2512
   605.06         32.2676
   605.20         32.2634
   605.34         32.2274
   605.48         32.1541
   605.62         32.0488
   605.76         31.9281
   605.90         31.8141
   606.04         31.7281
   606.18         31.6871
   606.32         31.7009
   606.46         31.7720
   606.60         31.8897
   606.74         32.0315
   606.88         32.1734
   607.02         32.2959
   607.16         32.3845
   607.30         32.4265
   607.44         32.4113
   607.58         32.3332
   607.72         32.1920
   607.86         31.9947
   608.00         31.7544
   608.14         31.4894
   608.28         31.2217
   608.42         30.9752
   608.56         30.7697
   608.70         30.6175
   608.84         30.5236
   608.98         30.4840
   609.12         30.4837
   609.26         30.5050
   609.40         30.5364
   609.54         30.5738
   609.68         30.6164
   609.82         30.6628
   609.96         30.7116
   610.10         30.7635
   610.24         30.8207
   610.38         30.8860
   610.52         30.9615
   610.66         31.0488
   610.80         31.1495
   610.94         31.2613
   611.08         31.3724
   611.22         31.4650
   611.36         31.5233
   611.50         31.5343
   611.64         31.4880
   611.78         31.3825
   611.92         31.2305
   612.06         31.0536
   612.20         30.8738
   612.34         30.7078
   612.48         30.5628
   612.62         30.4380
   612.76         30.3329
   612.90         30.2502
   613.04         30.1912
   613.18         30.1538
   613.32         30.1351
   613.46         30.1330
   613.60         30.1471
   613.74         30.1789
   613.88         30.2317
   614.02         30.3089
   614.16         30.4119
   614.30         30.5416
   614.44         30.6977
   614.58         30.8752
   614.72         31.0637
   614.86         31.2478
   615.00         31.4048
   615.14         31.5096
   615.28         31.5461
   615.42         31.5148
   615.56         31.4256
   615.70         31.2876
   615.84         31.1089
   615.98         30.9022
   616.12         30.6854
   616.26         30.4781
   616.40         30.2971
   616.54         30.1569
   616.68         30.0702
   616.82         30.0448
   616.96         30.0817
   617.10         30.1762
   617.24         30.3190
   617.38         30.4970
   617.52         30.6922
   617.66         30.8834
   617.80         31.0521
   617.94         31.1849
   618.08         31.2712
   618.22         31.3028
   618.36         31.2783
   618.50         31.2086
   618.64         31.1150
   618.78         31.0188
   618.92         30.9336
   619.06         30.8690
   619.20         30.8353
   619.34         30.8420
   619.48         30.8938
   619.62         30.9897
   619.76         31.1243
   619.90         31.2875
   620.04         31.4643
   620.18         31.6346
   620.32         31.7737
   620.46         31.8611
   620.60         31.8847
   620.74         31.8429
   620.88         31.7445
   621.02         31.6035
   621.16         31.4358
   621.30         31.2560
   621.44         31.0771
   621.58         30.9125
   621.72         30.7758
   621.86         30.6749
   622.00         30.6081
   622.14         30.5686
   622.28         30.5512
   622.42         30.5527
   622.56         30.5673
   622.70         30.5849
   622.84         30.5929
   622.98         30.5830
   623.12         30.5552
   623.26         30.5132
   623.40         30.4607
   623.54         30.4015
   623.68         30.3416
   623.82         30.2897
   623.96         30.2531
   624.10         30.2315
   624.24         30.2185
   624.38         30.2053
   624.52         30.1836
   624.66         30.1482
   624.80         30.1006
   624.94         30.0472
   625.08         29.9942
   625.22         29.9439
   625.36         29.8975
   625.50         29.8596
   625.64         29.8386
   625.78         29.8416
   625.92         29.8718
   626.06         29.9294
   626.20         30.0141
   626.34         30.1242
   626.48         30.2519
   626.62         30.3807
   626.76         30.4905
   626.90         30.5652
   627.04         30.5964
   627.18         30.5848
   627.32         30.5386
   627.46         30.4708
   627.60         30.3958
   627.74         30.3265
   627.88         30.2727
   628.02         30.2392
   628.16         30.2279
   628.30         30.2389
   628.44         30.2698
   628.58         30.3161
   628.72         30.3703
   628.86         30.4234
   629.00         30.4624
   629.14         30.4737
   629.28         30.4498
   629.42         30.3926
   629.56         30.3126
   629.70         30.2263
   629.84         30.1513
   629.98         30.0998
   630.12         30.0784
   630.26         30.0863
   630.40         30.1156
   630.54         30.1527
   630.68         30.1833
   630.82         30.1969
   630.96         30.1864
   631.10         30.1475
   631.24         30.0802
   631.38         29.9915
   631.52         29.8951
   631.66         29.8082
   631.80         29.7503
   631.94         29.7391
   632.08         29.7849
   632.22         29.8887
   632.36         30.0376
   632.50         30.2062
   632.64         30.3663
   632.78         30.4969
   632.92         30.5850
   633.06         30.6247
   633.20         30.6166
   633.34         30.5666
   633.48         30.4867
   633.62         30.3954
   633.76         30.3141
   633.90         30.2624
   634.04         30.2547
   634.18         30.2986
   634.32         30.3935
   634.46         30.5290
   634.60         30.6862
   634.74         30.8427
   634.88         30.9752
   635.02         31.0622
   635.16         31.0924
   635.30         31.0686
   635.44         31.0022
   635.58         30.9061
   635.72         30.7926
   635.86         30.6741
   636.00         30.5658
   636.14         30.4847
   636.28         30.4445
   636.42         30.4510
   636.56         30.5017
   636.70         30.5891
   636.84         30.7018
   636.98         30.8253
   637.12         30.9456
   637.26         31.0543
   637.40         31.1493
   637.54         31.2327
   637.68         31.3090
   637.82         31.3837
   637.96         31.4600
   638.10         31.5345
   638.24         31.5969
   638.38         31.6360
   638.52         31.6472
   638.66         31.6317
   638.80         31.5918
   638.94         31.5273
   639.08         31.4385
   639.22         31.3309
   639.36         31.2132
   639.50         31.0941
   639.64         30.9835
   639.78         30.8938
   639.92         30.8361
   640.06         30.8150
   640.20         30.8290
   640.34         30.8710
   640.48         30.9302
   640.62         30.9931
   640.76         31.0454
   640.90         31.0752
   641.04         31.0773
   641.18         31.0537
   641.32         31.0114
   641.46         30.9617
   641.60         30.9192
   641.74         30.8992
   641.88         30.9090
   642.02         30.9465
   642.16         31.0066
   642.30         31.0859
   642.44         31.1811
   642.58         31.2836
   642.72         31.3809
   642.86         31.4623
   643.00         31.5195
   643.14         31.5485
   643.28         31.5508
   643.42         31.5343
   643.56         31.5107
   643.70         31.4902
   643.84         31.4754
   643.98         31.4615
   644.12         31.4405
   644.26         31.4038
   644.40         31.3443
   644.54         31.2595
   644.68         31.1568
   644.82         31.0518
   644.96         30.9602
   645.10         30.8892
   645.24         30.8378
   645.38         30.8060
   645.52         30.7972
   645.66         30.8132
   645.80         30.8505
   645.94         30.9014
   646.08         30.9558
   646.22         31.0029
   646.36         31.0341
   646.50         31.0478
   646.64         31.0529
   646.78         31.0630
   646.92         31.0868
   647.06         31.1262
   647.20         31.1772
   647.34         31.2346
   647.48         31.2944
   647.62         31.3514
   647.76         31.4006
   647.90         31.4414
   648.04         31.4756
   648.18         31.4969
   648.32         31.4890
   648.46         31.4326
   648.60         31.3162
   648.74         31.1401
   648.88         30.9134
   649.02         30.6522
   649.16         30.3788
   649.30         30.1188
   649.44         29.8986
   649.58         29.7423
   649.72         29.6702
   649.86         29.6979
   650.00         29.8350
   650.14         30.0793
   650.28         30.4125
   650.42         30.8043
   650.56         31.2189
   650.70         31.6180
   650.84         31.9674
   650.98         32.2469
   651.12         32.4542
   651.26         32.5996
   651.40         32.6959
   651.54         32.7537
   651.68         32.7821
   651.82         32.7901
   651.96         32.7859
   652.10         32.7770
   652.24         32.7688
   652.38         32.7657
   652.52         32.7705
   652.66         32.7842
   652.80         32.8071
   652.94         32.8392
   653.08         32.8815
   653.22         32.9348
   653.36         32.9974
   653.50         33.0637
   653.64         33.1246
   653.78         33.1705
   653.92         33.1913
   654.06         33.1794
   654.20         33.1317
   654.34         33.0486
   654.48         32.9329
   654.62         32.7900
   654.76         32.6265
   654.90         32.4440
   655.04         32.2325
   655.18         31.9726
   655.32         31.6511
   655.46         31.2750
   655.60         30.8691
   655.74         30.4654
   655.88         30.0949
   656.02         29.7857
   656.16         29.5595
   656.30         29.4296
   656.44         29.4014
   656.58         29.4724
   656.72         29.6338
   656.86         29.8694
   657.00         30.1562
   657.14         30.4690
   657.28         30.7833
   657.42         31.0753
   657.56         31.3266
   657.70         31.5314
   657.84         31.7013
   657.98         31.8591
   658.12         32.0195
   658.26         32.1778
   658.40         32.3179
   658.54         32.4231
   658.68         32.4821
   658.82         32.4903
   658.96         32.4504
   659.10         32.3738
   659.24         32.2755
   659.38         32.1694
   659.52         32.0647
   659.66         31.9657
   659.80         31.8746
   659.94         31.7938
   660.08         31.7249
   660.22         31.6669
   660.36         31.6158
   660.50         31.5656
   660.64         31.5102
   660.78         31.4476
   660.92         31.3856
   661.06         31.3380
   661.20         31.3176
   661.34         31.3317
   661.48         31.3808
   661.62         31.4580
   661.76         31.5514
   661.90         31.6473
   662.04         31.7307
   662.18         31.7847
   662.32         31.7951
   662.46         31.7580
   662.60         31.6803
   662.74         31.5730
   662.88         31.4494
   663.02         31.3236
   663.16         31.2091
   663.30         31.1165
   663.44         31.0536
   663.58         31.0251
   663.72         31.0317
   663.86         31.0688
   664.00         31.1282
   664.14         31.1996
   664.28         31.2738
   664.42         31.3427
   664.56         31.3978
   664.70         31.4327
   664.84         31.4462
   664.98         31.4416
   665.12         31.4234
   665.26         31.3906
   665.40         31.3388
   665.54         31.2662
   665.68         31.1745
   665.82         31.0716
   665.96         30.9697
   666.10         30.8802
   666.24         30.8115
   666.38         30.7669
   666.52         30.7447
   666.66         30.7381
   666.80         30.7392
   666.94         30.7443
   667.08         30.7537
   667.22         30.7687
   667.36         30.7921
   667.50         30.8257
   667.64         30.8689
   667.78         30.9208
   667.92         30.9834
   668.06         31.0613
   668.20         31.1582
   668.34         31.2731
   668.48         31.4002
   668.62         31.5285
   668.76         31.6447
   668.90         31.7391
   669.04         31.8063
   669.18         31.8425
   669.32         31.8469
   669.46         31.8242
   669.60         31.7818
   669.74         31.7250
   669.88         31.6554
   670.02         31.5739
   670.16         31.4819
   670.30         31.3805
   670.44         31.2699
   670.58         31.1491
   670.72         31.0163
   670.86         30.8736
   671.00         30.7291
   671.14         30.5937
   671.28         30.4810
   671.42         30.4032
   671.56         30.3681
   671.70         30.3780
   671.84         30.4312
   671.98         30.5238
   672.12         30.6486
   672.26         30.7953
   672.40         30.9507
   672.54         31.1005
   672.68         31.2307
   672.82         31.3284
   672.96         31.3828
   673.10         31.3876
   673.24         31.3444
   673.38         31.2630
   673.52         31.1576
   673.66         31.0418
   673.80         30.9249
   673.94         30.8126
   674.08         30.7080
   674.22         30.6145
   674.36         30.5372
   674.50         30.4817
   674.64         30.4508
   674.78         30.4468
   674.92         30.4718
   675.06         30.5262
   675.20         30.6095
   675.34         30.7186
   675.48         30.8457
   675.62         30.9805
   675.76         31.1120
   675.90         31.2298
   676.04         31.3231
   676.18         31.3813
   676.32         31.3975
   676.46         31.3708
   676.60         31.3058
   676.74         31.2133
   676.88         31.1079
   677.02         31.0045
   677.16         30.9158
   677.30         30.8504
   677.44         30.8130
   677.58         30.8047
   677.72         30.8238
   677.86         30.8673
   678.00         30.9277
   678.14         30.9939
   678.28         31.0566
   678.42         31.1096
   678.56         31.1502
   678.70         31.1785
   678.84         31.1965
   678.98         31.2078
   679.12         31.2153
   679.26         31.2194
   679.40         31.2193
   679.54         31.2149
   679.68         31.2070
   679.82         31.1970
   679.96         31.1871
   680.10         31.1788
   680.24         31.1719
   680.38         31.1653
   680.52         31.1575
   680.66         31.1464
   680.80         31.1313
   680.94         31.1138
   681.08         31.0962
   681.22         31.0817
   681.36         31.0736
   681.50         31.0726
   681.64         31.0775
   681.78         31.0847
   681.92         31.0918
   682.06         31.0993
   682.20         31.1075
   682.34         31.1136
   682.48         31.1128
   682.62         31.0995
   682.76         31.0668
   682.90         31.0070
   683.04         30.9148
   683.18         30.7887
   683.32         30.6319
   683.46         30.4519
   683.60         30.2579
   683.74         30.0610
   683.88         29.8752
   684.02         29.7135
   684.16         29.5853
   684.30         29.4970
   684.44         29.4508
   684.58         29.4452
   684.72         29.4732
   684.86         29.5240
   685.00         29.5863
   685.14         29.6490
   685.28         29.7005
   685.42         29.7252
   685.56         29.6988
   685.70         29.5902
   685.84         29.3740
   685.98         29.0375
   686.12         28.5801
   686.26         28.0143
   686.40         27.3678
   686.54         26.6810
   686.68         26.0006
   686.82         25.3759
   686.96         24.8544
   687.10         24.4741
   687.24         24.2588
   687.38         24.2149
   687.52         24.3320
   687.66         24.5826
   687.80         24.9272
   687.94         25.3200
   688.08         25.7119
   688.22         26.0588
   688.36         26.3351
   688.50         26.5361
   688.64         26.6717
   688.78         26.7574
   688.92         26.8110
   689.06         26.8504
   689.20         26.8916
   689.34         26.9454
   689.48         27.0168
   689.62         27.1052
   689.76         27.2052
   689.90         27.3100
   690.04         27.4162
   690.18         27.5233
   690.32         27.6308
   690.46         27.7368
   690.60         27.8385
   690.74         27.9339
   690.88         28.0250
   691.02         28.1159
   691.16         28.2094
   691.30         28.3085
   691.44         28.4136
   691.58         28.5227
   691.72         28.6324
   691.86         28.7372
   692.00         28.8304
   692.14         28.9046
   692.28         28.9534
   692.42         28.9741
   692.56         28.9699
   692.70         28.9464
   692.84         28.9094
   692.98         28.8660
   693.12         28.8250
   693.26         28.7943
   693.40         28.7765
   693.54         28.7691
   693.68         28.7651
   693.82         28.7582
   693.96         28.7443
   694.10         28.7218
   694.24         28.6921
   694.38         28.6604
   694.52         28.6343
   694.66         28.6236
   694.80         28.6360
   694.94         28.6768
   695.08         28.7476
   695.22         28.8445
   695.36         28.9575
   695.50         29.0756
   695.64         29.1898
   695.78         29.2922
   695.92         29.3758
   696.06         29.4389
   696.20         29.4846
   696.34         29.5180
   696.48         29.5401
   696.62         29.5456
   696.76         29.5262
   696.90         29.4760
   697.04         29.3946
   697.18         29.2877
   697.32         29.1646
   697.46         29.0353
   697.60         28.9100
   697.74         28.7990
   697.88         28.7116
   698.02         28.6558
   698.16         28.6383
   698.30         28.6612
   698.44         28.7197
   698.58         28.8046
   698.72         28.9009
   698.86         28.9883
   699.00         29.0475
   699.14         29.0647
   699.28         29.0341
   699.42         28.9597
   699.56         28.8529
   699.70         28.7299
   699.84         28.6067
   699.98         28.4962
   700.12         28.4073
   700.26         28.3434
   700.40         28.3019
   700.54         28.2748
   700.68         28.2547
   700.82         28.2372
   700.96         28.2192
   701.10         28.1980
   701.24         28.1704
   701.38         28.1352
   701.52         28.0985
   701.66         28.0713
   701.80         28.0638
   701.94         28.0845
   702.08         28.1405
   702.22         28.2369
   702.36         28.3746
   702.50         28.5470
   702.64         28.7395
   702.78         28.9327
   702.92         29.1114
   703.06         29.2684
   703.20         29.4025
   703.34         29.5168
   703.48         29.6149
   703.62         29.6990
   703.76         29.7711
   703.90         29.8340
   704.04         29.8907
   704.18         29.9411
   704.32         29.9839
   704.46         30.0184
   704.60         30.0443
   704.74         30.0609
   704.88         30.0651
   705.02         30.0550
   705.16         30.0307
   705.30         29.9940
   705.44         29.9496
   705.58         29.9027
   705.72         29.8554
   705.86         29.8098
   706.00         29.7718
   706.14         29.7476
   706.28         29.7396
   706.42         29.7482
   706.56         29.7742
   706.70         29.8177
   706.84         29.8790
   706.98         29.9569
   707.12         30.0427
   707.26         30.1205
   707.40         30.1774
   707.54         30.2075
   707.68         30.2115
   707.82         30.1916
   707.96         30.1480
   708.10         30.0816
   708.24         29.9947
   708.38         29.8926
   708.52         29.7818
   708.66         29.6661
   708.80         29.5476
   708.94         29.4295
   709.08         29.3185
   709.22         29.2219
   709.36         29.1456
   709.50         29.0910
   709.64         29.0553
   709.78         29.0346
   709.92         29.0267
   710.06         29.0307
   710.20         29.0433
   710.34         29.0584
   710.48         29.0690
   710.62         29.0705
   710.76         29.0627
   710.90         29.0475
   711.04         29.0278
   711.18         29.0094
   711.32         28.9994
   711.46         29.0025
   711.60         29.0189
   711.74         29.0417
   711.88         29.0599
   712.02         29.0637
   712.16         29.0478
   712.30         29.0136
   712.44         28.9687
   712.58         28.9240
   712.72         28.8909
   712.86         28.8790
   713.00         28.8937
   713.14         28.9349
   713.28         28.9974
   713.42         29.0727
   713.56         29.1513
   713.70         29.2239
   713.84         29.2820
   713.98         29.3180
   714.12         29.3281
   714.26         29.3138
   714.40         29.2793
   714.54         29.2354
   714.68         29.1975
   714.82         29.1758
   714.96         29.1727
   715.10         29.1843
   715.24         29.2002
   715.38         29.2044
   715.52         29.1836
   715.66         29.1338
   715.80         29.0569
   715.94         28.9561
   716.08         28.8374
   716.22         28.7099
   716.36         28.5835
   716.50         28.4678
   716.64         28.3707
   716.78         28.2949
   716.92         28.2340
   717.06         28.1777
   717.20         28.1167
   717.34         28.0403
   717.48         27.9352
   717.62         27.7920
   717.76         27.6080
   717.90         27.3869
   718.04         27.1387
   718.18         26.8811
   718.32         26.6362
   718.46         26.4230
   718.60         26.2552
   718.74         26.1421
   718.88         26.0877
   719.02         26.0900
   719.16         26.1426
   719.30         26.2368
   719.44         26.3585
   719.58         26.4904
   719.72         26.6171
   719.86         26.7303
   720.00         26.8303
   720.14         26.9246
   720.28         27.0233
   720.42         27.1346
   720.56         27.2661
   720.70         27.4239
   720.84         27.6117
   720.98         27.8278
   721.12         28.0618
   721.26         28.2963
   721.40         28.5156
   721.54         28.7088
   721.68         28.8672
   721.82         28.9852
   721.96         29.0604
   722.10         29.0925
   722.24         29.0848
   722.38         29.0485
   722.52         28.9997
   722.66         28.9500
   722.80         28.9009
   722.94         28.8488
   723.08         28.7921
   723.22         28.7308
   723.36         28.6628
   723.50         28.5856
   723.64         28.5005
   723.78         28.4109
   723.92         28.3175
   724.06         28.2190
   724.20         28.1135
   724.34         28.0026
   724.48         27.8936
   724.62         27.7956
   724.76         27.7164
   724.90         27.6608
   725.04         27.6292
   725.18         27.6170
   725.32         27.6158
   725.46         27.6193
   725.60         27.6280
   725.74         27.6455
   725.88         27.6733
   726.02         27.7089
   726.16         27.7466
   726.30         27.7776
   726.44         27.7881
   726.58         27.7656
   726.72         27.7087
   726.86         27.6258
   727.00         27.5270
   727.14         27.4173
   727.28         27.2967
   727.42         27.1652
   727.56         27.0244
   727.70         26.8768
   727.84         26.7258
   727.98         26.5750
   728.12         26.4285
   728.26         26.2910
   728.40         26.1673
   728.54         26.0624
   728.68         25.9830
   728.82         25.9368
   728.96         25.9287
   729.10         25.9584
   729.24         26.0226
   729.38         26.1156
   729.52         26.2266
   729.66         26.3415
   729.80         26.4476
   729.94         26.5374
   730.08         26.6069
   730.22         26.6517
   730.36         26.6677
   730.50         26.6565
   730.64         26.6269
   730.78         26.5926
   730.92         26.5675
   731.06         26.5614
   731.20         26.5774
   731.34         26.6120
   731.48         26.6553
   731.62         26.6965
   731.76         26.7285
   731.90         26.7504
   732.04         26.7648
   732.18         26.7731
   732.32         26.7762
   732.46         26.7785
   732.60         26.7878
   732.74         26.8128
   732.88         26.8591
   733.02         26.9258
   733.16         27.0082
   733.30         27.0994
   733.44         27.1914
   733.58         27.2757
   733.72         27.3446
   733.86         27.3917
   734.00         27.4119
   734.14         27.4023
   734.28         27.3618
   734.42         27.2903
   734.56         27.1877
   734.70         27.0565
   734.84         26.9041
   734.98         26.7423
   735.12         26.5819
   735.26         26.4281
   735.40         26.2818
   735.54         26.1411
   735.68         26.0065
   735.82         25.8831
   735.96         25.7774
   736.10         25.6956
   736.24         25.6437
   736.38         25.6266
   736.52         25.6460
   736.66         25.6985
   736.80         25.7776
   736.94         25.8755
   737.08         25.9822
   737.22         26.0888
   737.36         26.1868
   737.50         26.2645
   737.64         26.3073
   737.78         26.3026
   737.92         26.2464
   738.06         26.1445
   738.20         26.0086
   738.34         25.8522
   738.48         25.6918
   738.62         25.5461
   738.76         25.4349
   738.90         25.3746
   739.04         25.3744
   739.18         25.4356
   739.32         25.5525
   739.46         25.7139
   739.60         25.9025
   739.74         26.0950
   739.88         26.2686
   740.02         26.4036
   740.16         26.4858
   740.30         26.5105
   740.44         26.4833
   740.58         26.4175
   740.72         26.3293
   740.86         26.2332
   741.00         26.1433
   741.14         26.0734
   741.28         26.0337
   741.42         26.0272
   741.56         26.0508
   741.70         26.0973
   741.84         26.1570
   741.98         26.2200
   742.12         26.2778
   742.26         26.3232
   742.40         26.3515
   742.54         26.3639
   742.68         26.3665
   742.82         26.3656
   742.96         26.3656
   743.10         26.3665
   743.24         26.3639
   743.38         26.3515
   743.52         26.3232
   743.66         26.2778
   743.80         26.2200
   743.94         26.1570
   744.08         26.0973
   744.22         26.0508
