# File HD187299
# Wavelength [nm]    Normalized Amplitude
   349.70         55.7255
   349.84         55.5022
   349.98         55.3722
   350.12         55.2992
   350.26         55.2616
   350.40         55.2554
   350.54         55.2782
   350.68         55.3192
   350.82         55.3615
   350.96         55.3906
   351.10         55.4006
   351.24         55.3906
   351.38         55.3615
   351.52         55.3192
   351.66         55.2782
   351.80         55.2554
   351.94         55.2616
   352.08         55.2992
   352.22         55.3722
   352.36         55.5022
   352.50         55.7255
   352.64         56.0718
   352.78         56.5576
   352.92         57.1833
   353.06         57.9261
   353.20         58.7476
   353.34         59.6033
   353.48         60.4408
   353.62         61.1956
   353.76         61.7964
   353.90         62.1775
   354.04         62.2955
   354.18         62.1371
   354.32         61.7122
   354.46         61.0437
   354.60         60.1702
   354.74         59.1529
   354.88         58.0708
   355.02         57.0016
   355.16         55.9987
   355.30         55.0842
   355.44         54.2560
   355.58         53.4928
   355.72         52.7627
   355.86         52.0333
   356.00         51.2805
   356.14         50.4941
   356.28         49.6784
   356.42         48.8503
   356.56         48.0361
   356.70         47.2646
   356.84         46.5570
   356.98         45.9195
   357.12         45.3453
   357.26         44.8195
   357.40         44.3277
   357.54         43.8605
   357.68         43.4182
   357.82         43.0114
   357.96         42.6631
   358.10         42.4131
   358.24         42.3194
   358.38         42.4574
   358.52         42.9030
   358.66         43.7035
   358.80         44.8586
   358.94         46.3239
   359.08         48.0224
   359.22         49.8513
   359.36         51.6944
   359.50         53.4379
   359.64         54.9773
   359.78         56.2208
   359.92         57.0997
   360.06         57.5821
   360.20         57.6829
   360.34         57.4560
   360.48         56.9784
   360.62         56.3389
   360.76         55.6294
   360.90         54.9394
   361.04         54.3563
   361.18         53.9617
   361.32         53.8361
   361.46         54.0652
   361.60         54.7180
   361.74         55.8042
   361.88         57.2582
   362.02         58.9512
   362.16         60.7167
   362.30         62.3847
   362.44         63.8268
   362.58         64.9841
   362.72         65.8642
   362.86         66.5195
   363.00         67.0142
   363.14         67.4076
   363.28         67.7560
   363.42         68.1015
   363.56         68.4678
   363.70         68.8696
   363.84         69.3063
   363.98         69.7560
   364.12         70.1779
   364.26         70.5253
   364.40         70.7782
   364.54         70.9717
   364.68         71.1974
   364.82         71.5855
   364.96         72.2701
   365.10         73.3445
   365.24         74.8301
   365.38         76.6788
   365.52         78.7767
   365.66         80.9454
   365.80         82.9736
   365.94         84.6616
   366.08         85.8606
   366.22         86.5102
   366.36         86.6420
   366.50         86.3364
   366.64         85.6981
   366.78         84.8455
   366.92         83.8907
   367.06         82.9296
   367.20         82.0274
   367.34         81.2050
   367.48         80.4365
   367.62         79.6694
   367.76         78.8667
   367.90         78.0398
   368.04         77.2426
   368.18         76.5368
   368.32         75.9788
   368.46         75.6259
   368.60         75.5440
   368.74         75.8105
   368.88         76.4846
   369.02         77.5590
   369.16         78.9384
   369.30         80.4600
   369.44         81.9234
   369.58         83.1267
   369.72         83.9065
   369.86         84.1624
   370.00         83.8793
   370.14         83.1448
   370.28         82.1468
   370.42         81.1250
   370.56         80.2891
   370.70         79.7490
   370.84         79.4945
   370.98         79.4312
   371.12         79.4452
   371.26         79.4456
   371.40         79.3645
   371.54         79.1336
   371.68         78.6821
   371.82         77.9630
   371.96         76.9630
   372.10         75.6997
   372.24         74.2224
   372.38         72.6086
   372.52         70.9563
   372.66         69.3716
   372.80         67.9536
   372.94         66.7722
   373.08         65.8389
   373.22         65.1059
   373.36         64.5033
   373.50         63.9792
   373.64         63.5149
   373.78         63.1164
   373.92         62.7990
   374.06         62.5810
   374.20         62.4856
   374.34         62.5294
   374.48         62.6978
   374.62         62.9364
   374.76         63.1856
   374.90         63.4281
   375.04         63.6963
   375.18         64.0413
   375.32         64.4997
   375.46         65.0749
   375.60         65.7269
   375.74         66.3862
   375.88         66.9937
   376.02         67.5305
   376.16         68.0162
   376.30         68.5018
   376.44         69.0704
   376.58         69.8236
   376.72         70.8511
   376.86         72.2066
   377.00         73.8859
   377.14         75.8318
   377.28         77.9627
   377.42         80.1820
   377.56         82.3725
   377.70         84.3902
   377.84         86.0716
   377.98         87.2659
   378.12         87.8602
   378.26         87.7857
   378.40         87.0189
   378.54         85.5825
   378.68         83.5504
   378.82         81.0609
   378.96         78.3218
   379.10         75.5939
   379.24         73.1434
   379.38         71.1925
   379.52         69.8906
   379.66         69.3046
   379.80         69.4388
   379.94         70.2429
   380.08         71.5993
   380.22         73.3362
   380.36         75.2540
   380.50         77.1529
   380.64         78.8471
   380.78         80.1680
   380.92         80.9798
   381.06         81.1999
   381.20         80.8108
   381.34         79.8648
   381.48         78.4708
   381.62         76.7643
   381.76         74.8717
   381.90         72.8816
   382.04         70.8454
   382.18         68.8002
   382.32         66.7789
   382.46         64.8069
   382.60         62.8869
   382.74         61.0086
   382.88         59.1863
   383.02         57.4817
   383.16         55.9974
   383.30         54.8442
   383.44         54.1204
   383.58         53.8997
   383.72         54.2150
   383.86         55.0589
   384.00         56.3897
   384.14         58.1228
   384.28         60.1298
   384.42         62.2487
   384.56         64.3052
   384.70         66.1465
   384.84         67.6665
   384.98         68.8140
   385.12         69.5850
   385.26         70.0132
   385.40         70.1627
   385.54         70.1144
   385.68         69.9458
   385.82         69.7125
   385.96         69.4425
   386.10         69.1472
   386.24         68.8356
   386.38         68.5263
   386.52         68.2396
   386.66         67.9784
   386.80         67.7286
   386.94         67.4785
   387.08         67.2364
   387.22         67.0230
   387.36         66.8511
   387.50         66.7231
   387.64         66.6496
   387.78         66.6684
   387.92         66.8511
   388.06         67.2809
   388.20         68.0200
   388.34         69.1017
   388.48         70.5361
   388.62         72.3175
   388.76         74.4259
   388.90         76.8185
   389.04         79.4144
   389.18         82.0889
   389.32         84.6977
   389.46         87.1145
   389.60         89.2576
   389.74         91.0946
   389.88         92.6249
   390.02         93.8690
   390.16         94.8730
   390.30         95.6992
   390.44         96.3960
   390.58         96.9692
   390.72         97.3758
   390.86         97.5528
   391.00         97.4543
   391.14         97.0612
   391.28         96.3679
   391.42         95.3617
   391.56         94.0130
   391.70         92.2890
   391.84         90.1788
   391.98         87.7075
   392.12         84.9376
   392.26         81.9567
   392.40         78.8631
   392.54         75.7614
   392.68         72.7689
   392.82         70.0176
   392.96         67.6502
   393.10         65.8082
   393.24         64.6217
   393.38         64.1955
   393.52         64.5870
   393.66         65.7900
   393.80         67.7291
   393.94         70.2665
   394.08         73.2254
   394.22         76.4223
   394.36         79.6833
   394.50         82.8448
   394.64         85.7515
   394.78         88.2582
   394.92         90.2319
   395.06         91.5537
   395.20         92.1213
   395.34         91.8470
   395.48         90.6615
   395.62         88.5357
   395.76         85.5097
   395.90         81.7086
   396.04         77.3427
   396.18         72.6990
   396.32         68.1247
   396.46         63.9991
   396.60         60.6968
   396.74         58.5480
   396.88         57.7921
   397.02         58.5419
   397.16         60.7860
   397.30         64.4115
   397.44         69.2214
   397.58         74.9500
   397.72         81.2871
   397.86         87.9087
   398.00         94.5005
   398.14         100.7812
   398.28         106.5266
   398.42         111.5841
   398.56         115.8872
   398.70         119.4727
   398.84         122.4665
   398.98         125.0307
   399.12         127.3101
   399.26         129.3940
   399.40         131.3167
   399.54         133.0900
   399.68         134.7321
   399.82         136.2824
   399.96         137.7873
   400.10         139.2755
   400.24         140.7605
   400.38         142.2543
   400.52         143.7652
   400.66         145.2833
   400.80         146.7768
   400.94         148.2030
   401.08         149.5218
   401.22         150.7112
   401.36         151.7793
   401.50         152.7433
   401.64         153.5897
   401.78         154.2624
   401.92         154.6735
   402.06         154.7512
   402.20         154.4886
   402.34         153.9501
   402.48         153.2536
   402.62         152.5331
   402.76         151.8995
   402.90         151.4170
   403.04         151.0859
   403.18         150.8316
   403.32         150.5319
   403.46         150.0915
   403.60         149.4932
   403.74         148.7991
   403.88         148.1195
   404.02         147.5515
   404.16         147.1202
   404.30         146.7692
   404.44         146.4082
   404.58         145.9732
   404.72         145.4718
   404.86         144.9639
   405.00         144.4826
   405.14         143.9858
   405.28         143.3861
   405.42         142.6075
   405.56         141.6240
   405.70         140.4742
   405.84         139.2501
   405.98         138.0879
   406.12         137.1440
   406.26         136.5295
   406.40         136.2477
   406.54         136.1883
   406.68         136.2024
   406.82         136.1948
   406.96         136.1506
   407.10         136.1001
   407.24         136.0819
   407.38         136.1407
   407.52         136.3310
   407.66         136.7282
   407.80         137.4306
   407.94         138.5350
   408.08         140.0891
   408.22         142.0528
   408.36         144.2905
   408.50         146.5852
   408.64         148.6689
   408.78         150.2515
   408.92         151.0551
   409.06         150.8886
   409.20         149.7407
   409.34         147.7934
   409.48         145.3285
   409.62         142.6132
   409.76         139.8576
   409.90         137.2508
   410.04         134.9929
   410.18         133.2729
   410.32         132.2258
   410.46         131.8871
   410.60         132.1805
   410.74         132.9422
   410.88         133.9478
   411.02         134.9533
   411.16         135.7492
   411.30         136.1958
   411.44         136.2400
   411.58         135.9193
   411.72         135.3400
   411.86         134.6217
   412.00         133.8337
   412.14         132.9889
   412.28         132.1018
   412.42         131.2386
   412.56         130.5130
   412.70         130.0394
   412.84         129.8754
   412.98         129.9860
   413.12         130.2529
   413.26         130.5331
   413.40         130.7169
   413.54         130.7356
   413.68         130.5457
   413.82         130.1208
   413.96         129.4465
   414.10         128.5212
   414.24         127.3564
   414.38         125.9906
   414.52         124.5163
   414.66         123.0859
   414.80         121.8885
   414.94         121.1064
   415.08         120.8580
   415.22         121.1676
   415.36         121.9736
   415.50         123.1507
   415.64         124.5509
   415.78         126.0377
   415.92         127.4804
   416.06         128.7260
   416.20         129.6001
   416.34         129.9514
   416.48         129.6952
   416.62         128.8233
   416.76         127.4022
   416.90         125.5697
   417.04         123.5356
   417.18         121.5619
   417.32         119.9056
   417.46         118.7588
   417.60         118.2227
   417.74         118.3174
   417.88         119.0029
   418.02         120.1935
   418.16         121.7644
   418.30         123.5445
   418.44         125.3160
   418.58         126.8561
   418.72         127.9927
   418.86         128.6370
   419.00         128.7810
   419.14         128.4726
   419.28         127.8099
   419.42         126.9465
   419.56         126.0808
   419.70         125.4154
   419.84         125.1058
   419.98         125.2270
   420.12         125.7715
   420.26         126.6747
   420.40         127.8859
   420.54         129.4198
   420.68         131.3393
   420.82         133.7153
   420.96         136.5671
   421.10         139.8165
   421.24         143.2850
   421.38         146.7059
   421.52         149.7933
   421.66         152.3533
   421.80         154.3300
   421.94         155.7736
   422.08         156.7686
   422.22         157.3838
   422.36         157.6673
   422.50         157.6703
   422.64         157.4773
   422.78         157.2324
   422.92         157.1539
   423.06         157.5080
   423.20         158.5073
   423.34         160.2031
   423.48         162.4569
   423.62         164.9783
   423.76         167.4271
   423.90         169.5315
   424.04         171.1535
   424.18         172.2837
   424.32         172.9846
   424.46         173.3118
   424.60         173.2723
   424.74         172.8412
   424.88         172.0378
   425.02         170.9948
   425.16         169.9638
   425.30         169.2641
   425.44         169.1835
   425.58         169.8762
   425.72         171.2911
   425.86         173.1594
   426.00         175.0728
   426.14         176.6191
   426.28         177.5008
   426.42         177.6067
   426.56         177.0015
   426.70         175.8461
   426.84         174.3259
   426.98         172.6358
   427.12         170.9723
   427.26         169.5024
   427.40         168.3508
   427.54         167.6062
   427.68         167.2753
   427.82         167.2443
   427.96         167.3072
   428.10         167.2218
   428.24         166.7757
   428.38         165.8272
   428.52         164.3261
   428.66         162.3191
   428.80         159.9145
   428.94         157.2381
   429.08         154.4028
   429.22         151.4715
   429.36         148.4542
   429.50         145.3442
   429.64         142.1585
   429.78         138.9670
   429.92         135.9038
   430.06         133.1669
   430.20         131.0181
   430.34         129.7907
   430.48         129.8868
   430.62         131.6931
   430.76         135.4311
   430.90         141.0512
   431.04         148.2131
   431.18         156.3423
   431.32         164.7427
   431.46         172.7635
   431.60         179.9431
   431.74         186.0165
   431.88         190.8584
   432.02         194.4729
   432.16         197.0084
   432.30         198.7299
   432.44         199.9187
   432.58         200.7498
   432.72         201.2508
   432.86         201.3827
   433.00         201.1223
   433.14         200.4660
   433.28         199.4099
   433.42         197.9630
   433.56         196.1975
   433.70         194.2810
   433.84         192.4453
   433.98         190.9442
   434.12         190.0501
   434.26         190.0132
   434.40         190.9717
   434.54         192.9070
   434.68         195.6523
   434.82         198.9432
   434.96         202.4794
   435.10         205.9968
   435.24         209.3411
   435.38         212.4926
   435.52         215.5184
   435.66         218.4675
   435.80         221.3140
   435.94         223.9480
   436.08         226.1649
   436.22         227.6910
   436.36         228.2663
   436.50         227.7662
   436.64         226.2807
   436.78         224.0735
   436.92         221.4244
   437.06         218.4874
   437.20         215.2876
   437.34         211.8337
   437.48         208.2099
   437.62         204.5516
   437.76         200.9666
   437.90         197.5108
   438.04         194.2199
   438.18         191.1584
   438.32         188.4623
   438.46         186.3367
   438.60         184.9673
   438.74         184.4442
   438.88         184.7924
   439.02         186.0157
   439.16         188.0225
   439.30         190.5263
   439.44         193.0824
   439.58         195.2215
   439.72         196.6250
   439.86         197.2499
   440.00         197.2894
   440.14         197.0150
   440.28         196.6368
   440.42         196.2915
   440.56         196.1064
   440.70         196.2059
   440.84         196.6798
   440.98         197.5445
   441.12         198.7328
   441.26         200.1175
   441.40         201.5583
   441.54         202.9354
   441.68         204.1363
   441.82         205.0453
   441.96         205.5948
   442.10         205.7988
   442.24         205.7163
   442.38         205.4445
   442.52         205.1148
   442.66         204.8449
   442.80         204.6833
   442.94         204.5980
   443.08         204.5455
   443.22         204.5311
   443.36         204.6112
   443.50         204.8717
   443.64         205.3859
   443.78         206.2031
   443.92         207.3373
   444.06         208.7364
   444.20         210.2657
   444.34         211.7328
   444.48         212.9405
   444.62         213.7162
   444.76         213.9162
   444.90         213.4524
   445.04         212.3468
   445.18         210.7226
   445.32         208.7233
   445.46         206.4576
   445.60         204.0354
   445.74         201.6510
   445.88         199.6003
   446.02         198.2216
   446.16         197.8223
   446.30         198.6190
   446.44         200.7130
   446.58         204.0780
   446.72         208.5181
   446.86         213.6643
   447.00         219.0876
   447.14         224.4265
   447.28         229.4290
   447.42         233.9346
   447.56         237.8164
   447.70         240.9424
   447.84         243.1845
   447.98         244.4583
   448.12         244.7446
   448.26         244.0934
   448.40         242.6607
   448.54         240.7276
   448.68         238.6534
   448.82         236.7742
   448.96         235.3550
   449.10         234.6353
   449.24         234.8431
   449.38         236.1367
   449.52         238.5827
   449.66         242.1882
   449.80         246.8672
   449.94         252.3611
   450.08         258.2124
   450.22         263.8362
   450.36         268.6814
   450.50         272.3501
   450.64         274.6224
   450.78         275.4480
   450.92         274.9389
   451.06         273.3389
   451.20         270.9449
   451.34         268.0206
   451.48         264.7463
   451.62         261.2455
   451.76         257.6108
   451.90         253.8762
   452.04         250.0179
   452.18         246.0117
   452.32         241.9197
   452.46         237.9196
   452.60         234.2476
   452.74         231.1294
   452.88         228.7557
   453.02         227.2876
   453.16         226.8268
   453.30         227.3718
   453.44         228.7986
   453.58         230.8425
   453.72         233.1387
   453.86         235.3281
   454.00         237.1146
   454.14         238.2803
   454.28         238.7402
   454.42         238.5991
   454.56         238.1125
   454.70         237.5894
   454.84         237.3231
   454.98         237.5526
   455.12         238.3948
   455.26         239.8072
   455.40         241.6604
   455.54         243.8422
   455.68         246.2732
   455.82         248.8396
   455.96         251.3900
   456.10         253.7984
   456.24         255.9857
   456.38         257.9048
   456.52         259.5055
   456.66         260.7082
   456.80         261.4459
   456.94         261.7201
   457.08         261.5853
   457.22         261.0856
   457.36         260.2522
   457.50         259.1600
   457.64         257.9543
   457.78         256.8228
   457.92         255.9376
   458.06         255.4034
   458.20         255.2200
   458.34         255.2806
   458.48         255.4422
   458.62         255.6102
   458.76         255.7202
   458.90         255.6809
   459.04         255.3855
   459.18         254.7712
   459.32         253.8922
   459.46         252.9847
   459.60         252.4388
   459.74         252.6669
   459.88         253.9691
   460.02         256.4683
   460.16         260.1293
   460.30         264.7820
   460.44         270.1310
   460.58         275.8139
   460.72         281.4920
   460.86         286.9083
   461.00         291.8931
   461.14         296.3329
   461.28         300.1239
   461.42         303.1597
   461.56         305.3607
   461.70         306.7248
   461.84         307.3564
   461.98         307.4281
   462.12         307.1074
   462.26         306.4670
   462.40         305.4531
   462.54         303.9644
   462.68         301.9666
   462.82         299.5511
   462.96         296.8738
   463.10         294.0599
   463.24         291.1624
   463.38         288.1689
   463.52         285.0541
   463.66         281.8418
   463.80         278.6307
   463.94         275.5740
   464.08         272.8309
   464.22         270.5238
   464.36         268.7537
   464.50         267.6401
   464.64         267.3211
   464.78         267.8907
   464.92         269.3259
   465.06         271.4775
   465.20         274.1004
   465.34         276.8515
   465.48         279.2858
   465.62         280.9465
   465.76         281.5024
   465.90         280.8469
   466.04         279.1216
   466.18         276.6674
   466.32         273.9537
   466.46         271.4543
   466.60         269.5071
   466.74         268.2711
   466.88         267.7896
   467.02         268.0943
   467.16         269.2097
   467.30         271.0505
   467.44         273.3506
   467.58         275.7420
   467.72         277.9067
   467.86         279.6443
   468.00         280.8744
   468.14         281.6704
   468.28         282.2745
   468.42         282.9785
   468.56         283.9399
   468.70         285.1178
   468.84         286.3520
   468.98         287.4546
   469.12         288.2249
   469.26         288.4745
   469.40         288.0844
   469.54         287.0316
   469.68         285.3980
   469.82         283.3403
   469.96         281.0486
   470.10         278.7080
   470.24         276.4959
   470.38         274.6249
   470.52         273.3397
   470.66         272.8777
   470.80         273.4228
   470.94         275.0461
   471.08         277.6767
   471.22         281.1243
   471.36         285.1162
   471.50         289.2960
   471.64         293.2289
   471.78         296.4895
   471.92         298.7556
   472.06         299.8446
   472.20         299.7381
   472.34         298.5854
   472.48         296.6494
   472.62         294.2536
   472.76         291.7340
   472.90         289.4371
   473.04         287.7226
   473.18         286.8842
   473.32         287.0842
   473.46         288.3426
   473.60         290.5518
   473.74         293.4989
   473.88         296.8876
   474.02         300.3575
   474.16         303.5511
   474.30         306.2160
   474.44         308.2456
   474.58         309.6373
   474.72         310.4327
   474.86         310.6686
   475.00         310.3370
   475.14         309.4068
   475.28         307.8818
   475.42         305.8130
   475.56         303.3486
   475.70         300.7631
   475.84         298.3814
   475.98         296.5013
   476.12         295.3745
   476.26         295.2092
   476.40         296.1338
   476.54         298.1597
   476.68         301.1804
   476.82         304.9972
   476.96         309.3521
   477.10         313.9375
   477.24         318.3948
   477.38         322.3176
   477.52         325.2967
   477.66         327.0235
   477.80         327.3930
   477.94         326.5437
   478.08         324.8336
   478.22         322.7542
   478.36         320.7752
   478.50         319.2050
   478.64         318.1770
   478.78         317.7397
   478.92         317.9079
   479.06         318.6374
   479.20         319.7957
   479.34         321.1636
   479.48         322.4735
   479.62         323.4668
   479.76         323.9553
   479.90         323.8592
   480.04         323.2081
   480.18         322.1430
   480.32         320.9111
   480.46         319.8227
   480.60         319.1891
   480.74         319.2409
   480.88         320.0538
   481.02         321.5096
   481.16         323.3624
   481.30         325.3792
   481.44         327.4029
   481.58         329.2917
   481.72         330.8446
   481.86         331.8159
   482.00         332.0150
   482.14         331.4021
   482.28         330.1003
   482.42         328.3378
   482.56         326.3620
   482.70         324.3792
   482.84         322.5416
   482.98         320.9486
   483.12         319.6486
   483.26         318.6517
   483.40         317.9212
   483.54         317.3545
   483.68         316.8062
   483.82         316.1807
   483.96         315.4746
   484.10         314.6951
   484.24         313.7786
   484.38         312.6097
   484.52         311.0857
   484.66         309.1207
   484.80         306.5795
   484.94         303.2605
   485.08         299.0102
   485.22         293.8359
   485.36         287.9319
   485.50         281.6563
   485.64         275.4523
   485.78         269.7451
   485.92         264.8630
   486.06         261.0051
   486.20         258.2684
   486.34         256.7109
   486.48         256.3765
   486.62         257.2645
   486.76         259.2814
   486.90         262.2291
   487.04         265.8342
   487.18         269.7629
   487.32         273.6341
   487.46         277.0939
   487.60         279.9372
   487.74         282.1279
   487.88         283.6962
   488.02         284.7047
   488.16         285.2921
   488.30         285.6864
   488.44         286.1859
   488.58         287.1098
   488.72         288.7336
   488.86         291.2369
   489.00         294.6697
   489.14         298.9496
   489.28         303.8679
   489.42         309.0832
   489.56         314.1467
   489.70         318.5682
   489.84         321.9204
   489.98         323.9249
   490.12         324.5034
   490.26         323.7986
   490.40         322.1214
   490.54         319.8577
   490.68         317.3498
   490.82         314.7851
   490.96         312.1720
   491.10         309.4181
   491.24         306.4352
   491.38         303.2242
   491.52         299.9371
   491.66         296.8731
   491.80         294.4077
   491.94         292.8772
   492.08         292.4612
   492.22         293.1516
   492.36         294.8193
   492.50         297.2783
   492.64         300.2701
   492.78         303.4695
   492.92         306.5548
   493.06         309.2695
   493.20         311.4341
   493.34         312.9507
   493.48         313.8606
   493.62         314.3848
   493.76         314.8826
   493.90         315.7423
   494.04         317.2867
   494.18         319.7230
   494.32         323.0803
   494.46         327.1556
   494.60         331.5226
   494.74         335.6749
   494.88         339.2118
   495.02         341.9071
   495.16         343.6748
   495.30         344.5199
   495.44         344.5180
   495.58         343.7964
   495.72         342.4934
   495.86         340.7137
   496.00         338.5542
   496.14         336.1790
   496.28         333.8306
   496.42         331.7731
   496.56         330.1947
   496.70         329.1351
   496.84         328.4771
   496.98         327.9488
   497.12         327.1730
   497.26         325.7976
   497.40         323.6390
   497.54         320.7073
   497.68         317.1330
   497.82         313.0966
   497.96         308.8018
   498.10         304.5069
   498.24         300.5561
   498.38         297.3452
   498.52         295.2096
   498.66         294.3087
   498.80         294.5839
   498.94         295.7826
   499.08         297.4967
   499.22         299.2113
   499.36         300.4099
   499.50         300.7139
   499.64         299.9967
   499.78         298.3980
   499.92         296.1773
   500.06         293.5541
   500.20         290.6770
   500.34         287.6565
   500.48         284.5742
   500.62         281.5094
   500.76         278.5623
   500.90         275.8396
   501.04         273.4366
   501.18         271.4370
   501.32         269.9288
   501.46         269.0183
   501.60         268.8236
   501.74         269.4647
   501.88         271.0548
   502.02         273.6977
   502.16         277.4451
   502.30         282.1717
   502.44         287.4738
   502.58         292.7305
   502.72         297.3041
   502.86         300.6992
   503.00         302.6472
   503.14         303.1492
   503.28         302.4619
   503.42         301.0226
   503.56         299.3198
   503.70         297.7631
   503.84         296.6542
   503.98         296.2271
   504.12         296.6887
   504.26         298.2273
   504.40         300.9480
   504.54         304.7921
   504.68         309.5415
   504.82         314.8599
   504.96         320.3147
   505.10         325.4452
   505.24         329.8474
   505.38         333.2341
   505.52         335.5010
   505.66         336.7518
   505.80         337.1840
   505.94         336.9299
   506.08         336.0210
   506.22         334.4505
   506.36         332.2669
   506.50         329.6125
   506.64         326.6285
   506.78         323.3958
   506.92         319.9714
   507.06         316.4076
   507.20         312.7826
   507.34         309.2423
   507.48         305.9709
   507.62         303.1409
   507.76         300.9408
   507.90         299.6095
   508.04         299.4040
   508.18         300.5017
   508.32         302.8862
   508.46         306.2769
   508.60         310.1899
   508.74         314.1001
   508.88         317.5655
   509.02         320.2570
   509.16         321.9342
   509.30         322.4628
   509.44         321.8892
   509.58         320.4170
   509.72         318.2927
   509.86         315.7847
   510.00         313.2135
   510.14         310.9110
   510.28         309.1758
   510.42         308.2550
   510.56         308.2877
   510.70         309.2365
   510.84         310.8572
   510.98         312.7365
   511.12         314.4202
   511.26         315.5636
   511.40         315.9668
   511.54         315.5028
   511.68         314.0667
   511.82         311.6325
   511.96         308.3485
   512.10         304.5457
   512.24         300.6570
   512.38         297.1086
   512.52         294.2540
   512.66         292.3331
   512.80         291.4309
   512.94         291.4598
   513.08         292.1653
   513.22         293.1611
   513.36         294.0216
   513.50         294.3965
   513.64         294.0831
   513.78         293.0607
   513.92         291.4670
   514.06         289.5301
   514.20         287.5405
   514.34         285.8649
   514.48         284.8862
   514.62         284.8858
   514.76         285.9657
   514.90         288.0222
   515.04         290.7572
   515.18         293.7236
   515.32         296.3762
   515.46         298.1389
   515.60         298.5201
   515.74         297.2158
   515.88         294.1363
   516.02         289.4085
   516.16         283.4191
   516.30         276.8092
   516.44         270.3890
   516.58         265.0133
   516.72         261.4279
   516.86         260.1304
   517.00         261.2300
   517.14         264.4240
   517.28         269.1661
   517.42         274.8403
   517.56         280.8274
   517.70         286.5385
   517.84         291.4519
   517.98         295.1578
   518.12         297.4422
   518.26         298.3182
   518.40         297.9675
   518.54         296.7048
   518.68         294.9766
   518.82         293.3114
   518.96         292.1666
   519.10         291.7644
   519.24         292.0413
   519.38         292.7375
   519.52         293.5345
   519.66         294.1789
   519.80         294.6081
   519.94         294.9417
   520.08         295.3246
   520.22         295.7898
   520.36         296.2533
   520.50         296.6327
   520.64         296.9549
   520.78         297.3723
   520.92         298.0743
   521.06         299.1726
   521.20         300.6063
   521.34         302.1217
   521.48         303.3731
   521.62         304.0726
   521.76         304.0627
   521.90         303.3528
   522.04         302.1158
   522.18         300.5892
   522.32         299.0424
   522.46         297.7831
   522.60         297.0996
   522.74         297.1877
   522.88         298.1336
   523.02         299.9728
   523.16         302.7076
   523.30         306.2096
   523.44         310.1475
   523.58         314.0230
   523.72         317.2626
   523.86         319.3621
   524.00         320.0678
   524.14         319.4343
   524.28         317.7077
   524.42         315.1958
   524.56         312.2581
   524.70         309.2926
   524.84         306.6663
   524.98         304.6418
   525.12         303.2865
   525.26         302.4459
   525.40         301.8167
   525.54         301.0564
   525.68         299.8520
   525.82         297.9211
   525.96         295.0661
   526.10         291.2739
   526.24         286.7450
   526.38         281.8766
   526.52         277.2455
   526.66         273.5286
   526.80         271.3350
   526.94         271.0411
   527.08         272.7669
   527.22         276.4200
   527.36         281.7000
   527.50         288.1661
   527.64         295.3428
   527.78         302.8285
   527.92         310.3513
   528.06         317.7186
   528.20         324.7383
   528.34         331.1561
   528.48         336.6596
   528.62         340.9481
   528.76         343.7990
   528.90         345.1160
   529.04         344.9633
   529.18         343.5725
   529.32         341.3070
   529.46         338.5816
   529.60         335.8161
   529.74         333.4817
   529.88         332.0626
   530.02         331.9224
   530.16         333.2097
   530.30         335.8155
   530.44         339.4204
   530.58         343.5684
   530.72         347.7307
   530.86         351.3888
   531.00         354.1065
   531.14         355.5874
   531.28         355.7054
   531.42         354.4899
   531.56         352.0300
   531.70         348.4065
   531.84         343.7580
   531.98         338.3584
   532.12         332.5825
   532.26         326.8520
   532.40         321.6082
   532.54         317.2417
   532.68         314.0264
   532.82         312.0808
   532.96         311.3905
   533.10         311.8800
   533.24         313.4335
   533.38         315.8657
   533.52         318.8907
   533.66         322.1443
   533.80         325.2552
   533.94         327.9367
   534.08         330.0608
   534.22         331.6775
   534.36         333.0179
   534.50         334.4473
   534.64         336.3351
   534.78         338.9207
   534.92         342.2464
   535.06         346.1541
   535.20         350.3189
   535.34         354.3323
   535.48         357.7868
   535.62         360.3450
   535.76         361.7493
   535.90         361.7831
   536.04         360.3242
   536.18         357.4446
   536.32         353.4672
   536.46         348.9273
   536.60         344.4253
   536.74         340.5159
   536.88         337.6260
   537.02         335.9792
   537.16         335.5959
   537.30         336.3362
   537.44         337.9486
   537.58         340.0991
   537.72         342.3940
   537.86         344.4399
   538.00         345.9038
   538.14         346.5239
   538.28         346.1174
   538.42         344.5985
   538.56         341.9993
   538.70         338.5084
   538.84         334.4360
   538.98         330.1332
   539.12         325.8881
   539.26         321.8429
   539.40         318.0320
   539.54         314.4434
   539.68         311.0848
   539.82         308.0264
   539.96         305.3761
   540.10         303.2709
   540.24         301.8597
   540.38         301.2634
   540.52         301.5876
   540.66         302.9024
   540.80         305.1719
   540.94         308.2505
   541.08         311.9339
   541.22         316.0010
   541.36         320.2145
   541.50         324.3251
   541.64         328.0710
   541.78         331.1585
   541.92         333.3085
   542.06         334.3571
   542.20         334.2886
   542.34         333.2032
   542.48         331.2864
   542.62         328.8399
   542.76         326.3063
   542.90         324.1732
   543.04         322.8417
   543.18         322.5577
   543.32         323.3585
   543.46         325.0752
   543.60         327.4330
   543.74         330.1527
   543.88         333.0004
   544.02         335.7831
   544.16         338.3133
   544.30         340.3596
   544.44         341.6630
   544.58         342.0601
   544.72         341.6010
   544.86         340.5204
   545.00         339.1400
   545.14         337.7782
   545.28         336.6755
   545.42         335.9711
   545.56         335.6837
   545.70         335.7174
   545.84         335.9068
   545.98         336.0637
   546.12         336.0457
   546.26         335.7882
   546.40         335.2603
   546.54         334.3943
   546.68         333.0800
   546.82         331.2381
   546.96         328.8763
   547.10         326.1089
   547.24         323.1713
   547.38         320.3702
   547.52         317.9480
   547.66         316.0442
   547.80         314.7461
   547.94         314.1301
   548.08         314.2704
   548.22         315.1839
   548.36         316.7832
   548.50         318.8912
   548.64         321.2944
   548.78         323.7981
   548.92         326.2271
   549.06         328.4192
   549.20         330.2499
   549.34         331.6566
   549.48         332.6067
   549.62         333.0643
   549.76         333.0364
   549.90         332.5980
   550.04         331.8326
   550.18         330.7706
   550.32         329.4215
   550.46         327.8532
   550.60         326.2269
   550.74         324.7777
   550.88         323.7554
   551.02         323.3522
   551.16         323.6638
   551.30         324.6918
   551.44         326.3360
   551.58         328.3652
   551.72         330.4870
   551.86         332.4599
   552.00         334.1026
   552.14         335.2701
   552.28         335.8550
   552.42         335.8123
   552.56         335.1726
   552.70         334.0483
   552.84         332.6430
   552.98         331.2357
   553.12         330.1156
   553.26         329.4972
   553.40         329.4829
   553.54         330.0770
   553.68         331.2194
   553.82         332.8162
   553.96         334.7736
   554.10         336.9874
   554.24         339.3286
   554.38         341.7031
   554.52         344.0430
   554.66         346.2575
   554.80         348.2572
   554.94         349.9669
   555.08         351.3226
   555.22         352.2627
   555.36         352.7146
   555.50         352.6059
   555.64         351.8745
   555.78         350.5035
   555.92         348.5718
   556.06         346.2527
   556.20         343.7912
   556.34         341.4485
   556.48         339.4333
   556.62         337.8865
   556.76         336.8733
   556.90         336.4155
   557.04         336.5259
   557.18         337.1606
   557.32         338.1888
   557.46         339.3800
   557.60         340.4037
   557.74         340.9160
   557.88         340.6556
   558.02         339.4898
   558.16         337.4393
   558.30         334.6760
   558.44         331.4978
   558.58         328.2643
   558.72         325.3171
   558.86         322.9358
   559.00         321.2825
   559.14         320.4091
   559.28         320.3384
   559.42         321.0967
   559.56         322.7016
   559.70         325.1088
   559.84         328.1820
   559.98         331.7248
   560.12         335.4864
   560.26         339.1740
   560.40         342.5122
   560.54         345.2903
   560.68         347.3937
   560.82         348.7851
   560.96         349.4597
   561.10         349.4217
   561.24         348.6452
   561.38         347.1010
   561.52         344.8669
   561.66         342.1857
   561.80         339.4565
   561.94         337.1342
   562.08         335.5722
   562.22         334.9380
   562.36         335.1962
   562.50         336.1334
   562.64         337.4175
   562.78         338.6857
   562.92         339.6460
   563.06         340.1430
   563.20         340.1573
   563.34         339.7583
   563.48         339.0462
   563.62         338.1292
   563.76         337.1114
   563.90         336.0921
   564.04         335.2453
   564.18         334.7878
   564.32         334.8339
   564.46         335.3387
   564.60         336.0703
   564.74         336.6822
   564.88         336.8538
   565.02         336.3641
   565.16         335.1374
   565.30         333.2764
   565.44         331.0144
   565.58         328.6088
   565.72         326.2912
   565.86         324.2794
   566.00         322.8013
   566.14         322.0842
   566.28         322.2969
   566.42         323.5029
   566.56         325.6611
   566.70         328.6368
   566.84         332.1673
   566.98         335.9044
   567.12         339.4988
   567.26         342.6272
   567.40         345.0555
   567.54         346.6539
   567.68         347.3668
   567.82         347.2198
   567.96         346.3193
   568.10         344.8331
   568.24         342.9951
   568.38         341.0955
   568.52         339.4035
   568.66         338.1082
   568.80         337.2702
   568.94         336.7965
   569.08         336.4920
   569.22         336.1479
   569.36         335.5750
   569.50         334.6027
   569.64         333.1038
   569.78         331.0073
   569.92         328.3211
   570.06         325.1755
   570.20         321.8470
   570.34         318.7327
   570.48         316.2622
   570.62         314.8042
   570.76         314.6248
   570.90         315.8705
   571.04         318.5636
   571.18         322.5948
   571.32         327.7130
   571.46         333.5415
   571.60         339.6355
   571.74         345.5509
   571.88         350.8861
   572.02         355.3086
   572.16         358.6043
   572.30         360.7030
   572.44         361.6653
   572.58         361.6750
   572.72         360.9918
   572.86         359.8829
   573.00         358.5645
   573.14         357.1737
   573.28         355.8180
   573.42         354.5947
   573.56         353.5351
   573.70         352.5854
   573.84         351.6417
   573.98         350.5807
   574.12         349.2991
   574.26         347.7648
   574.40         346.0394
   574.54         344.2712
   574.68         342.6373
   574.82         341.2633
   574.96         340.1823
   575.10         339.3730
   575.24         338.8353
   575.38         338.6179
   575.52         338.7879
   575.66         339.3782
   575.80         340.3777
   575.94         341.7412
   576.08         343.3557
   576.22         345.0570
   576.36         346.6940
   576.50         348.1483
   576.64         349.2817
   576.78         349.9089
   576.92         349.8375
   577.06         348.9056
   577.20         347.0088
   577.34         344.1215
   577.48         340.3442
   577.62         335.9472
   577.76         331.3392
   577.90         326.9699
   578.04         323.2425
   578.18         320.4529
   578.32         318.7777
   578.46         318.2932
   578.60         318.9510
   578.74         320.6190
   578.88         323.1609
   579.02         326.4067
   579.16         330.0843
   579.30         333.8058
   579.44         337.1763
   579.58         339.9388
   579.72         342.0162
   579.86         343.4770
   580.00         344.4582
   580.14         345.1051
   580.28         345.5344
   580.42         345.8113
   580.56         346.0071
   580.70         346.2585
   580.84         346.7075
   580.98         347.4408
   581.12         348.4989
   581.26         349.8989
   581.40         351.6580
   581.54         353.7415
   581.68         356.0161
   581.82         358.2959
   581.96         360.4232
   582.10         362.3189
   582.24         363.9389
   582.38         365.2419
   582.52         366.2082
   582.66         366.8247
   582.80         367.0940
   582.94         367.0783
   583.08         366.8927
   583.22         366.6626
   583.36         366.4652
   583.50         366.2920
   583.64         366.0717
   583.78         365.7259
   583.92         365.1937
   584.06         364.3989
   584.20         363.2440
   584.34         361.6472
   584.48         359.5593
   584.62         356.9737
   584.76         353.9567
   584.90         350.6641
   585.04         347.3283
   585.18         344.2018
   585.32         341.5003
   585.46         339.3987
   585.60         338.0508
   585.74         337.5547
   585.88         337.9224
   586.02         339.1024
   586.16         340.9942
   586.30         343.4542
   586.44         346.3229
   586.58         349.4149
   586.72         352.4804
   586.86         355.2562
   587.00         357.5315
   587.14         359.1482
   587.28         360.0051
   587.42         360.0817
   587.56         359.3382
   587.70         357.6004
   587.84         354.6060
   587.98         350.1757
   588.12         344.3573
   588.26         337.3459
   588.40         329.3648
   588.54         320.7001
   588.68         311.7830
   588.82         303.1999
   588.96         295.6006
   589.10         289.5985
   589.24         285.6874
   589.38         284.1714
   589.52         285.1682
   589.66         288.5970
   589.80         294.1399
   589.94         301.2877
   590.08         309.4029
   590.22         317.7294
   590.36         325.5157
   590.50         332.2227
   590.64         337.6009
   590.78         341.5919
   590.92         344.1998
   591.06         345.5489
   591.20         345.9558
   591.34         345.8447
   591.48         345.5979
   591.62         345.4408
   591.76         345.4478
   591.90         345.6014
   592.04         345.8356
   592.18         346.0585
   592.32         346.1575
   592.46         346.0355
   592.60         345.6607
   592.74         345.0606
   592.88         344.2642
   593.02         343.2964
   593.16         342.2246
   593.30         341.1500
   593.44         340.1730
   593.58         339.3484
   593.72         338.6730
   593.86         338.1072
   594.00         337.5669
   594.14         336.9353
   594.28         336.1141
   594.42         335.0724
   594.56         333.8558
   594.70         332.5674
   594.84         331.3505
   594.98         330.3856
   595.12         329.8565
   595.26         329.8930
   595.40         330.5498
   595.54         331.8062
   595.68         333.6070
   595.82         335.9002
   595.96         338.6072
   596.10         341.5844
   596.24         344.6067
   596.38         347.3980
   596.52         349.6969
   596.66         351.3168
   596.80         352.1819
   596.94         352.3040
   597.08         351.7221
   597.22         350.4864
   597.36         348.6944
   597.50         346.5008
   597.64         344.0873
   597.78         341.6245
   597.92         339.2620
   598.06         337.1510
   598.20         335.4291
   598.34         334.1714
   598.48         333.3566
   598.62         332.8763
   598.76         332.5913
   598.90         332.3909
   599.04         332.1966
   599.18         331.9568
   599.32         331.6387
   599.46         331.1820
   599.60         330.4871
   599.74         329.4801
   599.88         328.1915
   600.02         326.7348
   600.16         325.2280
   600.30         323.7559
   600.44         322.3699
   600.58         321.1074
   600.72         319.9969
   600.86         319.0353
   601.00         318.2001
   601.14         317.4856
   601.28         316.9203
   601.42         316.5527
   601.56         316.4078
   601.70         316.4753
   601.84         316.7424
   601.98         317.2261
   602.12         317.9593
   602.26         318.9801
   602.40         320.3284
   602.54         321.9912
   602.68         323.8681
   602.82         325.7919
   602.96         327.5780
   603.10         329.0799
   603.24         330.2133
   603.38         330.9695
   603.52         331.4110
   603.66         331.6305
   603.80         331.7320
   603.94         331.7990
   604.08         331.8593
   604.22         331.9018
   604.36         331.9071
   604.50         331.8618
   604.64         331.7515
   604.78         331.5559
   604.92         331.2540
   605.06         330.7990
   605.20         330.0982
   605.34         329.0860
   605.48         327.8131
   605.62         326.4503
   605.76         325.2296
   605.90         324.3651
   606.04         324.0142
   606.18         324.2510
   606.32         325.0539
   606.46         326.3244
   606.60         327.8690
   606.74         329.4311
   606.88         330.7669
   607.02         331.6768
   607.16         332.0096
   607.30         331.6552
   607.44         330.5613
   607.58         328.7548
   607.72         326.3370
   607.86         323.4953
   608.00         320.4860
   608.14         317.5567
   608.28         314.9093
   608.42         312.7140
   608.56         311.0975
   608.70         310.1146
   608.84         309.7098
   608.98         309.7005
   609.12         309.8563
   609.26         310.0107
   609.40         310.0870
   609.54         310.0829
   609.68         310.0552
   609.82         310.0982
   609.96         310.3039
   610.10         310.7432
   610.24         311.4650
   610.38         312.4695
   610.52         313.6999
   610.66         315.0657
   610.80         316.4558
   610.94         317.7414
   611.08         318.7772
   611.22         319.4286
   611.36         319.5895
   611.50         319.1761
   611.64         318.1664
   611.78         316.6809
   611.92         314.9606
   612.06         313.2432
   612.20         311.6874
   612.34         310.3314
   612.48         309.0868
   612.62         307.8401
   612.76         306.5601
   612.90         305.2539
   613.04         303.9174
   613.18         302.5945
   613.32         301.3863
   613.46         300.4000
   613.60         299.7316
   613.74         299.4619
   613.88         299.6286
   614.02         300.2276
   614.16         301.2289
   614.30         302.5903
   614.44         304.2607
   614.58         306.1355
   614.72         308.0185
   614.86         309.6175
   615.00         310.6255
   615.14         310.8719
   615.28         310.3945
   615.42         309.3494
   615.56         307.8815
   615.70         306.0980
   615.84         304.1128
   615.98         302.0610
   616.12         300.0918
   616.26         298.3760
   616.40         297.0893
   616.54         296.4025
   616.68         296.4393
   616.82         297.2140
   616.96         298.6561
   617.10         300.6465
   617.24         303.0020
   617.38         305.4803
   617.52         307.8144
   617.66         309.7938
   617.80         311.2902
   617.94         312.2127
   618.08         312.5173
   618.22         312.2349
   618.36         311.4852
   618.50         310.4931
   618.64         309.4997
   618.78         308.6648
   618.92         308.0938
   619.06         307.8682
   619.20         308.0400
   619.34         308.6128
   619.48         309.5508
   619.62         310.7892
   619.76         312.2116
   619.90         313.6384
   620.04         314.8450
   620.18         315.5950
   620.32         315.7117
   620.46         315.1427
   620.60         313.9421
   620.74         312.2287
   620.88         310.1387
   621.02         307.8034
   621.16         305.3601
   621.30         302.9630
   621.44         300.7987
   621.58         299.0497
   621.72         297.8022
   621.86         297.0069
   622.00         296.5487
   622.14         296.3349
   622.28         296.3217
   622.42         296.4730
   622.56         296.7117
   622.70         296.9225
   622.84         297.0064
   622.98         296.9222
   623.12         296.6555
   623.26         296.1709
   623.40         295.4506
   623.54         294.5455
   623.68         293.5573
   623.82         292.5744
   623.96         291.6166
   624.10         290.6382
   624.24         289.5679
   624.38         288.3515
   624.52         286.9923
   624.66         285.5893
   624.80         284.3131
   624.94         283.3195
   625.08         282.6918
   625.22         282.4484
   625.36         282.5918
   625.50         283.1696
   625.64         284.2279
   625.78         285.7352
   625.92         287.6134
   626.06         289.7823
   626.20         292.1528
   626.34         294.5872
   626.48         296.8687
   626.62         298.7343
   626.76         299.9563
   626.90         300.3966
   627.04         300.0255
   627.18         298.9363
   627.32         297.3292
   627.46         295.4635
   627.60         293.6129
   627.74         292.0282
   627.88         290.8935
   628.02         290.3125
   628.16         290.3304
   628.30         290.9063
   628.44         291.9239
   628.58         293.2453
   628.72         294.7171
   628.86         296.1464
   629.00         297.3049
   629.14         298.0002
   629.28         298.1512
   629.42         297.8190
   629.56         297.1871
   629.70         296.4899
   629.84         295.9288
   629.98         295.6326
   630.12         295.6545
   630.26         295.9584
   630.40         296.4056
   630.54         296.7857
   630.68         296.9026
   630.82         296.6449
   630.96         295.9824
   631.10         294.9614
   631.24         293.7259
   631.38         292.4913
   631.52         291.4807
   631.66         290.8969
   631.80         290.8911
   631.94         291.5264
   632.08         292.7601
   632.22         294.4345
   632.36         296.2933
   632.50         298.0492
   632.64         299.4697
   632.78         300.4216
   632.92         300.8506
   633.06         300.7465
   633.20         300.1548
   633.34         299.2056
   633.48         298.1091
   633.62         297.1097
   633.76         296.4305
   633.90         296.2184
   634.04         296.4981
   634.18         297.1896
   634.32         298.1476
   634.46         299.1688
   634.60         300.0236
   634.74         300.4983
   634.88         300.4307
   635.02         299.7394
   635.16         298.4547
   635.30         296.7183
   635.44         294.7337
   635.58         292.7089
   635.72         290.8446
   635.86         289.3522
   636.00         288.4388
   636.14         288.2648
   636.28         288.8942
   636.42         290.2661
   636.56         292.2033
   636.70         294.4553
   636.84         296.7604
   636.98         298.8922
   637.12         300.6810
   637.26         302.0450
   637.40         303.0063
   637.54         303.6566
   637.68         304.1179
   637.82         304.5282
   637.96         304.9808
   638.10         305.4756
   638.24         305.9731
   638.38         306.4654
   638.52         306.9677
   638.66         307.4479
   638.80         307.8099
   638.94         307.9558
   639.08         307.8513
   639.22         307.5343
   639.36         307.0805
   639.50         306.5707
   639.64         306.0884
   639.78         305.7066
   639.92         305.4649
   640.06         305.3656
   640.20         305.3840
   640.34         305.4766
   640.48         305.5877
   640.62         305.6407
   640.76         305.5623
   640.90         305.3312
   641.04         304.9788
   641.18         304.5539
   641.32         304.1171
   641.46         303.7801
   641.60         303.6811
   641.74         303.8721
   641.88         304.2541
   642.02         304.6673
   642.16         305.0158
   642.30         305.2911
   642.44         305.5091
   642.58         305.6441
   642.72         305.6826
   642.86         305.6655
   643.00         305.6509
   643.14         305.6885
   643.28         305.8229
   643.42         306.1171
   643.56         306.6115
   643.70         307.2398
   643.84         307.8352
   643.98         308.2210
   644.12         308.2664
   644.26         307.8853
   644.40         307.0527
   644.54         305.8571
   644.68         304.5255
   644.82         303.3160
   644.96         302.3815
   645.10         301.7573
   645.24         301.4513
   645.38         301.5274
   645.52         302.0367
   645.66         302.9308
   645.80         304.0685
   645.94         305.2653
   646.08         306.3471
   646.22         307.1678
   646.36         307.6652
   646.50         307.9267
   646.64         308.1261
   646.78         308.3761
   646.92         308.6795
   647.06         308.9837
   647.20         309.2364
   647.34         309.3980
   647.48         309.4251
   647.62         309.2797
   647.76         308.9635
   647.90         308.5207
   648.04         307.9393
   648.18         307.0634
   648.32         305.6404
   648.46         303.4556
   648.60         300.4594
   648.74         296.7938
   648.88         292.7378
   649.02         288.6501
   649.16         284.9094
   649.30         281.8574
   649.44         279.7711
   649.58         278.8598
   649.72         279.2742
   649.86         281.0926
   650.00         284.2706
   650.14         288.6002
   650.28         293.7011
   650.42         299.0702
   650.56         304.1761
   650.70         308.5498
   650.84         311.9000
   650.98         314.1892
   651.12         315.6006
   651.26         316.4315
   651.40         316.9632
   651.54         317.4031
   651.68         317.8828
   651.82         318.4535
   651.96         319.1002
   652.10         319.7672
   652.24         320.3944
   652.38         320.9599
   652.52         321.4662
   652.66         321.9122
   652.80         322.2900
   652.94         322.5838
   653.08         322.7825
   653.22         322.8821
   653.36         322.8727
   653.50         322.7357
   653.64         322.4574
   653.78         322.0313
   653.92         321.4409
   654.06         320.6505
   654.20         319.6273
   654.34         318.3594
   654.48         316.8623
   654.62         315.1836
   654.76         313.3655
   654.90         311.3536
   655.04         308.9850
   655.18         306.1096
   655.32         302.7417
   655.46         299.0713
   655.60         295.3548
   655.74         291.8588
   655.88         288.8428
   656.02         286.5439
   656.16         285.1458
   656.30         284.7537
   656.44         285.3878
   656.58         286.9887
   656.72         289.4211
   656.86         292.4789
   657.00         295.9080
   657.14         299.4418
   657.28         302.8088
   657.42         305.7543
   657.56         308.1296
   657.70         309.9710
   657.84         311.4317
   657.98         312.6070
   658.12         313.4328
   658.26         313.7714
   658.40         313.5565
   658.54         312.8247
   658.68         311.6991
   658.82         310.3744
   658.96         309.0872
   659.10         308.0514
   659.24         307.3766
   659.38         307.0546
   659.52         307.0049
   659.66         307.1237
   659.80         307.3343
   659.94         307.5749
   660.08         307.7768
   660.22         307.8867
   660.36         307.8676
   660.50         307.7170
   660.64         307.5119
   660.78         307.4365
   660.92         307.7269
   661.06         308.5425
   661.20         309.9016
   661.34         311.7132
   661.48         313.8107
   661.62         315.9721
   661.76         317.9474
   661.90         319.4906
   662.04         320.4025
   662.18         320.5585
   662.32         319.9475
   662.46         318.6980
   662.60         317.0043
   662.74         315.0713
   662.88         313.1044
   663.02         311.2783
   663.16         309.7226
   663.30         308.5170
   663.44         307.6922
   663.58         307.2395
   663.72         307.1201
   663.86         307.2833
   664.00         307.6748
   664.14         308.2234
   664.28         308.8546
   664.42         309.4918
   664.56         310.0593
   664.70         310.5196
   664.84         310.8640
   664.98         311.0769
   665.12         311.1074
   665.26         310.8649
   665.40         310.2722
   665.54         309.3105
   665.68         308.0394
   665.82         306.6123
   665.96         305.2231
   666.10         304.0458
   666.24         303.2068
   666.38         302.7423
   666.52         302.5847
   666.66         302.6146
   666.80         302.7349
   666.94         302.9028
   667.08         303.0979
   667.22         303.3074
   667.36         303.5377
   667.50         303.7864
   667.64         304.0520
   667.78         304.3705
   667.92         304.8170
   668.06         305.4789
   668.20         306.3964
   668.34         307.5219
   668.48         308.7362
   668.62         309.8764
   668.76         310.7803
   668.90         311.3225
   669.04         311.4220
   669.18         311.0647
   669.32         310.3357
   669.46         309.4008
   669.60         308.4325
   669.74         307.5450
   669.88         306.7975
   670.02         306.2166
   670.16         305.7898
   670.30         305.4760
   670.44         305.2167
   670.58         304.9435
   670.72         304.6088
   670.86         304.2057
   671.00         303.7664
   671.14         303.3660
   671.28         303.0952
   671.42         303.0099
   671.56         303.1256
   671.70         303.4403
   671.84         303.9518
   671.98         304.6381
   672.12         305.4369
   672.26         306.2443
   672.40         306.9270
   672.54         307.3633
   672.68         307.4554
   672.82         307.1261
   672.96         306.3469
   673.10         305.1623
   673.24         303.6918
   673.38         302.1020
   673.52         300.5426
   673.66         299.1055
   673.80         297.8431
   673.94         296.7965
   674.08         296.0104
   674.22         295.5360
   674.36         295.4271
   674.50         295.7274
   674.64         296.4359
   674.78         297.5158
   674.92         298.9096
   675.06         300.5340
   675.20         302.2992
   675.34         304.1004
   675.48         305.8135
   675.62         307.3231
   675.76         308.5280
   675.90         309.3352
   676.04         309.6666
   676.18         309.4803
   676.32         308.8082
   676.46         307.7673
   676.60         306.5401
   676.74         305.3374
   676.88         304.3542
   677.02         303.7340
   677.16         303.5241
   677.30         303.6686
   677.44         304.0772
   677.58         304.6665
   677.72         305.3648
   677.86         306.1119
   678.00         306.8193
   678.14         307.3817
   678.28         307.7285
   678.42         307.8379
   678.56         307.7420
   678.70         307.5159
   678.84         307.2424
   678.98         306.9888
   679.12         306.7860
   679.26         306.6215
   679.40         306.4485
   679.54         306.2043
   679.68         305.8343
   679.82         305.3175
   679.96         304.6909
   680.10         304.0382
   680.24         303.4376
   680.38         302.9388
   680.52         302.5669
   680.66         302.3161
   680.80         302.1761
   680.94         302.1574
   681.08         302.2821
   681.22         302.5645
   681.36         302.9765
   681.50         303.4411
   681.64         303.8666
   681.78         304.1789
   681.92         304.3460
   682.06         304.3742
   682.20         304.2860
   682.34         304.1064
   682.48         303.8499
   682.62         303.5037
   682.76         303.0158
   682.90         302.3059
   683.04         301.3095
   683.18         300.0114
   683.32         298.4382
   683.46         296.6551
   683.60         294.7749
   683.74         292.9400
   683.88         291.2837
   684.02         289.8977
   684.16         288.8289
   684.30         288.0885
   684.44         287.6657
   684.58         287.5245
   684.72         287.5728
   684.86         287.6709
   685.00         287.6839
   685.14         287.5180
   685.28         287.1127
   685.42         286.3905
   685.56         285.2239
   685.70         283.4691
   685.84         281.0166
   685.98         277.8017
   686.12         273.8126
   686.26         269.1136
   686.40         263.8594
   686.54         258.2965
   686.68         252.7483
   686.82         247.5863
   686.96         243.1937
   687.10         239.9223
   687.24         238.0214
   687.38         237.5837
   687.52         238.5635
   687.66         240.8021
   687.80         244.0287
   687.94         247.8681
   688.08         251.8805
   688.22         255.6785
   688.36         259.0219
   688.50         261.8019
   688.64         264.0001
   688.78         265.6561
   688.92         266.8651
   689.06         267.7834
   689.20         268.5804
   689.34         269.3875
   689.48         270.2843
   689.62         271.3141
   689.76         272.4874
   689.90         273.7770
   690.04         275.1206
   690.18         276.4371
   690.32         277.6439
   690.46         278.6781
   690.60         279.5025
   690.74         280.1089
   690.88         280.5377
   691.02         280.8461
   691.16         281.0680
   691.30         281.2220
   691.44         281.3216
   691.58         281.3926
   691.72         281.4601
   691.86         281.5169
   692.00         281.5309
   692.14         281.4658
   692.28         281.2902
   692.42         280.9798
   692.56         280.5314
   692.70         279.9810
   692.84         279.4073
   692.98         278.9034
   693.12         278.5205
   693.26         278.2290
   693.40         277.9573
   693.54         277.6209
   693.68         277.1213
   693.82         276.3834
   693.96         275.3753
   694.10         274.1040
   694.24         272.6121
   694.38         270.9784
   694.52         269.3220
   694.66         267.7868
   694.80         266.5054
   694.94         265.5835
   695.08         265.0998
   695.22         265.0845
   695.36         265.5053
   695.50         266.2859
   695.64         267.3260
   695.78         268.5179
   695.92         269.7889
   696.06         271.1251
   696.20         272.4891
   696.34         273.7657
   696.48         274.7788
   696.62         275.3315
   696.76         275.3085
   696.90         274.7297
   697.04         273.7147
   697.18         272.4253
   697.32         271.0142
   697.46         269.6085
   697.60         268.3249
   697.74         267.2813
   697.88         266.5839
   698.02         266.3041
   698.16         266.4702
   698.30         267.0548
   698.44         267.9642
   698.58         269.0452
   698.72         270.0784
   698.86         270.8372
   699.00         271.1710
   699.14         271.0192
   699.28         270.4343
   699.42         269.5660
   699.56         268.5736
   699.70         267.5814
   699.84         266.6825
   699.98         265.9524
   700.12         265.4385
   700.26         265.1376
   700.40         265.0150
   700.54         265.0332
   700.68         265.1612
   700.82         265.3672
   700.96         265.5874
   701.10         265.7136
   701.24         265.6412
   701.38         265.3358
   701.52         264.8558
   701.66         264.2832
   701.80         263.6851
   701.94         263.1543
   702.08         262.8066
   702.22         262.7541
   702.36         263.0759
   702.50         263.7813
   702.64         264.8238
   702.78         266.1516
   702.92         267.7473
   703.06         269.6069
   703.20         271.6827
   703.34         273.8803
   703.48         276.1013
   703.62         278.2750
   703.76         280.3403
   703.90         282.2208
   704.04         283.8308
   704.18         285.1040
   704.32         286.0322
   704.46         286.6478
   704.60         286.9808
   704.74         287.0569
   704.88         286.9047
   705.02         286.5650
   705.16         286.0759
   705.30         285.4611
   705.44         284.7234
   705.58         283.8348
   705.72         282.7850
   705.86         281.6515
   706.00         280.5917
   706.14         279.7591
   706.28         279.2272
   706.42         279.0131
   706.56         279.1543
   706.70         279.7222
   706.84         280.7660
   706.98         282.2194
   707.12         283.8400
   707.26         285.3245
   707.40         286.4685
   707.54         287.1495
   707.68         287.2676
   707.82         286.7427
   707.96         285.5615
   708.10         283.8159
   708.24         281.6935
   708.38         279.4261
   708.52         277.2160
   708.66         275.2056
   708.80         273.4862
   708.94         272.1168
   709.08         271.1361
   709.22         270.5251
   709.36         270.1864
   709.50         269.9766
   709.64         269.7524
   709.78         269.4237
   709.92         268.9978
   710.06         268.5407
   710.20         268.0763
   710.34         267.5865
   710.48         267.0495
   710.62         266.4368
   710.76         265.7316
   710.90         264.9521
   711.04         264.1489
   711.18         263.3828
   711.32         262.6986
   711.46         262.1147
   711.60         261.6321
   711.74         261.2246
   711.88         260.8608
   712.02         260.5661
   712.16         260.4255
   712.30         260.5433
   712.44         261.0075
   712.58         261.8596
   712.72         263.0675
   712.86         264.5275
   713.00         266.1048
   713.14         267.6602
   713.28         269.0596
   713.42         270.1831
   713.56         270.9256
   713.70         271.2048
   713.84         270.9916
   713.98         270.3375
   714.12         269.3626
   714.26         268.2267
   714.40         267.1378
   714.54         266.3504
   714.68         266.0752
   714.82         266.3924
   714.96         267.2597
   715.10         268.5149
   715.24         269.9094
   715.38         271.2014
   715.52         272.2138
   715.66         272.8319
   715.80         272.9835
   715.94         272.6469
   716.08         271.8654
   716.22         270.7518
   716.36         269.4618
   716.50         268.1606
   716.64         266.9580
   716.78         265.8667
   716.92         264.8641
   717.06         263.9440
   717.20         263.0649
   717.34         262.0871
   717.48         260.8427
   717.62         259.2434
   717.76         257.2909
   717.90         255.0728
   718.04         252.7362
   718.18         250.4438
   718.32         248.3578
   718.46         246.6161
   718.60         245.3067
   718.74         244.4499
   718.88         244.0181
   719.02         243.9845
   719.16         244.3268
   719.30         244.9652
   719.44         245.7640
   719.58         246.5951
   719.72         247.3712
   719.86         248.0620
   720.00         248.6708
   720.14         249.2571
   720.28         249.9435
   720.42         250.8417
   720.56         252.0342
   720.70         253.5659
   720.84         255.4284
   720.98         257.5321
   721.12         259.7072
   721.26         261.7797
   721.40         263.6365
   721.54         265.2187
   721.68         266.4877
   721.82         267.4173
   721.96         267.9967
   722.10         268.2517
   722.24         268.2457
   722.38         268.0766
   722.52         267.8427
   722.66         267.5810
   722.80         267.3108
   722.94         267.0806
   723.08         266.9121
   723.22         266.7431
   723.36         266.4598
   723.50         266.0145
   723.64         265.4601
   723.78         264.8827
   723.92         264.3273
   724.06         263.7643
   724.20         263.1378
   724.34         262.4539
   724.48         261.7768
   724.62         261.1394
   724.76         260.5212
   724.90         259.8854
   725.04         259.2276
   725.18         258.5639
   725.32         257.9130
   725.46         257.3218
   725.60         256.8487
   725.74         256.5222
   725.88         256.3494
   726.02         256.3448
   726.16         256.5013
   726.30         256.7472
   726.44         256.9523
   726.58         257.0093
   726.72         256.9100
   726.86         256.7050
   727.00         256.4063
   727.14         255.9454
   727.28         255.2305
   727.42         254.2231
   727.56         252.9382
   727.70         251.4143
   727.84         249.6979
   727.98         247.8304
   728.12         245.8639
   728.26         243.8827
   728.40         242.0043
   728.54         240.3568
   728.68         239.0553
   728.82         238.1924
   728.96         237.8208
   729.10         237.9323
   729.24         238.4754
   729.38         239.3577
   729.52         240.4250
   729.66         241.4991
   729.80         242.4363
   729.94         243.1463
   730.08         243.5832
   730.22         243.7345
   730.36         243.6326
   730.50         243.3594
   730.64         243.0304
   730.78         242.7946
   730.92         242.7848
   731.06         243.0353
   731.20         243.4630
   731.34         243.9185
   731.48         244.2658
   731.62         244.4255
   731.76         244.3762
   731.90         244.1398
   732.04         243.7527
   732.18         243.2403
   732.32         242.6551
   732.46         242.1055
   732.60         241.7212
   732.74         241.6160
   732.88         241.8550
   733.02         242.4310
   733.16         243.2663
   733.30         244.2501
   733.44         245.2673
   733.58         246.1943
   733.72         246.8905
   733.86         247.2365
   734.00         247.1852
   734.14         246.7561
   734.28         245.9707
   734.42         244.8297
   734.56         243.3692
   734.70         241.6960
   734.84         239.9638
   734.98         238.3333
   735.12         236.9261
   735.26         235.8139
   735.40         235.0246
   735.54         234.5457
   735.68         234.3410
   735.82         234.3699
   735.96         234.6083
   736.10         235.0464
   736.24         235.6666
   736.38         236.4334
   736.52         237.3162
   736.66         238.2941
   736.80         239.3379
   736.94         240.4036
   737.08         241.4458
   737.22         242.4289
   737.36         243.2885
   737.50         243.9038
   737.64         244.1470
   737.78         243.9562
   737.92         243.3494
   738.06         242.3974
   738.20         241.2144
   738.34         239.9460
   738.48         238.7400
   738.62         237.7192
   738.76         236.9858
   738.90         236.6237
   739.04         236.6904
   739.18         237.2104
   739.32         238.1452
   739.46         239.3717
   739.60         240.6949
   739.74         241.8967
   739.88         242.7986
   740.02         243.2771
   740.16         243.2681
   740.30         242.7833
   740.44         241.8934
   740.58         240.6978
   740.72         239.3154
   740.86         237.8882
   741.00         236.5753
   741.14         235.5273
   741.28         234.8591
   741.42         234.6401
   741.56         234.8868
   741.70         235.5579
   741.84         236.5456
   741.98         237.6984
   742.12         238.8776
   742.26         239.9838
   742.40         240.9554
   742.54         241.7428
   742.68         242.2936
   742.82         242.5731
   742.96         242.5731
   743.10         242.2936
   743.24         241.7428
   743.38         240.9554
   743.52         239.9838
   743.66         238.8776
   743.80         237.6984
   743.94         236.5456
   744.08         235.5579
   744.22         234.8868
