# File HD192832
# Wavelength [nm]    Normalized Amplitude
   349.70         673.2680
   349.84         674.5998
   349.98         676.0429
   350.12         677.5563
   350.26         679.1637
   350.40         680.8557
   350.54         682.4960
   350.68         683.8809
   350.82         684.8865
   350.96         685.4888
   351.10         685.6895
   351.24         685.4888
   351.38         684.8865
   351.52         683.8809
   351.66         682.4960
   351.80         680.8557
   351.94         679.1637
   352.08         677.5563
   352.22         676.0429
   352.36         674.5998
   352.50         673.2680
   352.64         672.1647
   352.78         671.4193
   352.92         671.1156
   353.06         671.2971
   353.20         671.9936
   353.34         673.2335
   353.48         674.9798
   353.62         677.0284
   353.76         679.0033
   353.90         680.4663
   354.04         681.0397
   354.18         680.4884
   354.32         678.7741
   354.46         676.0047
   354.60         672.3567
   354.74         668.0995
   354.88         663.6432
   355.02         659.5051
   355.16         656.1538
   355.30         653.8388
   355.44         652.5651
   355.58         652.2011
   355.72         652.5698
   355.86         653.4288
   356.00         654.4173
   356.14         655.1115
   356.28         655.1751
   356.42         654.4820
   356.56         653.1079
   356.70         651.2238
   356.84         649.0031
   356.98         646.5587
   357.12         643.9489
   357.26         641.2879
   357.40         638.7365
   357.54         636.4391
   357.68         634.5215
   357.82         633.0615
   357.96         632.0989
   358.10         631.6998
   358.24         631.9841
   358.38         633.0818
   358.52         635.0145
   358.66         637.6046
   358.80         640.5657
   358.94         643.6334
   359.08         646.6063
   359.22         649.2860
   359.36         651.4002
   359.50         652.6481
   359.64         652.8217
   359.78         651.9377
   359.92         650.1932
   360.06         647.7962
   360.20         644.9249
   360.34         641.7080
   360.48         638.2261
   360.62         634.5947
   360.76         631.0065
   360.90         627.6822
   361.04         624.8199
   361.18         622.5814
   361.32         621.0779
   361.46         620.4028
   361.60         620.6436
   361.74         621.8166
   361.88         623.8047
   362.02         626.3603
   362.16         629.1911
   362.30         632.0145
   362.44         634.5468
   362.58         636.4859
   362.72         637.5444
   362.86         637.5282
   363.00         636.4269
   363.14         634.4466
   363.28         631.9316
   363.42         629.2349
   363.56         626.6296
   363.70         624.3228
   363.84         622.4670
   363.98         621.0879
   364.12         620.1224
   364.26         619.5223
   364.40         619.2219
   364.54         619.1179
   364.68         619.1475
   364.82         619.3410
   364.96         619.8043
   365.10         620.6774
   365.24         622.0754
   365.38         624.0198
   365.52         626.4451
   365.66         629.2385
   365.80         632.1594
   365.94         634.8010
   366.08         636.7167
   366.22         637.5691
   366.36         637.1890
   366.50         635.5540
   366.64         632.8390
   366.78         629.4298
   366.92         625.8148
   367.06         622.4485
   367.20         619.6858
   367.34         617.8211
   367.48         617.0757
   367.62         617.5075
   367.76         618.9713
   367.90         621.1290
   368.04         623.5197
   368.18         625.7155
   368.32         627.4102
   368.46         628.4136
   368.60         628.6478
   368.74         628.1904
   368.88         627.2836
   369.02         626.2181
   369.16         625.2463
   369.30         624.6067
   369.44         624.4809
   369.58         624.9819
   369.72         626.2320
   369.86         628.3637
   370.00         631.4152
   370.14         635.2218
   370.28         639.4487
   370.42         643.8047
   370.56         648.2018
   370.70         652.7120
   370.84         657.3802
   370.98         662.0028
   371.12         666.1675
   371.26         669.5234
   371.40         672.0232
   371.54         673.9408
   371.68         675.6755
   371.82         677.6264
   371.96         680.1303
   372.10         683.2660
   372.24         686.7007
   372.38         689.8321
   372.52         692.0659
   372.66         693.0476
   372.80         692.8307
   372.94         691.8515
   373.08         690.7375
   373.22         690.0748
   373.36         690.2177
   373.50         691.2239
   373.64         692.9054
   373.78         694.9462
   373.92         696.9611
   374.06         698.5354
   374.20         699.3024
   374.34         698.9552
   374.48         697.2696
   374.62         694.2050
   374.76         690.0260
   374.90         685.4520
   375.04         681.6655
   375.18         679.9507
   375.32         681.2001
   375.46         685.6379
   375.60         692.7657
   375.74         701.4292
   375.88         709.9743
   376.02         716.6105
   376.16         719.9346
   376.30         719.3061
   376.44         714.9942
   376.58         708.1077
   376.72         700.3055
   376.86         693.3634
   377.00         688.7529
   377.14         687.4348
   377.28         689.8672
   377.42         696.0953
   377.56         705.7794
   377.70         718.1562
   377.84         732.0889
   377.98         746.2088
   378.12         759.0531
   378.26         769.2332
   378.40         775.6220
   378.54         777.5458
   378.68         774.9750
   378.82         768.5298
   378.96         759.2464
   379.10         748.2785
   379.24         736.7202
   379.38         725.5596
   379.52         715.6831
   379.66         707.9470
   379.80         703.2031
   379.94         702.1510
   380.08         705.1479
   380.22         712.0705
   380.36         722.2816
   380.50         734.7050
   380.64         747.9088
   380.78         760.3323
   380.92         770.6814
   381.06         778.2131
   381.20         782.8131
   381.34         784.8589
   381.48         784.9779
   381.62         783.8517
   381.76         782.0248
   381.90         779.7948
   382.04         777.1686
   382.18         773.8391
   382.32         769.2948
   382.46         763.0429
   382.60         754.8163
   382.74         744.6963
   382.88         733.1345
   383.02         720.8916
   383.16         708.9732
   383.30         698.5667
   383.44         690.9058
   383.58         687.0329
   383.72         687.5349
   383.86         692.3949
   384.00         701.0096
   384.14         712.3182
   384.28         724.9775
   384.42         737.5427
   384.56         748.6737
   384.70         757.3639
   384.84         763.0994
   384.98         765.8852
   385.12         766.1477
   385.26         764.4984
   385.40         761.5080
   385.54         757.6727
   385.68         753.4244
   385.82         749.1176
   385.96         745.0059
   386.10         741.2382
   386.24         737.9365
   386.38         735.2612
   386.52         733.4061
   386.66         732.5050
   386.80         732.5595
   386.94         733.4865
   387.08         735.1140
   387.22         737.0734
   387.36         738.6723
   387.50         738.8995
   387.64         736.6671
   387.78         731.1707
   387.92         722.1778
   388.06         710.1035
   388.20         695.9114
   388.34         680.9177
   388.48         666.5928
   388.62         654.3783
   388.76         645.5065
   388.90         640.8661
   389.04         640.9079
   389.18         645.5697
   389.32         654.2995
   389.46         666.1886
   389.60         680.0599
   389.74         694.5586
   389.88         708.3531
   390.02         720.3254
   390.16         729.7752
   390.30         736.5589
   390.44         740.9556
   390.58         743.3952
   390.72         744.2617
   390.86         743.8225
   391.00         742.2429
   391.14         739.6472
   391.28         736.1502
   391.42         731.8464
   391.56         726.8438
   391.70         721.3171
   391.84         715.4613
   391.98         709.3962
   392.12         703.1251
   392.26         696.6166
   392.40         690.0069
   392.54         683.6175
   392.68         677.7964
   392.82         672.8578
   392.96         669.0889
   393.10         666.7140
   393.24         665.9003
   393.38         666.8023
   393.52         669.5154
   393.66         673.9868
   393.80         679.9440
   393.94         686.8867
   394.08         694.1902
   394.22         701.2345
   394.36         707.4581
   394.50         712.3342
   394.64         715.4242
   394.78         716.5422
   394.92         715.8232
   395.06         713.5907
   395.20         710.0929
   395.34         705.3871
   395.48         699.3564
   395.62         691.7142
   395.76         682.0918
   395.90         670.2682
   396.04         656.4034
   396.18         641.0897
   396.32         625.2350
   396.46         609.8918
   396.60         596.1469
   396.74         585.0565
   396.88         577.5187
   397.02         574.1198
   397.16         575.0599
   397.30         580.1688
   397.44         588.9403
   397.58         600.5392
   397.72         613.8334
   397.86         627.5143
   398.00         640.3033
   398.14         651.1509
   398.28         659.3861
   398.42         664.8304
   398.56         667.8074
   398.70         668.9351
   398.84         668.8260
   398.98         667.9500
   399.12         666.6478
   399.26         665.1650
   399.40         663.6887
   399.54         662.2939
   399.68         660.9131
   399.82         659.4473
   399.96         657.8550
   400.10         656.1387
   400.24         654.3123
   400.38         652.4246
   400.52         650.5971
   400.66         648.9984
   400.80         647.7836
   400.94         647.0650
   401.08         646.8799
   401.22         647.1106
   401.36         647.4222
   401.50         647.3780
   401.64         646.6231
   401.78         644.9764
   401.92         642.4425
   402.06         639.1869
   402.20         635.4744
   402.34         631.6632
   402.48         628.2236
   402.62         625.6377
   402.76         624.2461
   402.90         624.1892
   403.04         625.4228
   403.18         627.7359
   403.32         630.7749
   403.46         634.0998
   403.60         637.2529
   403.74         639.8482
   403.88         641.6741
   404.02         642.7270
   404.16         643.1804
   404.30         643.2861
   404.44         643.2655
   404.58         643.2565
   404.72         643.3126
   404.86         643.4301
   405.00         643.5714
   405.14         643.6775
   405.28         643.6755
   405.42         643.5036
   405.56         643.1634
   405.70         642.7280
   405.84         642.2849
   405.98         641.8879
   406.12         641.5358
   406.26         641.1854
   406.40         640.7757
   406.54         640.2201
   406.68         639.3889
   406.82         638.1514
   406.96         636.4309
   407.10         634.2377
   407.24         631.6667
   407.38         628.8565
   407.52         625.9624
   407.66         623.1322
   407.80         620.5034
   407.94         618.1892
   408.08         616.2329
   408.22         614.5989
   408.36         613.1538
   408.50         611.6375
   408.64         609.6775
   408.78         606.8007
   408.92         602.4671
   409.06         596.2238
   409.20         587.9220
   409.34         577.8228
   409.48         566.5683
   409.62         555.0513
   409.76         544.2461
   409.90         535.0893
   410.04         528.4046
   410.18         524.8210
   410.32         524.6751
   410.46         527.9492
   410.60         534.2409
   410.74         542.8126
   410.88         552.7219
   411.02         562.9520
   411.16         572.5308
   411.30         580.6439
   411.44         586.7414
   411.58         590.6147
   411.72         592.4182
   411.86         592.5635
   412.00         591.5174
   412.14         589.6884
   412.28         587.4096
   412.42         584.9568
   412.56         582.5797
   412.70         580.4760
   412.84         578.7289
   412.98         577.2703
   413.12         575.9149
   413.26         574.4780
   413.40         572.9072
   413.54         571.2970
   413.68         569.8005
   413.82         568.5420
   413.96         567.5923
   414.10         566.9924
   414.24         566.7682
   414.38         566.9523
   414.52         567.5811
   414.66         568.6696
   414.80         570.1991
   414.94         572.0791
   415.08         574.1178
   415.22         576.0547
   415.36         577.6267
   415.50         578.6272
   415.64         578.9469
   415.78         578.6232
   415.92         577.8480
   416.06         576.8706
   416.20         575.8655
   416.34         574.9242
   416.48         574.1061
   416.62         573.4367
   416.76         572.9085
   416.90         572.4918
   417.04         572.1533
   417.18         571.8722
   417.32         571.6513
   417.46         571.5160
   417.60         571.4821
   417.74         571.5473
   417.88         571.7266
   418.02         572.0497
   418.16         572.5203
   418.30         573.0930
   418.44         573.6849
   418.58         574.1751
   418.72         574.4083
   418.86         574.2701
   419.00         573.7400
   419.14         572.8239
   419.28         571.5278
   419.42         569.9259
   419.56         568.1626
   419.70         566.4005
   419.84         564.7783
   419.98         563.4064
   420.12         562.3912
   420.26         561.8217
   420.40         561.7253
   420.54         562.0374
   420.68         562.5937
   420.82         563.2037
   420.96         563.7117
   421.10         563.9948
   421.24         563.9648
   421.38         563.5830
   421.52         562.8534
   421.66         561.8040
   421.80         560.4949
   421.94         559.0512
   422.08         557.6236
   422.22         556.2888
   422.36         555.0386
   422.50         553.8364
   422.64         552.6623
   422.78         551.5159
   422.92         550.3879
   423.06         549.2389
   423.20         548.0295
   423.34         546.7634
   423.48         545.5017
   423.62         544.3361
   423.76         543.3592
   423.90         542.6606
   424.04         542.3150
   424.18         542.3448
   424.32         542.7222
   424.46         543.3803
   424.60         544.1913
   424.74         544.9901
   424.88         545.6419
   425.02         546.0868
   425.16         546.3241
   425.30         546.3541
   425.44         546.1406
   425.58         545.6153
   425.72         544.7019
   425.86         543.3695
   426.00         541.6564
   426.14         539.6525
   426.28         537.4741
   426.42         535.2397
   426.56         533.0614
   426.70         531.0330
   426.84         529.2125
   426.98         527.6365
   427.12         526.3352
   427.26         525.3273
   427.40         524.6265
   427.54         524.2314
   427.68         524.0876
   427.82         524.0862
   427.96         524.1074
   428.10         524.0689
   428.24         523.9549
   428.38         523.8079
   428.52         523.7044
   428.66         523.7199
   428.80         523.9160
   428.94         524.3455
   429.08         525.0438
   429.22         526.0064
   429.36         527.1743
   429.50         528.4432
   429.64         529.6956
   429.78         530.8366
   429.92         531.7880
   430.06         532.4841
   430.20         532.8825
   430.34         532.9606
   430.48         532.7276
   430.62         532.2266
   430.76         531.5162
   430.90         530.6740
   431.04         529.7891
   431.18         528.9322
   431.32         528.1319
   431.46         527.3859
   431.60         526.6829
   431.74         525.9941
   431.88         525.2633
   432.02         524.4147
   432.16         523.3735
   432.30         522.0621
   432.44         520.3564
   432.58         518.0403
   432.72         514.7806
   432.86         510.1990
   433.00         504.0409
   433.14         496.3292
   433.28         487.4160
   433.42         477.9166
   433.56         468.5818
   433.70         460.1652
   433.84         453.3429
   433.98         448.6464
   434.12         446.4105
   434.26         446.7587
   434.40         449.6012
   434.54         454.6340
   434.68         461.3453
   434.82         469.0784
   434.96         477.1234
   435.10         484.8165
   435.24         491.6218
   435.38         497.1997
   435.52         501.4929
   435.66         504.6850
   435.80         507.0448
   435.94         508.7985
   436.08         510.0759
   436.22         510.9413
   436.36         511.4361
   436.50         511.5943
   436.64         511.4491
   436.78         511.0478
   436.92         510.4527
   437.06         509.7067
   437.20         508.8035
   437.34         507.7069
   437.48         506.3673
   437.62         504.6930
   437.76         502.5747
   437.90         499.9697
   438.04         496.9435
   438.18         493.6657
   438.32         490.3827
   438.46         487.3747
   438.60         484.9150
   438.74         483.2258
   438.88         482.4484
   439.02         482.6162
   439.16         483.6566
   439.30         485.4200
   439.44         487.6889
   439.58         490.2005
   439.72         492.6848
   439.86         494.9113
   440.00         496.7084
   440.14         497.9357
   440.28         498.4809
   440.42         498.3124
   440.56         497.4778
   440.70         496.0236
   440.84         493.9731
   440.98         491.3533
   441.12         488.1937
   441.26         484.5354
   441.40         480.4481
   441.54         476.0259
   441.68         471.3859
   441.82         466.6685
   441.96         462.0243
   442.10         457.6059
   442.24         453.5594
   442.38         450.0030
   442.52         447.0213
   442.66         444.6539
   442.80         442.8957
   442.94         441.7350
   443.08         441.1959
   443.22         441.3155
   443.36         442.1063
   443.50         443.5497
   443.64         445.5824
   443.78         448.0905
   443.92         450.9297
   444.06         453.9552
   444.20         457.0377
   444.34         460.0800
   444.48         463.0107
   444.62         465.7622
   444.76         468.2740
   444.90         470.5005
   445.04         472.4036
   445.18         473.9553
   445.32         475.1484
   445.46         475.9954
   445.60         476.4885
   445.74         476.5322
   445.88         475.9308
   446.02         474.4673
   446.16         472.0398
   446.30         468.7367
   446.44         464.8014
   446.58         460.5595
   446.72         456.3434
   446.86         452.4270
   447.00         449.0245
   447.14         446.3244
   447.28         444.4971
   447.42         443.6765
   447.56         443.9247
   447.70         445.1856
   447.84         447.2773
   447.98         449.9421
   448.12         452.8700
   448.26         455.7117
   448.40         458.1625
   448.54         460.0691
   448.68         461.4505
   448.82         462.4477
   448.96         463.2124
   449.10         463.8127
   449.24         464.2485
   449.38         464.5060
   449.52         464.6149
   449.66         464.6898
   449.80         464.8756
   449.94         465.2568
   450.08         465.8261
   450.22         466.5048
   450.36         467.1898
   450.50         467.7922
   450.64         468.2685
   450.78         468.6022
   450.92         468.7705
   451.06         468.7427
   451.20         468.4927
   451.34         468.0120
   451.48         467.3115
   451.62         466.3997
   451.76         465.2669
   451.90         463.9034
   452.04         462.3284
   452.18         460.6119
   452.32         458.8749
   452.46         457.2565
   452.60         455.8811
   452.74         454.8329
   452.88         454.1444
   453.02         453.8031
   453.16         453.7655
   453.30         453.9722
   453.44         454.3504
   453.58         454.8138
   453.72         455.2768
   453.86         455.6625
   454.00         455.8813
   454.14         455.8348
   454.28         455.4635
   454.42         454.7761
   454.56         453.8347
   454.70         452.7464
   454.84         451.6554
   454.98         450.7101
   455.12         450.0171
   455.26         449.6220
   455.40         449.5182
   455.54         449.6499
   455.68         449.9351
   455.82         450.3035
   455.96         450.7004
   456.10         451.0618
   456.24         451.2987
   456.38         451.3153
   456.52         451.0560
   456.66         450.5399
   456.80         449.8564
   456.94         449.1207
   457.08         448.4319
   457.22         447.8650
   457.36         447.4731
   457.50         447.2747
   457.64         447.2452
   457.78         447.3297
   457.92         447.4590
   458.06         447.5686
   458.20         447.6216
   458.34         447.6210
   458.48         447.5993
   458.62         447.5958
   458.76         447.6238
   458.90         447.6665
   459.04         447.7109
   459.18         447.7458
   459.32         447.7217
   459.46         447.5286
   459.60         447.0542
   459.74         446.2546
   459.88         445.1678
   460.02         443.8680
   460.16         442.4422
   460.30         441.0078
   460.44         439.7051
   460.58         438.6671
   460.72         437.9747
   460.86         437.6276
   461.00         437.5537
   461.14         437.6384
   461.28         437.7561
   461.42         437.8181
   461.56         437.7749
   461.70         437.5676
   461.84         437.1321
   461.98         436.4404
   462.12         435.5404
   462.26         434.5434
   462.40         433.5620
   462.54         432.6727
   462.68         431.9096
   462.82         431.2910
   462.96         430.8230
   463.10         430.4692
   463.24         430.1576
   463.38         429.8135
   463.52         429.4044
   463.66         428.9601
   463.80         428.5547
   463.94         428.2796
   464.08         428.2154
   464.22         428.3621
   464.36         428.6450
   464.50         429.0093
   464.64         429.4422
   464.78         429.9403
   464.92         430.4779
   465.06         431.0200
   465.20         431.5426
   465.34         432.0088
   465.48         432.3566
   465.62         432.5232
   465.76         432.4827
   465.90         432.2801
   466.04         432.0083
   466.18         431.7585
   466.32         431.5868
   466.46         431.5031
   466.60         431.4871
   466.74         431.5086
   466.88         431.5515
   467.02         431.6131
   467.16         431.6977
   467.30         431.8238
   467.44         431.9988
   467.58         432.2003
   467.72         432.4015
   467.86         432.5747
   468.00         432.6728
   468.14         432.6615
   468.28         432.5570
   468.42         432.3983
   468.56         432.1873
   468.70         431.8780
   468.84         431.4211
   468.98         430.8072
   469.12         430.0805
   469.26         429.3401
   469.40         428.7078
   469.54         428.2769
   469.68         428.0793
   469.82         428.1019
   469.96         428.2771
   470.10         428.4418
   470.24         428.4077
   470.38         428.0632
   470.52         427.3718
   470.66         426.3406
   470.80         425.0206
   470.94         423.4989
   471.08         421.8645
   471.22         420.1951
   471.36         418.5695
   471.50         417.0485
   471.64         415.6556
   471.78         414.3975
   471.92         413.2894
   472.06         412.3262
   472.20         411.4772
   472.34         410.7356
   472.48         410.1174
   472.62         409.6423
   472.76         409.3701
   472.90         409.4238
   473.04         409.9128
   473.18         410.8329
   473.32         412.0824
   473.46         413.5311
   473.60         415.0524
   473.74         416.5211
   473.88         417.8171
   474.02         418.8398
   474.16         419.5204
   474.30         419.8391
   474.44         419.8113
   474.58         419.4498
   474.72         418.7509
   474.86         417.7233
   475.00         416.3874
   475.14         414.7533
   475.28         412.8484
   475.42         410.7394
   475.56         408.5249
   475.70         406.3268
   475.84         404.2762
   475.98         402.5117
   476.12         401.1560
   476.26         400.2769
   476.40         399.8694
   476.54         399.8481
   476.68         400.0720
   476.82         400.3995
   476.96         400.7216
   477.10         400.9631
   477.24         401.0887
   477.38         401.1044
   477.52         401.0437
   477.66         400.9624
   477.80         400.9445
   477.94         401.0769
   478.08         401.3985
   478.22         401.8859
   478.36         402.4763
   478.50         403.1022
   478.64         403.6967
   478.78         404.1830
   478.92         404.4828
   479.06         404.5196
   479.20         404.2181
   479.34         403.5417
   479.48         402.5304
   479.62         401.2779
   479.76         399.8958
   479.90         398.4932
   480.04         397.1576
   480.18         395.9341
   480.32         394.8157
   480.46         393.7667
   480.60         392.7586
   480.74         391.7810
   480.88         390.8560
   481.02         390.0493
   481.16         389.4288
   481.30         389.0033
   481.44         388.7324
   481.58         388.5711
   481.72         388.4655
   481.86         388.3687
   482.00         388.2842
   482.14         388.2426
   482.28         388.2488
   482.42         388.2795
   482.56         388.3276
   482.70         388.4213
   482.84         388.5912
   482.98         388.8485
   483.12         389.2054
   483.26         389.6770
   483.40         390.2507
   483.54         390.8956
   483.68         391.5719
   483.82         392.2052
   483.96         392.6895
   484.10         392.9162
   484.24         392.7783
   484.38         392.1531
   484.52         390.9186
   484.66         388.9532
   484.80         386.0888
   484.94         382.1254
   485.08         376.9439
   485.22         370.6207
   485.36         363.4414
   485.50         355.8437
   485.64         348.3367
   485.78         341.4512
   485.92         335.6824
   486.06         331.4122
   486.20         328.8865
   486.34         328.1989
   486.48         329.2599
   486.62         331.8186
   486.76         335.5171
   486.90         339.9204
   487.04         344.5513
   487.18         348.9493
   487.32         352.7356
   487.46         355.6775
   487.60         357.7537
   487.74         359.1369
   487.88         360.0819
   488.02         360.8256
   488.16         361.5300
   488.30         362.2557
   488.44         363.0073
   488.58         363.7702
   488.72         364.5140
   488.86         365.2096
   489.00         365.8241
   489.14         366.3185
   489.28         366.6706
   489.42         366.8817
   489.56         366.9690
   489.70         366.9811
   489.84         366.9901
   489.98         367.0769
   490.12         367.3041
   490.26         367.6698
   490.40         368.0969
   490.54         368.4811
   490.68         368.7391
   490.82         368.7762
   490.96         368.4217
   491.10         367.4603
   491.24         365.7667
   491.38         363.3765
   491.52         360.4558
   491.66         357.2646
   491.80         354.1217
   491.94         351.3457
   492.08         349.1961
   492.22         347.8554
   492.36         347.4385
   492.50         347.9607
   492.64         349.3230
   492.78         351.3388
   492.92         353.7862
   493.06         356.4523
   493.20         359.1475
   493.34         361.7059
   493.48         363.9644
   493.62         365.7842
   493.76         367.1240
   493.90         368.0535
   494.04         368.6520
   494.18         368.9588
   494.32         369.0265
   494.46         368.9104
   494.60         368.6203
   494.74         368.1597
   494.88         367.5877
   495.02         366.9900
   495.16         366.4082
   495.30         365.8366
   495.44         365.2578
   495.58         364.6517
   495.72         363.9812
   495.86         363.1994
   496.00         362.2760
   496.14         361.2111
   496.28         360.0405
   496.42         358.8149
   496.56         357.5849
   496.70         356.4190
   496.84         355.4056
   496.98         354.6188
   497.12         354.0840
   497.26         353.8039
   497.40         353.8050
   497.54         354.0894
   497.68         354.5853
   497.82         355.1815
   497.96         355.7634
   498.10         356.2341
   498.24         356.5499
   498.38         356.7246
   498.52         356.7875
   498.66         356.7566
   498.80         356.6170
   498.94         356.3100
   499.08         355.7754
   499.22         354.9924
   499.36         353.9669
   499.50         352.7253
   499.64         351.3521
   499.78         349.9615
   499.92         348.6217
   500.06         347.3273
   500.20         346.0039
   500.34         344.5420
   500.48         342.8637
   500.62         340.9933
   500.76         339.0588
   500.90         337.2322
   501.04         335.6711
   501.18         334.4814
   501.32         333.7181
   501.46         333.3957
   501.60         333.5079
   501.74         334.0436
   501.88         334.9392
   502.02         336.0657
   502.16         337.2909
   502.30         338.4921
   502.44         339.5259
   502.58         340.2628
   502.72         340.6544
   502.86         340.7311
   503.00         340.5793
   503.14         340.3518
   503.28         340.2078
   503.42         340.2012
   503.56         340.2795
   503.70         340.3542
   503.84         340.3371
   503.98         340.1569
   504.12         339.7707
   504.26         339.1727
   504.40         338.3822
   504.54         337.4174
   504.68         336.3437
   504.82         335.3059
   504.96         334.4493
   505.10         333.8664
   505.24         333.5978
   505.38         333.6451
   505.52         333.9719
   505.66         334.5217
   505.80         335.2338
   505.94         336.0245
   506.08         336.7931
   506.22         337.4541
   506.36         337.9584
   506.50         338.2984
   506.64         338.4878
   506.78         338.5553
   506.92         338.5498
   507.06         338.5238
   507.20         338.5241
   507.34         338.5815
   507.48         338.6774
   507.62         338.7460
   507.76         338.7417
   507.90         338.6714
   508.04         338.5641
   508.18         338.4150
   508.32         338.2025
   508.46         337.9095
   508.60         337.5042
   508.74         336.9747
   508.88         336.3579
   509.02         335.7231
   509.16         335.1343
   509.30         334.6324
   509.44         334.2390
   509.58         333.9382
   509.72         333.6791
   509.86         333.4049
   510.00         333.0642
   510.14         332.6365
   510.28         332.1401
   510.42         331.6163
   510.56         331.1058
   510.70         330.6224
   510.84         330.1605
   510.98         329.7346
   511.12         329.3637
   511.26         329.0537
   511.40         328.8143
   511.54         328.6445
   511.68         328.5104
   511.82         328.3650
   511.96         328.1817
   512.10         327.9400
   512.24         327.6036
   512.38         327.1533
   512.52         326.6057
   512.66         325.9901
   512.80         325.3522
   512.94         324.7649
   513.08         324.2924
   513.22         323.9477
   513.36         323.7234
   513.50         323.6429
   513.64         323.7436
   513.78         324.0337
   513.92         324.4793
   514.06         325.0113
   514.20         325.5452
   514.34         326.0030
   514.48         326.3280
   514.62         326.4776
   514.76         326.4198
   514.90         326.1512
   515.04         325.7084
   515.18         325.1385
   515.32         324.4814
   515.46         323.7939
   515.60         323.1350
   515.74         322.5366
   515.88         322.0264
   516.02         321.6539
   516.16         321.4498
   516.30         321.3805
   516.44         321.3817
   516.58         321.4187
   516.72         321.4720
   516.86         321.5285
   517.00         321.6055
   517.14         321.7357
   517.28         321.9508
   517.42         322.2662
   517.56         322.6529
   517.70         323.0476
   517.84         323.3893
   517.98         323.6363
   518.12         323.7659
   518.26         323.7773
   518.40         323.6905
   518.54         323.5266
   518.68         323.2877
   518.82         322.9606
   518.96         322.5440
   519.10         322.0523
   519.24         321.4828
   519.38         320.8134
   519.52         320.0434
   519.66         319.1908
   519.80         318.2708
   519.94         317.2989
   520.08         316.2838
   520.22         315.2357
   520.36         314.2033
   520.50         313.2627
   520.64         312.4793
   520.78         311.8961
   520.92         311.5270
   521.06         311.3507
   521.20         311.3153
   521.34         311.3599
   521.48         311.4456
   521.62         311.5577
   521.76         311.6737
   521.90         311.7734
   522.04         311.8601
   522.18         311.9169
   522.32         311.8988
   522.46         311.7627
   522.60         311.4783
   522.74         311.0401
   522.88         310.4555
   523.02         309.7474
   523.16         308.9501
   523.30         308.0953
   523.44         307.2210
   523.58         306.3778
   523.72         305.6056
   523.86         304.9038
   524.00         304.2719
   524.14         303.7421
   524.28         303.3461
   524.42         303.0825
   524.56         302.9295
   524.70         302.8558
   524.84         302.8302
   524.98         302.8541
   525.12         302.9583
   525.26         303.1757
   525.40         303.5098
   525.54         303.9196
   525.68         304.3638
   525.82         304.8065
   525.96         305.1901
   526.10         305.4486
   526.24         305.5153
   526.38         305.3256
   526.52         304.8468
   526.66         304.1072
   526.80         303.1731
   526.94         302.1061
   527.08         300.9650
   527.22         299.8303
   527.36         298.7947
   527.50         297.9387
   527.64         297.3121
   527.78         296.9355
   527.92         296.8021
   528.06         296.8899
   528.20         297.1715
   528.34         297.5903
   528.48         298.0448
   528.62         298.4173
   528.76         298.6120
   528.90         298.5891
   529.04         298.3803
   529.18         298.0597
   529.32         297.7107
   529.46         297.3922
   529.60         297.1178
   529.74         296.8936
   529.88         296.7395
   530.02         296.6730
   530.16         296.6963
   530.30         296.7892
   530.44         296.9196
   530.58         297.0445
   530.72         297.1072
   530.86         297.0547
   531.00         296.8464
   531.14         296.4685
   531.28         295.9496
   531.42         295.3368
   531.56         294.6844
   531.70         294.0311
   531.84         293.3813
   531.98         292.7290
   532.12         292.0824
   532.26         291.4828
   532.40         290.9915
   532.54         290.6504
   532.68         290.4683
   532.82         290.4271
   532.96         290.4899
   533.10         290.6205
   533.24         290.7753
   533.38         290.8997
   533.52         290.9469
   533.66         290.8744
   533.80         290.6541
   533.94         290.2866
   534.08         289.7910
   534.22         289.2065
   534.36         288.5831
   534.50         287.9692
   534.64         287.4051
   534.78         286.9247
   534.92         286.5529
   535.06         286.2934
   535.20         286.1354
   535.34         286.0640
   535.48         286.0527
   535.62         286.0709
   535.76         286.1059
   535.90         286.1443
   536.04         286.1720
   536.18         286.1791
   536.32         286.1484
   536.46         286.0629
   536.60         285.8999
   536.74         285.6400
   536.88         285.2816
   537.02         284.8400
   537.16         284.3482
   537.30         283.8442
   537.44         283.3639
   537.58         282.9391
   537.72         282.5870
   537.86         282.3104
   538.00         282.0998
   538.14         281.9306
   538.28         281.7777
   538.42         281.6169
   538.56         281.4036
   538.70         281.0955
   538.84         280.6792
   538.98         280.1707
   539.12         279.5990
   539.26         278.9845
   539.40         278.3479
   539.54         277.7095
   539.68         277.0914
   539.82         276.5256
   539.96         276.0395
   540.10         275.6518
   540.24         275.3667
   540.38         275.1804
   540.52         275.0879
   540.66         275.0657
   540.80         275.0742
   540.94         275.0777
   541.08         275.0520
   541.22         274.9936
   541.36         274.9257
   541.50         274.8691
   541.64         274.8192
   541.78         274.7568
   541.92         274.6647
   542.06         274.5364
   542.20         274.3631
   542.34         274.1402
   542.48         273.8756
   542.62         273.5701
   542.76         273.2173
   542.90         272.8225
   543.04         272.4029
   543.18         271.9567
   543.32         271.4525
   543.46         270.8717
   543.60         270.2240
   543.74         269.5227
   543.88         268.7698
   544.02         267.9541
   544.16         267.0557
   544.30         266.0703
   544.44         265.0159
   544.58         263.9223
   544.72         262.8360
   544.86         261.8238
   545.00         260.9744
   545.14         260.3662
   545.28         260.0263
   545.42         259.9434
   545.56         260.0878
   545.70         260.4135
   545.84         260.8676
   545.98         261.3914
   546.12         261.9224
   546.26         262.3930
   546.40         262.7361
   546.54         262.9165
   546.68         262.9250
   546.82         262.7556
   546.96         262.4112
   547.10         261.9144
   547.24         261.3144
   547.38         260.6729
   547.52         260.0340
   547.66         259.4129
   547.80         258.8191
   547.94         258.2817
   548.08         257.8418
   548.22         257.5287
   548.36         257.3461
   548.50         257.2854
   548.64         257.3386
   548.78         257.5060
   548.92         257.7942
   549.06         258.2068
   549.20         258.7315
   549.34         259.3200
   549.48         259.8997
   549.62         260.4001
   549.76         260.7583
   549.90         260.9162
   550.04         260.8386
   550.18         260.5368
   550.32         260.0710
   550.46         259.5235
   550.60         258.9579
   550.74         258.4109
   550.88         257.9040
   551.02         257.4630
   551.16         257.1139
   551.30         256.8548
   551.44         256.6471
   551.58         256.4328
   551.72         256.1583
   551.86         255.7821
   552.00         255.2756
   552.14         254.6344
   552.28         253.8878
   552.42         253.0912
   552.56         252.3136
   552.70         251.6301
   552.84         251.0974
   552.98         250.7296
   553.12         250.5008
   553.26         250.3738
   553.40         250.3242
   553.54         250.3408
   553.68         250.4258
   553.82         250.5726
   553.96         250.7593
   554.10         250.9623
   554.24         251.1628
   554.38         251.3660
   554.52         251.5930
   554.66         251.8597
   554.80         252.1748
   554.94         252.5382
   555.08         252.9348
   555.22         253.3372
   555.36         253.7104
   555.50         254.0093
   555.64         254.1762
   555.78         254.1623
   555.92         253.9591
   556.06         253.5912
   556.20         253.0994
   556.34         252.5274
   556.48         251.9138
   556.62         251.3013
   556.76         250.7239
   556.90         250.2041
   557.04         249.7684
   557.18         249.4267
   557.32         249.1694
   557.46         248.9887
   557.60         248.8783
   557.74         248.8232
   557.88         248.8008
   558.02         248.7859
   558.16         248.7572
   558.30         248.7122
   558.44         248.6730
   558.58         248.6679
   558.72         248.7118
   558.86         248.8109
   559.00         248.9603
   559.14         249.1420
   559.28         249.3230
   559.42         249.4526
   559.56         249.5060
   559.70         249.5016
   559.84         249.4677
   559.98         249.4379
   560.12         249.4337
   560.26         249.4442
   560.40         249.4422
   560.54         249.4146
   560.68         249.3745
   560.82         249.3482
   560.96         249.3624
   561.10         249.4295
   561.24         249.5383
   561.38         249.6570
   561.52         249.7407
   561.66         249.7474
   561.80         249.6458
   561.94         249.4113
   562.08         249.0335
   562.22         248.5355
   562.36         247.9520
   562.50         247.2986
   562.64         246.5657
   562.78         245.7315
   562.92         244.7966
   563.06         243.8018
   563.20         242.8139
   563.34         241.8973
   563.48         241.0936
   563.62         240.4285
   563.76         239.9151
   563.90         239.5399
   564.04         239.2841
   564.18         239.1403
   564.32         239.0933
   564.46         239.1104
   564.60         239.1536
   564.74         239.1999
   564.88         239.2391
   565.02         239.2593
   565.16         239.2304
   565.30         239.1170
   565.44         238.9073
   565.58         238.6055
   565.72         238.2142
   565.86         237.7375
   566.00         237.1854
   566.14         236.5746
   566.28         235.9332
   566.42         235.2861
   566.56         234.6460
   566.70         234.0328
   566.84         233.4559
   566.98         232.9152
   567.12         232.4357
   567.26         232.0586
   567.40         231.8121
   567.54         231.7007
   567.68         231.7138
   567.82         231.8313
   567.96         232.0304
   568.10         232.2794
   568.24         232.5362
   568.38         232.7641
   568.52         232.9287
   568.66         232.9982
   568.80         232.9524
   568.94         232.7810
   569.08         232.4703
   569.22         232.0059
   569.36         231.3895
   569.50         230.6456
   569.64         229.8326
   569.78         229.0250
   569.92         228.2813
   570.06         227.6436
   570.20         227.1515
   570.34         226.8432
   570.48         226.7370
   570.62         226.8203
   570.76         227.0641
   570.90         227.4332
   571.04         227.8889
   571.18         228.3868
   571.32         228.8831
   571.46         229.3345
   571.60         229.6952
   571.74         229.9230
   571.88         229.9929
   572.02         229.9171
   572.16         229.7374
   572.30         229.4889
   572.44         229.1803
   572.58         228.8203
   572.72         228.4214
   572.86         227.9844
   573.00         227.5095
   573.14         226.9987
   573.28         226.4557
   573.42         225.8906
   573.56         225.3201
   573.70         224.7694
   573.84         224.2633
   573.98         223.8117
   574.12         223.4191
   574.26         223.0954
   574.40         222.8561
   574.54         222.7250
   574.68         222.7335
   574.82         222.9007
   574.96         223.2176
   575.10         223.6541
   575.24         224.1730
   575.38         224.7258
   575.52         225.2644
   575.66         225.7464
   575.80         226.1249
   575.94         226.3553
   576.08         226.4114
   576.22         226.2921
   576.36         226.0048
   576.50         225.5433
   576.64         224.8776
   576.78         223.9605
   576.92         222.7481
   577.06         221.2221
   577.20         219.4105
   577.34         217.4024
   577.48         215.3209
   577.62         213.2917
   577.76         211.4414
   577.90         209.8930
   578.04         208.7520
   578.18         208.0806
   578.32         207.8850
   578.46         208.1251
   578.60         208.7165
   578.74         209.5365
   578.88         210.4544
   579.02         211.3475
   579.16         212.1092
   579.30         212.6658
   579.44         213.0032
   579.58         213.1757
   579.72         213.2726
   579.86         213.3805
   580.00         213.5593
   580.14         213.8257
   580.28         214.1717
   580.42         214.5781
   580.56         215.0146
   580.70         215.4419
   580.84         215.8075
   580.98         216.0652
   581.12         216.1956
   581.26         216.2127
   581.40         216.1651
   581.54         216.1088
   581.68         216.0726
   581.82         216.0532
   581.96         216.0336
   582.10         216.0058
   582.24         215.9644
   582.38         215.9033
   582.52         215.8294
   582.66         215.7496
   582.80         215.6604
   582.94         215.5452
   583.08         215.3717
   583.22         215.1116
   583.36         214.7584
   583.50         214.3379
   583.64         213.9001
   583.78         213.4883
   583.92         213.1222
   584.06         212.7977
   584.20         212.4962
   584.34         212.2006
   584.48         211.9090
   584.62         211.6365
   584.76         211.4055
   584.90         211.2349
   585.04         211.1431
   585.18         211.1408
   585.32         211.2214
   585.46         211.3720
   585.60         211.5896
   585.74         211.8789
   585.88         212.2319
   586.02         212.6055
   586.16         212.9005
   586.30         212.9466
   586.44         212.5567
   586.58         211.6413
   586.72         210.2421
   586.86         208.4864
   587.00         206.5439
   587.14         204.6000
   587.28         202.8421
   587.42         201.4437
   587.56         200.5109
   587.70         200.0175
   587.84         199.8056
   587.98         199.6726
   588.12         199.4608
   588.26         199.0361
   588.40         198.2388
   588.54         196.9228
   588.68         195.0475
   588.82         192.7216
   588.96         190.1779
   589.10         187.7497
   589.24         185.8158
   589.38         184.6743
   589.52         184.4747
   589.66         185.2335
   589.80         186.8492
   589.94         189.1267
   590.08         191.8031
   590.22         194.5784
   590.36         197.1823
   590.50         199.4396
   590.64         201.2827
   590.78         202.6946
   590.92         203.6479
   591.06         204.1475
   591.20         204.2854
   591.34         204.2084
   591.48         204.0407
   591.62         203.8402
   591.76         203.6238
   591.90         203.3976
   592.04         203.1625
   592.18         202.9187
   592.32         202.6700
   592.46         202.4239
   592.60         202.1934
   592.74         201.9990
   592.88         201.8477
   593.02         201.7077
   593.16         201.5205
   593.30         201.2272
   593.44         200.7938
   593.58         200.2050
   593.72         199.4597
   593.86         198.5724
   594.00         197.5623
   594.14         196.4651
   594.28         195.3371
   594.42         194.2548
   594.56         193.3170
   594.70         192.6163
   594.84         192.2187
   594.98         192.1605
   595.12         192.4420
   595.26         193.0259
   595.40         193.8470
   595.54         194.8138
   595.68         195.8248
   595.82         196.7976
   595.96         197.6647
   596.10         198.3664
   596.24         198.8511
   596.38         199.0849
   596.52         199.0607
   596.66         198.8036
   596.80         198.3698
   596.94         197.8236
   597.08         197.2263
   597.22         196.6411
   597.36         196.1239
   597.50         195.7176
   597.64         195.4432
   597.78         195.2845
   597.92         195.2091
   598.06         195.1924
   598.20         195.2076
   598.34         195.2218
   598.48         195.1984
   598.62         195.0954
   598.76         194.8788
   598.90         194.5492
   599.04         194.1424
   599.18         193.7106
   599.32         193.2969
   599.46         192.9080
   599.60         192.5256
   599.74         192.1272
   599.88         191.7013
   600.02         191.2514
   600.16         190.7885
   600.30         190.3282
   600.44         189.8851
   600.58         189.4793
   600.72         189.1300
   600.86         188.8397
   601.00         188.6036
   601.14         188.4123
   601.28         188.2463
   601.42         188.0838
   601.56         187.9083
   601.70         187.6893
   601.84         187.3723
   601.98         186.9043
   602.12         186.2663
   602.26         185.4867
   602.40         184.6242
   602.54         183.7474
   602.68         182.9281
   602.82         182.2204
   602.96         181.6430
   603.10         181.1972
   603.24         180.8844
   603.38         180.7052
   603.52         180.6523
   603.66         180.7029
   603.80         180.8301
   603.94         181.0121
   604.08         181.2396
   604.22         181.5164
   604.36         181.8486
   604.50         182.2435
   604.64         182.7060
   604.78         183.2255
   604.92         183.7764
   605.06         184.3286
   605.20         184.8484
   605.34         185.2969
   605.48         185.6336
   605.62         185.8282
   605.76         185.8829
   605.90         185.8251
   606.04         185.6891
   606.18         185.5054
   606.32         185.3043
   606.46         185.1243
   606.60         184.9955
   606.74         184.9279
   606.88         184.9207
   607.02         184.9613
   607.16         185.0210
   607.30         185.0661
   607.44         185.0741
   607.58         185.0396
   607.72         184.9695
   607.86         184.8718
   608.00         184.7538
   608.14         184.6193
   608.28         184.4692
   608.42         184.3106
   608.56         184.1522
   608.70         183.9909
   608.84         183.8121
   608.98         183.6092
   609.12         183.3843
   609.26         183.1475
   609.40         182.9219
   609.54         182.7356
   609.68         182.6126
   609.82         182.5686
   609.96         182.6199
   610.10         182.7797
   610.24         183.0438
   610.38         183.3899
   610.52         183.7801
   610.66         184.1654
   610.80         184.5032
   610.94         184.7729
   611.08         184.9696
   611.22         185.0920
   611.36         185.1356
   611.50         185.1011
   611.64         185.0087
   611.78         184.8905
   611.92         184.7752
   612.06         184.6751
   612.20         184.5837
   612.34         184.4881
   612.48         184.3687
   612.62         184.2061
   612.76         183.9861
   612.90         183.7021
   613.04         183.3639
   613.18         182.9946
   613.32         182.6250
   613.46         182.2891
   613.60         182.0157
   613.74         181.8181
   613.88         181.6916
   614.02         181.6210
   614.16         181.5888
   614.30         181.5728
   614.44         181.5414
   614.58         181.4545
   614.72         181.2886
   614.86         181.0554
   615.00         180.7890
   615.14         180.5304
   615.28         180.3206
   615.42         180.2026
   615.56         180.2017
   615.70         180.3055
   615.84         180.4669
   615.98         180.6181
   616.12         180.6878
   616.26         180.6199
   616.40         180.3817
   616.54         179.9615
   616.68         179.3728
   616.82         178.6463
   616.96         177.8208
   617.10         176.9502
   617.24         176.1018
   617.38         175.3470
   617.52         174.7381
   617.66         174.2960
   617.80         174.0247
   617.94         173.9207
   618.08         173.9701
   618.22         174.1363
   618.36         174.3713
   618.50         174.6402
   618.64         174.9270
   618.78         175.2282
   618.92         175.5348
   619.06         175.8167
   619.20         176.0308
   619.34         176.1470
   619.48         176.1595
   619.62         176.0775
   619.76         175.9234
   619.90         175.7364
   620.04         175.5681
   620.18         175.4670
   620.32         175.4715
   620.46         175.6084
   620.60         175.8848
   620.74         176.2884
   620.88         176.7932
   621.02         177.3636
   621.16         177.9639
   621.30         178.5588
   621.44         179.1052
   621.58         179.5560
   621.72         179.8687
   621.86         180.0168
   622.00         180.0000
   622.14         179.8303
   622.28         179.5171
   622.42         179.0846
   622.56         178.5725
   622.70         178.0157
   622.84         177.4393
   622.98         176.8695
   623.12         176.3377
   623.26         175.8746
   623.40         175.5026
   623.54         175.2295
   623.68         175.0531
   623.82         174.9669
   623.96         174.9574
   624.10         175.0083
   624.24         175.1062
   624.38         175.2367
   624.52         175.3888
   624.66         175.5597
   624.80         175.7381
   624.94         175.9028
   625.08         176.0330
   625.22         176.1034
   625.36         176.0876
   625.50         175.9660
   625.64         175.7200
   625.78         175.3282
   625.92         174.7785
   626.06         174.0816
   626.20         173.2702
   626.34         172.3796
   626.48         171.4376
   626.62         170.4654
   626.76         169.4727
   626.90         168.4506
   627.04         167.3673
   627.18         166.1824
   627.32         164.8735
   627.46         163.4531
   627.60         161.9815
   627.74         160.5548
   627.88         159.2818
   628.02         158.2712
   628.16         157.6109
   628.30         157.3521
   628.44         157.5192
   628.58         158.1151
   628.72         159.1047
   628.86         160.4015
   629.00         161.8809
   629.14         163.4170
   629.28         164.8915
   629.42         166.1897
   629.56         167.2233
   629.70         167.9517
   629.84         168.3846
   629.98         168.5713
   630.12         168.5790
   630.26         168.4698
   630.40         168.2902
   630.54         168.0772
   630.68         167.8582
   630.82         167.6452
   630.96         167.4494
   631.10         167.2890
   631.24         167.1795
   631.38         167.1245
   631.52         167.1205
   631.66         167.1656
   631.80         167.2606
   631.94         167.3950
   632.08         167.5528
   632.22         167.7292
   632.36         167.9182
   632.50         168.0899
   632.64         168.2044
   632.78         168.2417
   632.92         168.2004
   633.06         168.0808
   633.20         167.8731
   633.34         167.5590
   633.48         167.1293
   633.62         166.6013
   633.76         166.0189
   633.90         165.4409
   634.04         164.9268
   634.18         164.5314
   634.32         164.3032
   634.46         164.2688
   634.60         164.4200
   634.74         164.7327
   634.88         165.1808
   635.02         165.7190
   635.16         166.2870
   635.30         166.8354
   635.44         167.3246
   635.58         167.7044
   635.72         167.9162
   635.86         167.9078
   636.00         167.6554
   636.14         167.1833
   636.28         166.5542
   636.42         165.8344
   636.56         165.0752
   636.70         164.3190
   636.84         163.6062
   636.98         162.9705
   637.12         162.4350
   637.26         162.0210
   637.40         161.7585
   637.54         161.6696
   637.68         161.7498
   637.82         161.9891
   637.96         162.3832
   638.10         162.9155
   638.24         163.5519
   638.38         164.2457
   638.52         164.9460
   638.66         165.6091
   638.80         166.1993
   638.94         166.6779
   639.08         167.0024
   639.22         167.1446
   639.36         167.1037
   639.50         166.9056
   639.64         166.5966
   639.78         166.2341
   639.92         165.8751
   640.06         165.5599
   640.20         165.3116
   640.34         165.1457
   640.48         165.0718
   640.62         165.0827
   640.76         165.1520
   640.90         165.2476
   641.04         165.3419
   641.18         165.4187
   641.32         165.4755
   641.46         165.5210
   641.60         165.5659
   641.74         165.6171
   641.88         165.6789
   642.02         165.7511
   642.16         165.8236
   642.30         165.8789
   642.44         165.9052
   642.58         165.8972
   642.72         165.8535
   642.86         165.7818
   643.00         165.6891
   643.14         165.5782
   643.28         165.4538
   643.42         165.3204
   643.56         165.1742
   643.70         164.9973
   643.84         164.7715
   643.98         164.4909
   644.12         164.1569
   644.26         163.7760
   644.40         163.3666
   644.54         162.9522
   644.68         162.5475
   644.82         162.1647
   644.96         161.8188
   645.10         161.5171
   645.24         161.2468
   645.38         160.9939
   645.52         160.7570
   645.66         160.5366
   645.80         160.3314
   645.94         160.1400
   646.08         159.9597
   646.22         159.7892
   646.36         159.6383
   646.50         159.5339
   646.64         159.4988
   646.78         159.5350
   646.92         159.6310
   647.06         159.7684
   647.20         159.9210
   647.34         160.0573
   647.48         160.1571
   647.62         160.2181
   647.76         160.2458
   647.90         160.2537
   648.04         160.2658
   648.18         160.2990
   648.32         160.3549
   648.46         160.4296
   648.60         160.5239
   648.74         160.6401
   648.88         160.7818
   649.02         160.9575
   649.16         161.1668
   649.30         161.3879
   649.44         161.5923
   649.58         161.7610
   649.72         161.8961
   649.86         162.0181
   650.00         162.1515
   650.14         162.3201
   650.28         162.5366
   650.42         162.7940
   650.56         163.0795
   650.70         163.3838
   650.84         163.6947
   650.98         163.9965
   651.12         164.2815
   651.26         164.5495
   651.40         164.7989
   651.54         165.0198
   651.68         165.1943
   651.82         165.3012
   651.96         165.3295
   652.10         165.2840
   652.24         165.1763
   652.38         165.0228
   652.52         164.8357
   652.66         164.6178
   652.80         164.3677
   652.94         164.0865
   653.08         163.7856
   653.22         163.4888
   653.36         163.2240
   653.50         163.0148
   653.64         162.8775
   653.78         162.8191
   653.92         162.8339
   654.06         162.9046
   654.20         163.0062
   654.34         163.1106
   654.48         163.1863
   654.62         163.1907
   654.76         163.0646
   654.90         162.7386
   655.04         162.1521
   655.18         161.2719
   655.32         160.1105
   655.46         158.7314
   655.60         157.2393
   655.74         155.7674
   655.88         154.4546
   656.02         153.4225
   656.16         152.7572
   656.30         152.4906
   656.44         152.5935
   656.58         152.9823
   656.72         153.5432
   656.86         154.1591
   657.00         154.7183
   657.14         155.1264
   657.28         155.3279
   657.42         155.3171
   657.56         155.1422
   657.70         154.8966
   657.84         154.6912
   657.98         154.6222
   658.12         154.7473
   658.26         155.0802
   658.40         155.5969
   658.54         156.2355
   658.68         156.9100
   658.82         157.5295
   658.96         158.0115
   659.10         158.3017
   659.24         158.3894
   659.38         158.3051
   659.52         158.0947
   659.66         157.7983
   659.80         157.4511
   659.94         157.0788
   660.08         156.6837
   660.22         156.2446
   660.36         155.7366
   660.50         155.1481
   660.64         154.4850
   660.78         153.7638
   660.92         153.0105
   661.06         152.2649
   661.20         151.5783
   661.34         151.0111
   661.48         150.6195
   661.62         150.4388
   661.76         150.4783
   661.90         150.7152
   662.04         151.1008
   662.18         151.5740
   662.32         152.0698
   662.46         152.5279
   662.60         152.8991
   662.74         153.1515
   662.88         153.2752
   663.02         153.2822
   663.16         153.1926
   663.30         153.0246
   663.44         152.7979
   663.58         152.5414
   663.72         152.2910
   663.86         152.0766
   664.00         151.9134
   664.14         151.7961
   664.28         151.7105
   664.42         151.6459
   664.56         151.5903
   664.70         151.5380
   664.84         151.4919
   664.98         151.4563
   665.12         151.4392
   665.26         151.4408
   665.40         151.4506
   665.54         151.4584
   665.68         151.4553
   665.82         151.4366
   665.96         151.3940
   666.10         151.3054
   666.24         151.1346
   666.38         150.8194
   666.52         150.2684
   666.66         149.3943
   666.80         148.1649
   666.94         146.6345
   667.08         144.9231
   667.22         143.1788
   667.36         141.5619
   667.50         140.2191
   667.64         139.2621
   667.78         138.7623
   667.92         138.7475
   668.06         139.2094
   668.20         140.0999
   668.34         141.3188
   668.48         142.7294
   668.62         144.1783
   668.76         145.5138
   668.90         146.6083
   669.04         147.3810
   669.18         147.8193
   669.32         147.9831
   669.46         147.9733
   669.60         147.8820
   669.74         147.7638
   669.88         147.6444
   670.02         147.5372
   670.16         147.4471
   670.30         147.3746
   670.44         147.3162
   670.58         147.2586
   670.72         147.1794
   670.86         147.0615
   671.00         146.9019
   671.14         146.7096
   671.28         146.5002
   671.42         146.2888
   671.56         146.0920
   671.70         145.9304
   671.84         145.8234
   671.98         145.7814
   672.12         145.8031
   672.26         145.8774
   672.40         145.9869
   672.54         146.1168
   672.68         146.2578
   672.82         146.3975
   672.96         146.5123
   673.10         146.5745
   673.24         146.5721
   673.38         146.5161
   673.52         146.4295
   673.66         146.3265
   673.80         146.2106
   673.94         146.0840
   674.08         145.9491
   674.22         145.8103
   674.36         145.6777
   674.50         145.5648
   674.64         145.4770
   674.78         145.4105
   674.92         145.3622
   675.06         145.3317
   675.20         145.3200
   675.34         145.3221
   675.48         145.3232
   675.62         145.3113
   675.76         145.2858
   675.90         145.2548
   676.04         145.2217
   676.18         145.1756
   676.32         145.0967
   676.46         144.9638
   676.60         144.7630
   676.74         144.4961
   676.88         144.1742
   677.02         143.8096
   677.16         143.4125
   677.30         142.9929
   677.44         142.5742
   677.58         142.1930
   677.72         141.8852
   677.86         141.6777
   678.00         141.5779
   678.14         141.5720
   678.28         141.6379
   678.42         141.7541
   678.56         141.9020
   678.70         142.0636
   678.84         142.2215
   678.98         142.3626
   679.12         142.4828
   679.26         142.5855
   679.40         142.6763
   679.54         142.7621
   679.68         142.8533
   679.82         142.9604
   679.96         143.0840
   680.10         143.2129
   680.24         143.3242
   680.38         143.3914
   680.52         143.3949
   680.66         143.3245
   680.80         143.1864
   680.94         143.0023
   681.08         142.7970
   681.22         142.5891
   681.36         142.3937
   681.50         142.2249
   681.64         142.0915
   681.78         141.9943
   681.92         141.9264
   682.06         141.8795
   682.20         141.8444
   682.34         141.8101
   682.48         141.7628
   682.62         141.6853
   682.76         141.5641
   682.90         141.3969
   683.04         141.1933
   683.18         140.9664
   683.32         140.7244
   683.46         140.4715
   683.60         140.2179
   683.74         139.9819
   683.88         139.7786
   684.02         139.6162
   684.16         139.4997
   684.30         139.4322
   684.44         139.4156
   684.58         139.4538
   684.72         139.5476
   684.86         139.6912
   685.00         139.8693
   685.14         140.0448
   685.28         140.1597
   685.42         140.1373
   685.56         139.8626
   685.70         139.1878
   685.84         137.9755
   685.98         136.1427
   686.12         133.6854
   686.26         130.6807
   686.40         127.2712
   686.54         123.6502
   686.68         120.0496
   686.82         116.7197
   686.96         113.9025
   687.10         111.8002
   687.24         110.5435
   687.38         110.1637
   687.52         110.5932
   687.66         111.6780
   687.80         113.1989
   687.94         114.9145
   688.08         116.5925
   688.22         118.0442
   688.36         119.1674
   688.50         119.9492
   688.64         120.4361
   688.78         120.7006
   688.92         120.8223
   689.06         120.8827
   689.20         120.9579
   689.34         121.1105
   689.48         121.3839
   689.62         121.7986
   689.76         122.3461
   689.90         122.9923
   690.04         123.6921
   690.18         124.4084
   690.32         125.1153
   690.46         125.7911
   690.60         126.4149
   690.74         126.9670
   690.88         127.4377
   691.02         127.8236
   691.16         128.1238
   691.30         128.3505
   691.44         128.5309
   691.58         128.6965
   691.72         128.8712
   691.86         129.0684
   692.00         129.2992
   692.14         129.5685
   692.28         129.8637
   692.42         130.1553
   692.56         130.4051
   692.70         130.5777
   692.84         130.6481
   692.98         130.6033
   693.12         130.4484
   693.26         130.2068
   693.40         129.9189
   693.54         129.6317
   693.68         129.3815
   693.82         129.1999
   693.96         129.1179
   694.10         129.1514
   694.24         129.2924
   694.38         129.5155
   694.52         129.7947
   694.66         130.1087
   694.80         130.4249
   694.94         130.7058
   695.08         130.9283
   695.22         131.0840
   695.36         131.1727
   695.50         131.2010
   695.64         131.1851
   695.78         131.1494
   695.92         131.1191
   696.06         131.1217
   696.20         131.1836
   696.34         131.3254
   696.48         131.5560
   696.62         131.8580
   696.76         132.1944
   696.90         132.5257
   697.04         132.8188
   697.18         133.0548
   697.32         133.2188
   697.46         133.2877
   697.60         133.2399
   697.74         133.0641
   697.88         132.7575
   698.02         132.3248
   698.16         131.7843
   698.30         131.1669
   698.44         130.5076
   698.58         129.8379
   698.72         129.1790
   698.86         128.5407
   699.00         127.9286
   699.14         127.3425
   699.28         126.7853
   699.42         126.2814
   699.56         125.8704
   699.70         125.5876
   699.84         125.4525
   699.98         125.4709
   700.12         125.6400
   700.26         125.9463
   700.40         126.3654
   700.54         126.8649
   700.68         127.4097
   700.82         127.9658
   700.96         128.5014
   701.10         128.9844
   701.24         129.3837
   701.38         129.6772
   701.52         129.8603
   701.66         129.9421
   701.80         129.9388
   701.94         129.8763
   702.08         129.7871
   702.22         129.6972
   702.36         129.6193
   702.50         129.5559
   702.64         129.5044
   702.78         129.4549
   702.92         129.4003
   703.06         129.3513
   703.20         129.3284
   703.34         129.3442
   703.48         129.3967
   703.62         129.4731
   703.76         129.5564
   703.90         129.6285
   704.04         129.6751
   704.18         129.6872
   704.32         129.6642
   704.46         129.6123
   704.60         129.5347
   704.74         129.4275
   704.88         129.2769
   705.02         129.0543
   705.16         128.7135
   705.30         128.2104
   705.44         127.5322
   705.58         126.7097
   705.72         125.8041
   705.86         124.8902
   706.00         124.0455
   706.14         123.3415
   706.28         122.8378
   706.42         122.5824
   706.56         122.6075
   706.70         122.9172
   706.84         123.4851
   706.98         124.2593
   707.12         125.1620
   707.26         126.0976
   707.40         126.9752
   707.54         127.7240
   707.68         128.2997
   707.82         128.6901
   707.96         128.9227
   708.10         129.0513
   708.24         129.1298
   708.38         129.1956
   708.52         129.2606
   708.66         129.3109
   708.80         129.3168
   708.94         129.2545
   709.08         129.1227
   709.22         128.9349
   709.36         128.7069
   709.50         128.4548
   709.64         128.1956
   709.78         127.9469
   709.92         127.7276
   710.06         127.5633
   710.20         127.4770
   710.34         127.4767
   710.48         127.5562
   710.62         127.6985
   710.76         127.8735
   710.90         128.0452
   711.04         128.1775
   711.18         128.2381
   711.32         128.2117
   711.46         128.1045
   711.60         127.9434
   711.74         127.7595
   711.88         127.5683
   712.02         127.3782
   712.16         127.2011
   712.30         127.0556
   712.44         126.9618
   712.58         126.9289
   712.72         126.9534
   712.86         127.0238
   713.00         127.1259
   713.14         127.2438
   713.28         127.3585
   713.42         127.4500
   713.56         127.5119
   713.70         127.5533
   713.84         127.5895
   713.98         127.6294
   714.12         127.6706
   714.26         127.7120
   714.40         127.7497
   714.54         127.7768
   714.68         127.7943
   714.82         127.8092
   714.96         127.8308
   715.10         127.8631
   715.24         127.8995
   715.38         127.9264
   715.52         127.9263
   715.66         127.8812
   715.80         127.7692
   715.94         127.5660
   716.08         127.2567
   716.22         126.8409
   716.36         126.3253
   716.50         125.7238
   716.64         125.0600
   716.78         124.3647
   716.92         123.6691
   717.06         122.9940
   717.20         122.3466
   717.34         121.7235
   717.48         121.1216
   717.62         120.5452
   717.76         119.9938
   717.90         119.4518
   718.04         118.8959
   718.18         118.3172
   718.32         117.7292
   718.46         117.1533
   718.60         116.6137
   718.74         116.1350
   718.88         115.7380
   719.02         115.4462
   719.16         115.2783
   719.30         115.2281
   719.44         115.2666
   719.58         115.3665
   719.72         115.5129
   719.86         115.7106
   720.00         115.9859
   720.14         116.3781
   720.28         116.9165
   720.42         117.5972
   720.56         118.3908
   720.70         119.2682
   720.84         120.2087
   720.98         121.1785
   721.12         122.1173
   721.26         122.9538
   721.40         123.6272
   721.54         124.0973
   721.68         124.3408
   721.82         124.3435
   721.96         124.1040
   722.10         123.6443
   722.24         123.0051
   722.38         122.2431
   722.52         121.4310
   722.66         120.6343
   722.80         119.8910
   722.94         119.2146
   723.08         118.6054
   723.22         118.0624
   723.36         117.5858
   723.50         117.1722
   723.64         116.8115
   723.78         116.4837
   723.92         116.1658
   724.06         115.8410
   724.20         115.5009
   724.34         115.1541
   724.48         114.8248
   724.62         114.5342
   724.76         114.2960
   724.90         114.1206
   725.04         114.0161
   725.18         113.9757
   725.32         113.9709
   725.46         113.9792
   725.60         114.0035
   725.74         114.0634
   725.88         114.1693
   726.02         114.3053
   726.16         114.4401
   726.30         114.5411
   726.44         114.5742
   726.58         114.5215
   726.72         114.3918
   726.86         114.1941
   727.00         113.9236
   727.14         113.5727
   727.28         113.1457
   727.42         112.6702
   727.56         112.1922
   727.70         111.7551
   727.84         111.3890
   727.98         111.1127
   728.12         110.9356
   728.26         110.8475
   728.40         110.8213
   728.54         110.8268
   728.68         110.8465
   728.82         110.8837
   728.96         110.9441
   729.10         111.0214
   729.24         111.1165
   729.38         111.2398
   729.52         111.3973
   729.66         111.5924
   729.80         111.8281
   729.94         112.1006
   730.08         112.3925
   730.22         112.6679
   730.36         112.8746
   730.50         112.9675
   730.64         112.9375
   730.78         112.8126
   730.92         112.6402
   731.06         112.4725
   731.20         112.3510
   731.34         112.2976
   731.48         112.3143
   731.62         112.3878
   731.76         112.5019
   731.90         112.6412
   732.04         112.7829
   732.18         112.8893
   732.32         112.9197
   732.46         112.8473
   732.60         112.6587
   732.74         112.3510
   732.88         111.9314
   733.02         111.4167
   733.16         110.8419
   733.30         110.2576
   733.44         109.7112
   733.58         109.2318
   733.72         108.8209
   733.86         108.4594
   734.00         108.1305
   734.14         107.8341
   734.28         107.5840
   734.42         107.3928
   734.56         107.2610
   734.70         107.1856
   734.84         107.1669
   734.98         107.2059
   735.12         107.2934
   735.26         107.4077
   735.40         107.5214
   735.54         107.6008
   735.68         107.6161
   735.82         107.5556
   735.96         107.4227
   736.10         107.2261
   736.24         106.9765
   736.38         106.6913
   736.52         106.4057
   736.66         106.1661
   736.80         106.0108
   736.94         105.9572
   737.08         105.9996
   737.22         106.1247
   737.36         106.3179
   737.50         106.5541
   737.64         106.7985
   737.78         107.0154
   737.92         107.1803
   738.06         107.2819
   738.20         107.3164
   738.34         107.2848
   738.48         107.1866
   738.62         107.0182
   738.76         106.7828
   738.90         106.4946
   739.04         106.1792
   739.18         105.8731
   739.32         105.6156
   739.46         105.4389
   739.60         105.3562
   739.74         105.3586
   739.88         105.4254
   740.02         105.5285
   740.16         105.6373
   740.30         105.7271
   740.44         105.7738
   740.58         105.7521
   740.72         105.6402
   740.86         105.4286
   741.00         105.1294
   741.14         104.7736
   741.28         104.3982
   741.42         104.0379
   741.56         103.7260
   741.70         103.4911
   741.84         103.3434
   741.98         103.2705
   742.12         103.2532
   742.26         103.2717
   742.40         103.3077
   742.54         103.3474
   742.68         103.3792
   742.82         103.3959
   742.96         103.3959
   743.10         103.3792
   743.24         103.3474
   743.38         103.3077
   743.52         103.2717
   743.66         103.2532
   743.80         103.2705
   743.94         103.3434
   744.08         103.4911
   744.22         103.7260
