# File HD190785
# Wavelength [nm]    Normalized Amplitude
   349.70         20.0217
   349.84         19.9196
   349.98         19.8138
   350.12         19.7103
   350.26         19.6160
   350.40         19.5361
   350.54         19.4735
   350.68         19.4288
   350.82         19.3996
   350.96         19.3831
   351.10         19.3777
   351.24         19.3831
   351.38         19.3996
   351.52         19.4288
   351.66         19.4735
   351.80         19.5361
   351.94         19.6160
   352.08         19.7103
   352.22         19.8138
   352.36         19.9196
   352.50         20.0217
   352.64         20.1169
   352.78         20.2046
   352.92         20.2848
   353.06         20.3564
   353.20         20.4198
   353.34         20.4763
   353.48         20.5255
   353.62         20.5657
   353.76         20.5953
   353.90         20.6096
   354.04         20.6003
   354.18         20.5605
   354.32         20.4896
   354.46         20.3920
   354.60         20.2734
   354.74         20.1412
   354.88         20.0048
   355.02         19.8733
   355.16         19.7545
   355.30         19.6529
   355.44         19.5674
   355.58         19.4924
   355.72         19.4221
   355.86         19.3513
   356.00         19.2743
   356.14         19.1865
   356.28         19.0879
   356.42         18.9812
   356.56         18.8699
   356.70         18.7590
   356.84         18.6555
   356.98         18.5662
   357.12         18.4963
   357.26         18.4497
   357.40         18.4287
   357.54         18.4322
   357.68         18.4552
   357.82         18.4909
   357.96         18.5333
   358.10         18.5777
   358.24         18.6208
   358.38         18.6612
   358.52         18.6965
   358.66         18.7226
   358.80         18.7357
   358.94         18.7338
   359.08         18.7177
   359.22         18.6890
   359.36         18.6488
   359.50         18.5976
   359.64         18.5360
   359.78         18.4663
   359.92         18.3911
   360.06         18.3117
   360.20         18.2299
   360.34         18.1487
   360.48         18.0713
   360.62         18.0005
   360.76         17.9385
   360.90         17.8887
   361.04         17.8522
   361.18         17.8263
   361.32         17.8077
   361.46         17.7963
   361.60         17.7934
   361.74         17.7976
   361.88         17.8033
   362.02         17.8053
   362.16         17.8029
   362.30         17.8008
   362.44         17.8071
   362.58         17.8289
   362.72         17.8696
   362.86         17.9285
   363.00         18.0016
   363.14         18.0834
   363.28         18.1691
   363.42         18.2531
   363.56         18.3276
   363.70         18.3848
   363.84         18.4212
   363.98         18.4384
   364.12         18.4408
   364.26         18.4335
   364.40         18.4228
   364.54         18.4174
   364.68         18.4282
   364.82         18.4657
   364.96         18.5354
   365.10         18.6364
   365.24         18.7618
   365.38         18.9012
   365.52         19.0430
   365.66         19.1751
   365.80         19.2877
   365.94         19.3744
   366.08         19.4311
   366.22         19.4567
   366.36         19.4528
   366.50         19.4214
   366.64         19.3644
   366.78         19.2842
   366.92         19.1839
   367.06         19.0672
   367.20         18.9388
   367.34         18.8054
   367.48         18.6750
   367.62         18.5557
   367.76         18.4544
   367.90         18.3768
   368.04         18.3257
   368.18         18.3008
   368.32         18.3000
   368.46         18.3210
   368.60         18.3622
   368.74         18.4241
   368.88         18.5078
   369.02         18.6122
   369.16         18.7327
   369.30         18.8616
   369.44         18.9909
   369.58         19.1163
   369.72         19.2366
   369.86         19.3516
   370.00         19.4614
   370.14         19.5657
   370.28         19.6650
   370.42         19.7661
   370.56         19.8835
   370.70         20.0309
   370.84         20.2124
   370.98         20.4198
   371.12         20.6383
   371.26         20.8562
   371.40         21.0711
   371.54         21.2870
   371.68         21.5092
   371.82         21.7423
   371.96         21.9858
   372.10         22.2319
   372.24         22.4636
   372.38         22.6573
   372.52         22.7955
   372.66         22.8804
   372.80         22.9352
   372.94         22.9980
   373.08         23.1097
   373.22         23.2990
   373.36         23.5722
   373.50         23.9168
   373.64         24.3077
   373.78         24.7100
   373.92         25.0835
   374.06         25.3901
   374.20         25.5999
   374.34         25.6986
   374.48         25.6903
   374.62         25.5994
   374.76         25.4721
   374.90         25.3709
   375.04         25.3661
   375.18         25.5206
   375.32         25.8705
   375.46         26.4092
   375.60         27.0831
   375.74         27.7977
   375.88         28.4368
   376.02         28.8887
   376.16         29.0752
   376.30         28.9692
   376.44         28.6050
   376.58         28.0785
   376.72         27.5287
   376.86         27.1086
   377.00         26.9577
   377.14         27.1832
   377.28         27.8475
   377.42         28.9615
   377.56         30.4803
   377.70         32.3076
   377.84         34.3051
   377.98         36.3061
   378.12         38.1301
   378.26         39.6016
   378.40         40.5745
   378.54         40.9527
   378.68         40.7043
   378.82         39.8643
   378.96         38.5321
   379.10         36.8596
   379.24         35.0331
   379.38         33.2524
   379.52         31.7120
   379.66         30.5821
   379.80         29.9910
   379.94         30.0154
   380.08         30.6763
   380.22         31.9383
   380.36         33.7144
   380.50         35.8791
   380.64         38.2809
   380.78         40.7580
   380.92         43.1540
   381.06         45.3327
   381.20         47.1895
   381.34         48.6539
   381.48         49.6835
   381.62         50.2575
   381.76         50.3704
   381.90         50.0239
   382.04         49.2250
   382.18         47.9870
   382.32         46.3351
   382.46         44.3157
   382.60         42.0056
   382.74         39.5118
   382.88         36.9671
   383.02         34.5242
   383.16         32.3440
   383.30         30.5798
   383.44         29.3609
   383.58         28.7810
   383.72         28.8897
   383.86         29.6871
   384.00         31.1225
   384.14         33.0971
   384.28         35.4781
   384.42         38.1152
   384.56         40.8557
   384.70         43.5595
   384.84         46.1104
   384.98         48.4227
   385.12         50.4458
   385.26         52.1640
   385.40         53.5890
   385.54         54.7510
   385.68         55.6906
   385.82         56.4473
   385.96         57.0517
   386.10         57.5212
   386.24         57.8589
   386.38         58.0548
   386.52         58.0878
   386.66         57.9281
   386.80         57.5416
   386.94         56.8990
   387.08         55.9784
   387.22         54.7637
   387.36         53.2424
   387.50         51.4068
   387.64         49.2612
   387.78         46.8345
   387.92         44.1884
   388.06         41.4174
   388.20         38.6430
   388.34         36.0032
   388.48         33.6396
   388.62         31.6861
   388.76         30.2555
   388.90         29.4288
   389.04         29.2516
   389.18         29.7317
   389.32         30.8367
   389.46         32.4966
   389.60         34.6116
   389.74         37.0605
   389.88         39.7098
   390.02         42.4221
   390.16         45.0696
   390.30         47.5516
   390.44         49.8057
   390.58         51.8042
   390.72         53.5431
   390.86         55.0339
   391.00         56.2969
   391.14         57.3580
   391.28         58.2437
   391.42         58.9767
   391.56         59.5756
   391.70         60.0528
   391.84         60.4062
   391.98         60.6104
   392.12         60.6174
   392.26         60.3767
   392.40         59.8608
   392.54         59.0841
   392.68         58.1085
   392.82         57.0342
   392.96         55.9799
   393.10         55.0634
   393.24         54.3846
   393.38         54.0127
   393.52         53.9763
   393.66         54.2630
   393.80         54.8237
   393.94         55.5764
   394.08         56.4162
   394.22         57.2259
   394.36         57.8879
   394.50         58.2969
   394.64         58.3728
   394.78         58.0755
   394.92         57.4133
   395.06         56.4288
   395.20         55.1723
   395.34         53.6793
   395.48         51.9607
   395.62         50.0115
   395.76         47.8253
   395.90         45.4085
   396.04         42.7922
   396.18         40.0437
   396.32         37.2698
   396.46         34.6050
   396.60         32.1954
   396.74         30.1844
   396.88         28.6979
   397.02         27.8310
   397.16         27.6411
   397.30         28.1425
   397.44         29.3003
   397.58         31.0340
   397.72         33.2270
   397.86         35.7384
   398.00         38.4162
   398.14         41.1143
   398.28         43.7101
   398.42         46.1152
   398.56         48.2753
   398.70         50.1704
   398.84         51.8070
   398.98         53.2060
   399.12         54.3936
   399.26         55.3968
   399.40         56.2403
   399.54         56.9481
   399.68         57.5453
   399.82         58.0561
   399.96         58.4980
   400.10         58.8798
   400.24         59.2063
   400.38         59.4840
   400.52         59.7223
   400.66         59.9306
   400.80         60.1147
   400.94         60.2786
   401.08         60.4200
   401.22         60.5331
   401.36         60.6149
   401.50         60.6637
   401.64         60.6779
   401.78         60.6582
   401.92         60.6095
   402.06         60.5402
   402.20         60.4618
   402.34         60.3863
   402.48         60.3224
   402.62         60.2743
   402.76         60.2442
   402.90         60.2366
   403.04         60.2561
   403.18         60.2996
   403.32         60.3544
   403.46         60.4035
   403.60         60.4324
   403.74         60.4313
   403.88         60.3971
   404.02         60.3316
   404.16         60.2388
   404.30         60.1236
   404.44         59.9921
   404.58         59.8518
   404.72         59.7102
   404.86         59.5738
   405.00         59.4477
   405.14         59.3333
   405.28         59.2274
   405.42         59.1233
   405.56         59.0154
   405.70         58.8970
   405.84         58.7589
   405.98         58.5939
   406.12         58.3983
   406.26         58.1712
   406.40         57.9133
   406.54         57.6255
   406.68         57.3083
   406.82         56.9624
   406.96         56.5908
   407.10         56.1988
   407.24         55.7894
   407.38         55.3610
   407.52         54.9056
   407.66         54.4098
   407.80         53.8559
   407.94         53.2224
   408.08         52.4864
   408.22         51.6267
   408.36         50.6203
   408.50         49.4417
   408.64         48.0677
   408.78         46.4816
   408.92         44.6763
   409.06         42.6590
   409.20         40.4574
   409.34         38.1269
   409.48         35.7528
   409.62         33.4438
   409.76         31.3189
   409.90         29.4962
   410.04         28.0849
   410.18         27.1755
   410.32         26.8288
   410.46         27.0691
   410.60         27.8799
   410.74         29.2080
   410.88         30.9697
   411.02         33.0548
   411.16         35.3366
   411.30         37.6879
   411.44         39.9963
   411.58         42.1728
   411.72         44.1525
   411.86         45.8967
   412.00         47.3919
   412.14         48.6409
   412.28         49.6586
   412.42         50.4700
   412.56         51.1101
   412.70         51.6225
   412.84         52.0500
   412.98         52.4267
   413.12         52.7763
   413.26         53.1135
   413.40         53.4458
   413.54         53.7738
   413.68         54.0917
   413.82         54.3902
   413.96         54.6587
   414.10         54.8855
   414.24         55.0601
   414.38         55.1769
   414.52         55.2400
   414.66         55.2607
   414.80         55.2531
   414.94         55.2327
   415.08         55.2130
   415.22         55.2052
   415.36         55.2151
   415.50         55.2407
   415.64         55.2760
   415.78         55.3160
   415.92         55.3572
   416.06         55.3939
   416.20         55.4161
   416.34         55.4110
   416.48         55.3678
   416.62         55.2814
   416.76         55.1528
   416.90         54.9886
   417.04         54.7981
   417.18         54.5921
   417.32         54.3818
   417.46         54.1815
   417.60         54.0067
   417.74         53.8686
   417.88         53.7765
   418.02         53.7337
   418.16         53.7365
   418.30         53.7779
   418.44         53.8454
   418.58         53.9212
   418.72         53.9861
   418.86         54.0240
   419.00         54.0278
   419.14         53.9969
   419.28         53.9343
   419.42         53.8468
   419.56         53.7452
   419.70         53.6443
   419.84         53.5592
   419.98         53.5021
   420.12         53.4817
   420.26         53.4989
   420.40         53.5464
   420.54         53.6117
   420.68         53.6804
   420.82         53.7413
   420.96         53.7874
   421.10         53.8120
   421.24         53.8102
   421.38         53.7788
   421.52         53.7150
   421.66         53.6182
   421.80         53.4913
   421.94         53.3406
   422.08         53.1746
   422.22         52.9998
   422.36         52.8206
   422.50         52.6428
   422.64         52.4769
   422.78         52.3353
   422.92         52.2280
   423.06         52.1638
   423.20         52.1496
   423.34         52.1861
   423.48         52.2653
   423.62         52.3690
   423.76         52.4727
   423.90         52.5555
   424.04         52.6039
   424.18         52.6113
   424.32         52.5785
   424.46         52.5121
   424.60         52.4223
   424.74         52.3190
   424.88         52.2111
   425.02         52.1089
   425.16         52.0235
   425.30         51.9632
   425.44         51.9296
   425.58         51.9193
   425.72         51.9266
   425.86         51.9395
   426.00         51.9422
   426.14         51.9205
   426.28         51.8654
   426.42         51.7764
   426.56         51.6609
   426.70         51.5281
   426.84         51.3871
   426.98         51.2475
   427.12         51.1180
   427.26         51.0049
   427.40         50.9119
   427.54         50.8408
   427.68         50.7896
   427.82         50.7539
   427.96         50.7280
   428.10         50.7038
   428.24         50.6739
   428.38         50.6327
   428.52         50.5751
   428.66         50.4996
   428.80         50.4071
   428.94         50.2986
   429.08         50.1742
   429.22         50.0308
   429.36         49.8652
   429.50         49.6755
   429.64         49.4601
   429.78         49.2194
   429.92         48.9571
   430.06         48.6803
   430.20         48.3968
   430.34         48.1119
   430.48         47.8317
   430.62         47.5636
   430.76         47.3142
   430.90         47.0856
   431.04         46.8707
   431.18         46.6526
   431.32         46.4103
   431.46         46.1226
   431.60         45.7704
   431.74         45.3379
   431.88         44.8116
   432.02         44.1814
   432.16         43.4368
   432.30         42.5660
   432.44         41.5568
   432.58         40.3976
   432.72         39.0787
   432.86         37.5953
   433.00         35.9539
   433.14         34.1823
   433.28         32.3328
   433.42         30.4791
   433.56         28.7078
   433.70         27.1120
   433.84         25.7843
   433.98         24.8071
   434.12         24.2419
   434.26         24.1251
   434.40         24.4645
   434.54         25.2391
   434.68         26.4004
   434.82         27.8768
   434.96         29.5812
   435.10         31.4193
   435.24         33.2982
   435.38         35.1365
   435.52         36.8723
   435.66         38.4664
   435.80         39.9009
   435.94         41.1733
   436.08         42.2901
   436.22         43.2616
   436.36         44.0989
   436.50         44.8131
   436.64         45.4181
   436.78         45.9327
   436.92         46.3764
   437.06         46.7628
   437.20         47.0992
   437.34         47.3888
   437.48         47.6328
   437.62         47.8310
   437.76         47.9823
   437.90         48.0874
   438.04         48.1477
   438.18         48.1659
   438.32         48.1484
   438.46         48.1033
   438.60         48.0396
   438.74         47.9668
   438.88         47.8921
   439.02         47.8201
   439.16         47.7561
   439.30         47.7066
   439.44         47.6758
   439.58         47.6631
   439.72         47.6642
   439.86         47.6749
   440.00         47.6911
   440.14         47.7104
   440.28         47.7297
   440.42         47.7429
   440.56         47.7417
   440.70         47.7175
   440.84         47.6683
   440.98         47.5991
   441.12         47.5186
   441.26         47.4377
   441.40         47.3687
   441.54         47.3224
   441.68         47.3071
   441.82         47.3269
   441.96         47.3794
   442.10         47.4554
   442.24         47.5416
   442.38         47.6221
   442.52         47.6835
   442.66         47.7188
   442.80         47.7254
   442.94         47.6996
   443.08         47.6387
   443.22         47.5454
   443.36         47.4286
   443.50         47.3010
   443.64         47.1740
   443.78         47.0562
   443.92         46.9538
   444.06         46.8701
   444.20         46.8046
   444.34         46.7552
   444.48         46.7212
   444.62         46.7023
   444.76         46.6970
   444.90         46.7025
   445.04         46.7149
   445.18         46.7297
   445.32         46.7423
   445.46         46.7438
   445.60         46.7228
   445.74         46.6718
   445.88         46.5905
   446.02         46.4850
   446.16         46.3632
   446.30         46.2332
   446.44         46.1032
   446.58         45.9791
   446.72         45.8628
   446.86         45.7510
   447.00         45.6356
   447.14         45.5089
   447.28         45.3678
   447.42         45.2151
   447.56         45.0589
   447.70         44.9075
   447.84         44.7674
   447.98         44.6432
   448.12         44.5395
   448.26         44.4618
   448.40         44.4181
   448.54         44.4152
   448.68         44.4544
   448.82         44.5289
   448.96         44.6271
   449.10         44.7355
   449.24         44.8416
   449.38         44.9355
   449.52         45.0108
   449.66         45.0670
   449.80         45.1105
   449.94         45.1498
   450.08         45.1882
   450.22         45.2212
   450.36         45.2376
   450.50         45.2270
   450.64         45.1862
   450.78         45.1158
   450.92         45.0157
   451.06         44.8868
   451.20         44.7334
   451.34         44.5612
   451.48         44.3783
   451.62         44.1965
   451.76         44.0289
   451.90         43.8858
   452.04         43.7725
   452.18         43.6899
   452.32         43.6364
   452.46         43.6090
   452.60         43.6031
   452.74         43.6122
   452.88         43.6302
   453.02         43.6516
   453.16         43.6755
   453.30         43.7037
   453.44         43.7340
   453.58         43.7600
   453.72         43.7728
   453.86         43.7616
   454.00         43.7167
   454.14         43.6324
   454.28         43.5083
   454.42         43.3484
   454.56         43.1613
   454.70         42.9601
   454.84         42.7612
   454.98         42.5814
   455.12         42.4368
   455.26         42.3400
   455.40         42.2978
   455.54         42.3110
   455.68         42.3756
   455.82         42.4847
   455.96         42.6264
   456.10         42.7829
   456.24         42.9358
   456.38         43.0703
   456.52         43.1779
   456.66         43.2570
   456.80         43.3084
   456.94         43.3339
   457.08         43.3352
   457.22         43.3130
   457.36         43.2664
   457.50         43.1939
   457.64         43.0965
   457.78         42.9777
   457.92         42.8435
   458.06         42.7010
   458.20         42.5600
   458.34         42.4307
   458.48         42.3204
   458.62         42.2336
   458.76         42.1740
   458.90         42.1439
   459.04         42.1429
   459.18         42.1690
   459.32         42.2211
   459.46         42.2965
   459.60         42.3901
   459.74         42.4960
   459.88         42.6064
   460.02         42.7118
   460.16         42.8049
   460.30         42.8819
   460.44         42.9396
   460.58         42.9738
   460.72         42.9800
   460.86         42.9567
   461.00         42.9058
   461.14         42.8293
   461.28         42.7293
   461.42         42.6101
   461.56         42.4770
   461.70         42.3348
   461.84         42.1910
   461.98         42.0544
   462.12         41.9301
   462.26         41.8167
   462.40         41.7097
   462.54         41.6070
   462.68         41.5097
   462.82         41.4223
   462.96         41.3507
   463.10         41.2995
   463.24         41.2703
   463.38         41.2625
   463.52         41.2742
   463.66         41.3021
   463.80         41.3415
   463.94         41.3882
   464.08         41.4375
   464.22         41.4824
   464.36         41.5164
   464.50         41.5364
   464.64         41.5418
   464.78         41.5312
   464.92         41.5056
   465.06         41.4707
   465.20         41.4347
   465.34         41.4010
   465.48         41.3687
   465.62         41.3348
   465.76         41.2969
   465.90         41.2524
   466.04         41.2008
   466.18         41.1438
   466.32         41.0867
   466.46         41.0366
   466.60         40.9985
   466.74         40.9747
   466.88         40.9676
   467.02         40.9805
   467.16         41.0142
   467.30         41.0674
   467.44         41.1367
   467.58         41.2156
   467.72         41.2933
   467.86         41.3574
   468.00         41.3985
   468.14         41.4120
   468.28         41.3964
   468.42         41.3529
   468.56         41.2839
   468.70         41.1918
   468.84         41.0794
   468.98         40.9522
   469.12         40.8170
   469.26         40.6806
   469.40         40.5512
   469.54         40.4350
   469.68         40.3348
   469.82         40.2516
   469.96         40.1866
   470.10         40.1394
   470.24         40.1064
   470.38         40.0827
   470.52         40.0641
   470.66         40.0471
   470.80         40.0276
   470.94         40.0022
   471.08         39.9697
   471.22         39.9290
   471.36         39.8787
   471.50         39.8208
   471.64         39.7628
   471.78         39.7133
   471.92         39.6763
   472.06         39.6478
   472.20         39.6204
   472.34         39.5893
   472.48         39.5530
   472.62         39.5107
   472.76         39.4588
   472.90         39.3938
   473.04         39.3153
   473.18         39.2266
   473.32         39.1348
   473.46         39.0480
   473.60         38.9715
   473.74         38.9081
   473.88         38.8587
   474.02         38.8252
   474.16         38.8091
   474.30         38.8090
   474.44         38.8198
   474.58         38.8343
   474.72         38.8465
   474.86         38.8524
   475.00         38.8467
   475.14         38.8242
   475.28         38.7822
   475.42         38.7185
   475.56         38.6328
   475.70         38.5281
   475.84         38.4103
   475.98         38.2839
   476.12         38.1495
   476.26         38.0073
   476.40         37.8607
   476.54         37.7141
   476.68         37.5713
   476.82         37.4366
   476.96         37.3152
   477.10         37.2124
   477.24         37.1320
   477.38         37.0765
   477.52         37.0462
   477.66         37.0408
   477.80         37.0614
   477.94         37.1074
   478.08         37.1740
   478.22         37.2565
   478.36         37.3513
   478.50         37.4516
   478.64         37.5482
   478.78         37.6329
   478.92         37.7013
   479.06         37.7487
   479.20         37.7681
   479.34         37.7553
   479.48         37.7110
   479.62         37.6375
   479.76         37.5376
   479.90         37.4155
   480.04         37.2777
   480.18         37.1313
   480.32         36.9822
   480.46         36.8373
   480.60         36.7042
   480.74         36.5893
   480.88         36.4944
   481.02         36.4154
   481.16         36.3457
   481.30         36.2777
   481.44         36.2031
   481.58         36.1135
   481.72         36.0026
   481.86         35.8689
   482.00         35.7157
   482.14         35.5466
   482.28         35.3644
   482.42         35.1728
   482.56         34.9771
   482.70         34.7806
   482.84         34.5837
   482.98         34.3834
   483.12         34.1738
   483.26         33.9467
   483.40         33.6905
   483.54         33.3920
   483.68         33.0413
   483.82         32.6334
   483.96         32.1649
   484.10         31.6337
   484.24         31.0398
   484.38         30.3840
   484.52         29.6650
   484.66         28.8801
   484.80         28.0251
   484.94         27.0962
   485.08         26.0939
   485.22         25.0258
   485.36         23.9117
   485.50         22.7869
   485.64         21.6975
   485.78         20.6967
   485.92         19.8401
   486.06         19.1796
   486.20         18.7568
   486.34         18.5991
   486.48         18.7165
   486.62         19.0998
   486.76         19.7231
   486.90         20.5457
   487.04         21.5146
   487.18         22.5699
   487.32         23.6532
   487.46         24.7153
   487.60         25.7207
   487.74         26.6472
   487.88         27.4836
   488.02         28.2270
   488.16         28.8785
   488.30         29.4397
   488.44         29.9155
   488.58         30.3142
   488.72         30.6460
   488.86         30.9207
   489.00         31.1495
   489.14         31.3445
   489.28         31.5176
   489.42         31.6792
   489.56         31.8364
   489.70         31.9928
   489.84         32.1563
   489.98         32.3382
   490.12         32.5455
   490.26         32.7788
   490.40         33.0321
   490.54         33.2966
   490.68         33.5640
   490.82         33.8264
   490.96         34.0765
   491.10         34.3060
   491.24         34.5051
   491.38         34.6646
   491.52         34.7778
   491.66         34.8424
   491.80         34.8609
   491.94         34.8393
   492.08         34.7857
   492.22         34.7110
   492.36         34.6299
   492.50         34.5587
   492.64         34.5068
   492.78         34.4759
   492.92         34.4666
   493.06         34.4789
   493.20         34.5113
   493.34         34.5608
   493.48         34.6223
   493.62         34.6875
   493.76         34.7484
   493.90         34.8001
   494.04         34.8391
   494.18         34.8631
   494.32         34.8732
   494.46         34.8696
   494.60         34.8494
   494.74         34.8104
   494.88         34.7538
   495.02         34.6847
   495.16         34.6103
   495.30         34.5379
   495.44         34.4730
   495.58         34.4178
   495.72         34.3700
   495.86         34.3241
   496.00         34.2752
   496.14         34.2213
   496.28         34.1622
   496.42         34.0999
   496.56         34.0373
   496.70         33.9767
   496.84         33.9196
   496.98         33.8651
   497.12         33.8090
   497.26         33.7485
   497.40         33.6849
   497.54         33.6214
   497.68         33.5610
   497.82         33.5048
   497.96         33.4517
   498.10         33.3998
   498.24         33.3494
   498.38         33.3050
   498.52         33.2736
   498.66         33.2601
   498.80         33.2650
   498.94         33.2838
   499.08         33.3088
   499.22         33.3300
   499.36         33.3366
   499.50         33.3199
   499.64         33.2749
   499.78         33.2039
   499.92         33.1132
   500.06         33.0089
   500.20         32.8972
   500.34         32.7836
   500.48         32.6725
   500.62         32.5677
   500.76         32.4722
   500.90         32.3870
   501.04         32.3111
   501.18         32.2413
   501.32         32.1741
   501.46         32.1099
   501.60         32.0519
   501.74         32.0046
   501.88         31.9720
   502.02         31.9558
   502.16         31.9562
   502.30         31.9713
   502.44         31.9978
   502.58         32.0296
   502.72         32.0598
   502.86         32.0833
   503.00         32.0958
   503.14         32.0957
   503.28         32.0858
   503.42         32.0708
   503.56         32.0558
   503.70         32.0442
   503.84         32.0387
   503.98         32.0428
   504.12         32.0578
   504.26         32.0808
   504.40         32.1058
   504.54         32.1260
   504.68         32.1375
   504.82         32.1391
   504.96         32.1286
   505.10         32.1035
   505.24         32.0630
   505.38         32.0092
   505.52         31.9476
   505.66         31.8850
   505.80         31.8280
   505.94         31.7806
   506.08         31.7433
   506.22         31.7153
   506.36         31.6969
   506.50         31.6909
   506.64         31.6990
   506.78         31.7192
   506.92         31.7489
   507.06         31.7856
   507.20         31.8260
   507.34         31.8640
   507.48         31.8926
   507.62         31.9068
   507.76         31.9054
   507.90         31.8902
   508.04         31.8634
   508.18         31.8250
   508.32         31.7735
   508.46         31.7082
   508.60         31.6312
   508.74         31.5483
   508.88         31.4662
   509.02         31.3904
   509.16         31.3243
   509.30         31.2702
   509.44         31.2306
   509.58         31.2091
   509.72         31.2073
   509.86         31.2235
   510.00         31.2548
   510.14         31.2987
   510.28         31.3513
   510.42         31.4070
   510.56         31.4598
   510.70         31.5028
   510.84         31.5299
   510.98         31.5388
   511.12         31.5304
   511.26         31.5076
   511.40         31.4753
   511.54         31.4382
   511.68         31.3977
   511.82         31.3532
   511.96         31.3059
   512.10         31.2589
   512.24         31.2143
   512.38         31.1714
   512.52         31.1286
   512.66         31.0855
   512.80         31.0428
   512.94         31.0029
   513.08         30.9677
   513.22         30.9377
   513.36         30.9132
   513.50         30.8963
   513.64         30.8881
   513.78         30.8881
   513.92         30.8950
   514.06         30.9057
   514.20         30.9139
   514.34         30.9146
   514.48         30.9077
   514.62         30.8950
   514.76         30.8766
   514.90         30.8516
   515.04         30.8182
   515.18         30.7747
   515.32         30.7213
   515.46         30.6590
   515.60         30.5870
   515.74         30.5015
   515.88         30.3997
   516.02         30.2833
   516.16         30.1578
   516.30         30.0299
   516.44         29.9073
   516.58         29.7996
   516.72         29.7149
   516.86         29.6592
   517.00         29.6357
   517.14         29.6419
   517.28         29.6698
   517.42         29.7102
   517.56         29.7527
   517.70         29.7859
   517.84         29.7999
   517.98         29.7894
   518.12         29.7547
   518.26         29.7002
   518.40         29.6341
   518.54         29.5679
   518.68         29.5132
   518.82         29.4780
   518.96         29.4669
   519.10         29.4812
   519.24         29.5186
   519.38         29.5740
   519.52         29.6395
   519.66         29.7041
   519.80         29.7573
   519.94         29.7927
   520.08         29.8084
   520.22         29.8041
   520.36         29.7820
   520.50         29.7493
   520.64         29.7160
   520.78         29.6913
   520.92         29.6793
   521.06         29.6808
   521.20         29.6950
   521.34         29.7181
   521.48         29.7444
   521.62         29.7684
   521.76         29.7829
   521.90         29.7809
   522.04         29.7586
   522.18         29.7130
   522.32         29.6430
   522.46         29.5529
   522.60         29.4505
   522.74         29.3446
   522.88         29.2429
   523.02         29.1541
   523.16         29.0862
   523.30         29.0424
   523.44         29.0214
   523.58         29.0202
   523.72         29.0353
   523.86         29.0607
   524.00         29.0905
   524.14         29.1223
   524.28         29.1559
   524.42         29.1903
   524.56         29.2253
   524.70         29.2607
   524.84         29.2931
   524.98         29.3168
   525.12         29.3267
   525.26         29.3196
   525.40         29.2947
   525.54         29.2518
   525.68         29.1927
   525.82         29.1190
   525.96         29.0325
   526.10         28.9362
   526.24         28.8342
   526.38         28.7295
   526.52         28.6250
   526.66         28.5253
   526.80         28.4353
   526.94         28.3572
   527.08         28.2910
   527.22         28.2368
   527.36         28.1948
   527.50         28.1646
   527.64         28.1467
   527.78         28.1445
   527.92         28.1622
   528.06         28.2013
   528.20         28.2604
   528.34         28.3343
   528.48         28.4153
   528.62         28.4953
   528.76         28.5662
   528.90         28.6212
   529.04         28.6565
   529.18         28.6705
   529.32         28.6636
   529.46         28.6379
   529.60         28.5974
   529.74         28.5493
   529.88         28.5011
   530.02         28.4575
   530.16         28.4208
   530.30         28.3915
   530.44         28.3690
   530.58         28.3496
   530.72         28.3276
   530.86         28.2978
   531.00         28.2577
   531.14         28.2070
   531.28         28.1479
   531.42         28.0841
   531.56         28.0199
   531.70         27.9577
   531.84         27.8977
   531.98         27.8414
   532.12         27.7920
   532.26         27.7526
   532.40         27.7241
   532.54         27.7044
   532.68         27.6904
   532.82         27.6798
   532.96         27.6714
   533.10         27.6648
   533.24         27.6617
   533.38         27.6656
   533.52         27.6804
   533.66         27.7076
   533.80         27.7458
   533.94         27.7917
   534.08         27.8412
   534.22         27.8900
   534.36         27.9342
   534.50         27.9712
   534.64         27.9999
   534.78         28.0195
   534.92         28.0287
   535.06         28.0267
   535.20         28.0126
   535.34         27.9871
   535.48         27.9523
   535.62         27.9116
   535.76         27.8676
   535.90         27.8219
   536.04         27.7765
   536.18         27.7318
   536.32         27.6872
   536.46         27.6437
   536.60         27.6034
   536.74         27.5693
   536.88         27.5434
   537.02         27.5249
   537.16         27.5100
   537.30         27.4942
   537.44         27.4760
   537.58         27.4575
   537.72         27.4421
   537.86         27.4318
   538.00         27.4276
   538.14         27.4300
   538.28         27.4385
   538.42         27.4511
   538.56         27.4651
   538.70         27.4776
   538.84         27.4836
   538.98         27.4773
   539.12         27.4550
   539.26         27.4150
   539.40         27.3577
   539.54         27.2840
   539.68         27.1959
   539.82         27.0989
   539.96         27.0008
   540.10         26.9098
   540.24         26.8322
   540.38         26.7700
   540.52         26.7223
   540.66         26.6875
   540.80         26.6636
   540.94         26.6486
   541.08         26.6404
   541.22         26.6366
   541.36         26.6351
   541.50         26.6331
   541.64         26.6298
   541.78         26.6273
   541.92         26.6268
   542.06         26.6275
   542.20         26.6267
   542.34         26.6235
   542.48         26.6194
   542.62         26.6168
   542.76         26.6199
   542.90         26.6339
   543.04         26.6622
   543.18         26.7055
   543.32         26.7614
   543.46         26.8254
   543.60         26.8919
   543.74         26.9533
   543.88         27.0033
   544.02         27.0391
   544.16         27.0600
   544.30         27.0658
   544.44         27.0552
   544.58         27.0253
   544.72         26.9756
   544.86         26.9090
   545.00         26.8321
   545.14         26.7515
   545.28         26.6717
   545.42         26.5962
   545.56         26.5287
   545.70         26.4712
   545.84         26.4255
   545.98         26.3931
   546.12         26.3744
   546.26         26.3687
   546.40         26.3733
   546.54         26.3849
   546.68         26.3978
   546.82         26.4034
   546.96         26.3933
   547.10         26.3631
   547.24         26.3134
   547.38         26.2493
   547.52         26.1772
   547.66         26.1028
   547.80         26.0317
   547.94         25.9693
   548.08         25.9219
   548.22         25.8947
   548.36         25.8880
   548.50         25.8990
   548.64         25.9234
   548.78         25.9562
   548.92         25.9921
   549.06         26.0264
   549.20         26.0563
   549.34         26.0792
   549.48         26.0934
   549.62         26.0991
   549.76         26.0968
   549.90         26.0878
   550.04         26.0750
   550.18         26.0617
   550.32         26.0502
   550.46         26.0418
   550.60         26.0368
   550.74         26.0348
   550.88         26.0340
   551.02         26.0308
   551.16         26.0221
   551.30         26.0064
   551.44         25.9819
   551.58         25.9451
   551.72         25.8931
   551.86         25.8257
   552.00         25.7443
   552.14         25.6512
   552.28         25.5499
   552.42         25.4465
   552.56         25.3494
   552.70         25.2667
   552.84         25.2039
   552.98         25.1640
   553.12         25.1491
   553.26         25.1596
   553.40         25.1932
   553.54         25.2452
   553.68         25.3089
   553.82         25.3770
   553.96         25.4426
   554.10         25.4997
   554.24         25.5435
   554.38         25.5714
   554.52         25.5835
   554.66         25.5805
   554.80         25.5645
   554.94         25.5388
   555.08         25.5071
   555.22         25.4731
   555.36         25.4397
   555.50         25.4078
   555.64         25.3756
   555.78         25.3400
   555.92         25.2989
   556.06         25.2521
   556.20         25.2007
   556.34         25.1463
   556.48         25.0909
   556.62         25.0377
   556.76         24.9901
   556.90         24.9514
   557.04         24.9244
   557.18         24.9102
   557.32         24.9084
   557.46         24.9177
   557.60         24.9359
   557.74         24.9590
   557.88         24.9812
   558.02         24.9958
   558.16         24.9962
   558.30         24.9784
   558.44         24.9428
   558.58         24.8922
   558.72         24.8300
   558.86         24.7613
   559.00         24.6925
   559.14         24.6306
   559.28         24.5825
   559.42         24.5527
   559.56         24.5431
   559.70         24.5519
   559.84         24.5741
   559.98         24.6049
   560.12         24.6395
   560.26         24.6714
   560.40         24.6946
   560.54         24.7047
   560.68         24.7005
   560.82         24.6829
   560.96         24.6552
   561.10         24.6217
   561.24         24.5857
   561.38         24.5506
   561.52         24.5191
   561.66         24.4925
   561.80         24.4708
   561.94         24.4531
   562.08         24.4373
   562.22         24.4220
   562.36         24.4060
   562.50         24.3873
   562.64         24.3644
   562.78         24.3364
   562.92         24.3041
   563.06         24.2706
   563.20         24.2395
   563.34         24.2141
   563.48         24.1979
   563.62         24.1926
   563.76         24.1972
   563.90         24.2083
   564.04         24.2232
   564.18         24.2401
   564.32         24.2560
   564.46         24.2676
   564.60         24.2706
   564.74         24.2600
   564.88         24.2329
   565.02         24.1892
   565.16         24.1312
   565.30         24.0631
   565.44         23.9905
   565.58         23.9189
   565.72         23.8525
   565.86         23.7933
   566.00         23.7426
   566.14         23.7014
   566.28         23.6712
   566.42         23.6522
   566.56         23.6445
   566.70         23.6480
   566.84         23.6590
   566.98         23.6717
   567.12         23.6828
   567.26         23.6908
   567.40         23.6952
   567.54         23.6968
   567.68         23.6961
   567.82         23.6920
   567.96         23.6827
   568.10         23.6679
   568.24         23.6487
   568.38         23.6273
   568.52         23.6057
   568.66         23.5854
   568.80         23.5669
   568.94         23.5501
   569.08         23.5328
   569.22         23.5120
   569.36         23.4850
   569.50         23.4499
   569.64         23.4072
   569.78         23.3591
   569.92         23.3077
   570.06         23.2555
   570.20         23.2070
   570.34         23.1688
   570.48         23.1467
   570.62         23.1438
   570.76         23.1605
   570.90         23.1945
   571.04         23.2425
   571.18         23.3001
   571.32         23.3612
   571.46         23.4189
   571.60         23.4676
   571.74         23.5034
   571.88         23.5236
   572.02         23.5279
   572.16         23.5178
   572.30         23.4952
   572.44         23.4614
   572.58         23.4188
   572.72         23.3705
   572.86         23.3187
   573.00         23.2657
   573.14         23.2121
   573.28         23.1574
   573.42         23.1010
   573.56         23.0427
   573.70         22.9827
   573.84         22.9197
   573.98         22.8503
   574.12         22.7731
   574.26         22.6899
   574.40         22.6037
   574.54         22.5168
   574.68         22.4315
   574.82         22.3520
   574.96         22.2833
   575.10         22.2305
   575.24         22.1989
   575.38         22.1917
   575.52         22.2101
   575.66         22.2520
   575.80         22.3119
   575.94         22.3840
   576.08         22.4623
   576.22         22.5417
   576.36         22.6178
   576.50         22.6855
   576.64         22.7403
   576.78         22.7802
   576.92         22.8047
   577.06         22.8128
   577.20         22.8036
   577.34         22.7804
   577.48         22.7498
   577.62         22.7177
   577.76         22.6896
   577.90         22.6684
   578.04         22.6552
   578.18         22.6487
   578.32         22.6461
   578.46         22.6452
   578.60         22.6446
   578.74         22.6415
   578.88         22.6328
   579.02         22.6177
   579.16         22.5975
   579.30         22.5735
   579.44         22.5474
   579.58         22.5220
   579.72         22.4997
   579.86         22.4824
   580.00         22.4716
   580.14         22.4671
   580.28         22.4681
   580.42         22.4726
   580.56         22.4779
   580.70         22.4822
   580.84         22.4853
   580.98         22.4880
   581.12         22.4919
   581.26         22.4974
   581.40         22.5032
   581.54         22.5074
   581.68         22.5073
   581.82         22.4988
   581.96         22.4773
   582.10         22.4416
   582.24         22.3922
   582.38         22.3301
   582.52         22.2584
   582.66         22.1829
   582.80         22.1105
   582.94         22.0484
   583.08         22.0001
   583.22         21.9665
   583.36         21.9489
   583.50         21.9485
   583.64         21.9654
   583.78         21.9973
   583.92         22.0410
   584.06         22.0932
   584.20         22.1506
   584.34         22.2105
   584.48         22.2708
   584.62         22.3301
   584.76         22.3880
   584.90         22.4448
   585.04         22.5006
   585.18         22.5541
   585.32         22.6020
   585.46         22.6398
   585.60         22.6642
   585.74         22.6745
   585.88         22.6742
   586.02         22.6697
   586.16         22.6665
   586.30         22.6665
   586.44         22.6705
   586.58         22.6803
   586.72         22.6967
   586.86         22.7173
   587.00         22.7381
   587.14         22.7550
   587.28         22.7632
   587.42         22.7590
   587.56         22.7375
   587.70         22.6923
   587.84         22.6173
   587.98         22.5079
   588.12         22.3645
   588.26         22.1936
   588.40         22.0031
   588.54         21.8005
   588.68         21.5952
   588.82         21.3984
   588.96         21.2227
   589.10         21.0811
   589.24         20.9841
   589.38         20.9367
   589.52         20.9399
   589.66         20.9914
   589.80         21.0838
   589.94         21.2049
   590.08         21.3401
   590.22         21.4732
   590.36         21.5893
   590.50         21.6794
   590.64         21.7394
   590.78         21.7710
   590.92         21.7779
   591.06         21.7626
   591.20         21.7300
   591.34         21.6875
   591.48         21.6418
   591.62         21.5976
   591.76         21.5581
   591.90         21.5246
   592.04         21.4956
   592.18         21.4684
   592.32         21.4398
   592.46         21.4055
   592.60         21.3615
   592.74         21.3079
   592.88         21.2481
   593.02         21.1865
   593.16         21.1275
   593.30         21.0740
   593.44         21.0280
   593.58         20.9901
   593.72         20.9617
   593.86         20.9447
   594.00         20.9402
   594.14         20.9473
   594.28         20.9631
   594.42         20.9837
   594.56         21.0042
   594.70         21.0201
   594.84         21.0297
   594.98         21.0322
   595.12         21.0274
   595.26         21.0174
   595.40         21.0055
   595.54         20.9937
   595.68         20.9818
   595.82         20.9700
   595.96         20.9582
   596.10         20.9463
   596.24         20.9345
   596.38         20.9227
   596.52         20.9109
   596.66         20.8991
   596.80         20.8873
   596.94         20.8755
   597.08         20.8637
   597.22         20.8518
   597.36         20.8400
   597.50         20.8282
   597.64         20.8163
   597.78         20.8045
   597.92         20.7927
   598.06         20.7809
   598.20         20.7692
   598.34         20.7576
   598.48         20.7456
   598.62         20.7328
   598.76         20.7178
   598.90         20.6999
   599.04         20.6796
   599.18         20.6584
   599.32         20.6379
   599.46         20.6198
   599.60         20.6060
   599.74         20.5982
   599.88         20.5973
   600.02         20.6043
   600.16         20.6189
   600.30         20.6387
   600.44         20.6604
   600.58         20.6796
   600.72         20.6925
   600.86         20.6970
   601.00         20.6933
   601.14         20.6826
   601.28         20.6666
   601.42         20.6482
   601.56         20.6311
   601.70         20.6179
   601.84         20.6069
   601.98         20.5943
   602.12         20.5765
   602.26         20.5505
   602.40         20.5131
   602.54         20.4624
   602.68         20.3997
   602.82         20.3273
   602.96         20.2486
   603.10         20.1695
   603.24         20.0976
   603.38         20.0409
   603.52         20.0051
   603.66         19.9915
   603.80         19.9974
   603.94         20.0184
   604.08         20.0477
   604.22         20.0766
   604.36         20.0966
   604.50         20.1012
   604.64         20.0890
   604.78         20.0620
   604.92         20.0244
   605.06         19.9822
   605.20         19.9419
   605.34         19.9101
   605.48         19.8904
   605.62         19.8847
   605.76         19.8944
   605.90         19.9192
   606.04         19.9561
   606.18         19.9994
   606.32         20.0434
   606.46         20.0843
   606.60         20.1194
   606.74         20.1459
   606.88         20.1616
   607.02         20.1656
   607.16         20.1576
   607.30         20.1379
   607.44         20.1070
   607.58         20.0655
   607.72         20.0151
   607.86         19.9594
   608.00         19.9010
   608.14         19.8407
   608.28         19.7788
   608.42         19.7168
   608.56         19.6576
   608.70         19.6031
   608.84         19.5545
   608.98         19.5134
   609.12         19.4811
   609.26         19.4562
   609.40         19.4366
   609.54         19.4204
   609.68         19.4074
   609.82         19.3983
   609.96         19.3944
   610.10         19.3964
   610.24         19.4046
   610.38         19.4184
   610.52         19.4357
   610.66         19.4535
   610.80         19.4703
   610.94         19.4881
   611.08         19.5088
   611.22         19.5318
   611.36         19.5542
   611.50         19.5730
   611.64         19.5855
   611.78         19.5902
   611.92         19.5869
   612.06         19.5763
   612.20         19.5590
   612.34         19.5357
   612.48         19.5071
   612.62         19.4740
   612.76         19.4383
   612.90         19.4028
   613.04         19.3701
   613.18         19.3426
   613.32         19.3216
   613.46         19.3077
   613.60         19.3006
   613.74         19.2998
   613.88         19.3043
   614.02         19.3131
   614.16         19.3254
   614.30         19.3400
   614.44         19.3546
   614.58         19.3654
   614.72         19.3679
   614.86         19.3601
   615.00         19.3426
   615.14         19.3175
   615.28         19.2870
   615.42         19.2541
   615.56         19.2200
   615.70         19.1847
   615.84         19.1485
   615.98         19.1125
   616.12         19.0775
   616.26         19.0442
   616.40         19.0120
   616.54         18.9804
   616.68         18.9501
   616.82         18.9231
   616.96         18.9020
   617.10         18.8890
   617.24         18.8857
   617.38         18.8924
   617.52         18.9083
   617.66         18.9308
   617.80         18.9557
   617.94         18.9793
   618.08         18.9987
   618.22         19.0106
   618.36         19.0126
   618.50         19.0048
   618.64         18.9882
   618.78         18.9648
   618.92         18.9375
   619.06         18.9101
   619.20         18.8860
   619.34         18.8682
   619.48         18.8588
   619.62         18.8582
   619.76         18.8655
   619.90         18.8783
   620.04         18.8943
   620.18         18.9126
   620.32         18.9330
   620.46         18.9546
   620.60         18.9758
   620.74         18.9937
   620.88         19.0062
   621.02         19.0117
   621.16         19.0096
   621.30         18.9997
   621.44         18.9830
   621.58         18.9606
   621.72         18.9338
   621.86         18.9038
   622.00         18.8722
   622.14         18.8398
   622.28         18.8059
   622.42         18.7686
   622.56         18.7262
   622.70         18.6781
   622.84         18.6262
   622.98         18.5733
   623.12         18.5224
   623.26         18.4769
   623.40         18.4392
   623.54         18.4101
   623.68         18.3897
   623.82         18.3782
   623.96         18.3760
   624.10         18.3833
   624.24         18.3993
   624.38         18.4228
   624.52         18.4513
   624.66         18.4817
   624.80         18.5098
   624.94         18.5314
   625.08         18.5431
   625.22         18.5434
   625.36         18.5327
   625.50         18.5131
   625.64         18.4860
   625.78         18.4514
   625.92         18.4100
   626.06         18.3631
   626.20         18.3133
   626.34         18.2629
   626.48         18.2135
   626.62         18.1647
   626.76         18.1154
   626.90         18.0651
   627.04         18.0140
   627.18         17.9632
   627.32         17.9147
   627.46         17.8712
   627.60         17.8357
   627.74         17.8123
   627.88         17.8038
   628.02         17.8100
   628.16         17.8278
   628.30         17.8515
   628.44         17.8756
   628.58         17.8958
   628.72         17.9085
   628.86         17.9096
   629.00         17.8968
   629.14         17.8700
   629.28         17.8316
   629.42         17.7858
   629.56         17.7383
   629.70         17.6946
   629.84         17.6585
   629.98         17.6325
   630.12         17.6185
   630.26         17.6173
   630.40         17.6286
   630.54         17.6502
   630.68         17.6784
   630.82         17.7092
   630.96         17.7397
   631.10         17.7682
   631.24         17.7936
   631.38         17.8151
   631.52         17.8311
   631.66         17.8409
   631.80         17.8457
   631.94         17.8475
   632.08         17.8472
   632.22         17.8449
   632.36         17.8403
   632.50         17.8327
   632.64         17.8220
   632.78         17.8100
   632.92         17.7975
   633.06         17.7846
   633.20         17.7692
   633.34         17.7491
   633.48         17.7233
   633.62         17.6925
   633.76         17.6583
   633.90         17.6232
   634.04         17.5889
   634.18         17.5577
   634.32         17.5322
   634.46         17.5152
   634.60         17.5067
   634.74         17.5060
   634.88         17.5126
   635.02         17.5260
   635.16         17.5448
   635.30         17.5671
   635.44         17.5901
   635.58         17.6091
   635.72         17.6193
   635.86         17.6165
   636.00         17.5987
   636.14         17.5662
   636.28         17.5217
   636.42         17.4691
   636.56         17.4128
   636.70         17.3569
   636.84         17.3048
   636.98         17.2596
   637.12         17.2224
   637.26         17.1941
   637.40         17.1761
   637.54         17.1694
   637.68         17.1733
   637.82         17.1862
   637.96         17.2059
   638.10         17.2309
   638.24         17.2593
   638.38         17.2895
   638.52         17.3199
   638.66         17.3502
   638.80         17.3804
   638.94         17.4104
   639.08         17.4393
   639.22         17.4651
   639.36         17.4851
   639.50         17.4971
   639.64         17.4998
   639.78         17.4933
   639.92         17.4793
   640.06         17.4595
   640.20         17.4355
   640.34         17.4085
   640.48         17.3791
   640.62         17.3484
   640.76         17.3180
   640.90         17.2881
   641.04         17.2575
   641.18         17.2254
   641.32         17.1923
   641.46         17.1601
   641.60         17.1302
   641.74         17.1036
   641.88         17.0808
   642.02         17.0619
   642.16         17.0475
   642.30         17.0381
   642.44         17.0344
   642.58         17.0361
   642.72         17.0427
   642.86         17.0540
   643.00         17.0690
   643.14         17.0859
   643.28         17.1031
   643.42         17.1187
   643.56         17.1301
   643.70         17.1345
   643.84         17.1302
   643.98         17.1174
   644.12         17.0959
   644.26         17.0647
   644.40         17.0228
   644.54         16.9696
   644.68         16.9052
   644.82         16.8324
   644.96         16.7559
   645.10         16.6808
   645.24         16.6111
   645.38         16.5510
   645.52         16.5043
   645.66         16.4734
   645.80         16.4600
   645.94         16.4647
   646.08         16.4875
   646.22         16.5266
   646.36         16.5789
   646.50         16.6406
   646.64         16.7067
   646.78         16.7709
   646.92         16.8274
   647.06         16.8711
   647.20         16.8990
   647.34         16.9104
   647.48         16.9065
   647.62         16.8899
   647.76         16.8645
   647.90         16.8352
   648.04         16.8069
   648.18         16.7840
   648.32         16.7695
   648.46         16.7649
   648.60         16.7698
   648.74         16.7828
   648.88         16.8016
   649.02         16.8233
   649.16         16.8447
   649.30         16.8623
   649.44         16.8740
   649.58         16.8778
   649.72         16.8731
   649.86         16.8607
   650.00         16.8424
   650.14         16.8206
   650.28         16.7978
   650.42         16.7758
   650.56         16.7560
   650.70         16.7396
   650.84         16.7279
   650.98         16.7212
   651.12         16.7189
   651.26         16.7204
   651.40         16.7252
   651.54         16.7331
   651.68         16.7436
   651.82         16.7553
   651.96         16.7664
   652.10         16.7746
   652.24         16.7778
   652.38         16.7743
   652.52         16.7614
   652.66         16.7357
   652.80         16.6945
   652.94         16.6367
   653.08         16.5625
   653.22         16.4717
   653.36         16.3645
   653.50         16.2417
   653.64         16.1045
   653.78         15.9537
   653.92         15.7904
   654.06         15.6151
   654.20         15.4265
   654.34         15.2217
   654.48         14.9977
   654.62         14.7514
   654.76         14.4798
   654.90         14.1799
   655.04         13.8490
   655.18         13.4862
   655.32         13.0945
   655.46         12.6836
   655.60         12.2685
   655.74         11.8687
   655.88         11.5065
   656.02         11.2055
   656.16         10.9869
   656.30         10.8662
   656.44         10.8516
   656.58         10.9445
   656.72         11.1385
   656.86         11.4213
   657.00         11.7752
   657.14         12.1786
   657.28         12.6076
   657.42         13.0382
   657.56         13.4490
   657.70         13.8242
   657.84         14.1529
   657.98         14.4306
   658.12         14.6574
   658.26         14.8373
   658.40         14.9759
   658.54         15.0794
   658.68         15.1539
   658.82         15.2062
   658.96         15.2426
   659.10         15.2695
   659.24         15.2923
   659.38         15.3160
   659.52         15.3441
   659.66         15.3786
   659.80         15.4201
   659.94         15.4682
   660.08         15.5210
   660.22         15.5760
   660.36         15.6291
   660.50         15.6757
   660.64         15.7129
   660.78         15.7387
   660.92         15.7525
   661.06         15.7544
   661.20         15.7459
   661.34         15.7298
   661.48         15.7098
   661.62         15.6898
   661.76         15.6729
   661.90         15.6618
   662.04         15.6587
   662.18         15.6648
   662.32         15.6792
   662.46         15.6989
   662.60         15.7199
   662.74         15.7375
   662.88         15.7478
   663.02         15.7490
   663.16         15.7423
   663.30         15.7304
   663.44         15.7149
   663.58         15.6970
   663.72         15.6781
   663.86         15.6596
   664.00         15.6420
   664.14         15.6255
   664.28         15.6105
   664.42         15.5967
   664.56         15.5830
   664.70         15.5687
   664.84         15.5544
   664.98         15.5411
   665.12         15.5310
   665.26         15.5259
   665.40         15.5264
   665.54         15.5327
   665.68         15.5443
   665.82         15.5595
   665.96         15.5748
   666.10         15.5861
   666.24         15.5902
   666.38         15.5857
   666.52         15.5726
   666.66         15.5511
   666.80         15.5215
   666.94         15.4843
   667.08         15.4411
   667.22         15.3948
   667.36         15.3491
   667.50         15.3065
   667.64         15.2678
   667.78         15.2326
   667.92         15.2006
   668.06         15.1720
   668.20         15.1483
   668.34         15.1308
   668.48         15.1204
   668.62         15.1167
   668.76         15.1183
   668.90         15.1238
   669.04         15.1327
   669.18         15.1444
   669.32         15.1574
   669.46         15.1701
   669.60         15.1818
   669.74         15.1912
   669.88         15.1968
   670.02         15.1972
   670.16         15.1917
   670.30         15.1805
   670.44         15.1650
   670.58         15.1457
   670.72         15.1234
   670.86         15.0992
   671.00         15.0746
   671.14         15.0508
   671.28         15.0285
   671.42         15.0088
   671.56         14.9930
   671.70         14.9816
   671.84         14.9747
   671.98         14.9713
   672.12         14.9696
   672.26         14.9669
   672.40         14.9612
   672.54         14.9519
   672.68         14.9396
   672.82         14.9252
   672.96         14.9088
   673.10         14.8900
   673.24         14.8692
   673.38         14.8478
   673.52         14.8278
   673.66         14.8102
   673.80         14.7949
   673.94         14.7815
   674.08         14.7700
   674.22         14.7603
   674.36         14.7522
   674.50         14.7457
   674.64         14.7404
   674.78         14.7371
   674.92         14.7386
   675.06         14.7486
   675.20         14.7688
   675.34         14.7978
   675.48         14.8324
   675.62         14.8691
   675.76         14.9052
   675.90         14.9388
   676.04         14.9673
   676.18         14.9880
   676.32         14.9981
   676.46         14.9960
   676.60         14.9809
   676.74         14.9531
   676.88         14.9137
   677.02         14.8655
   677.16         14.8127
   677.30         14.7592
   677.44         14.7084
   677.58         14.6619
   677.72         14.6199
   677.86         14.5826
   678.00         14.5515
   678.14         14.5285
   678.28         14.5148
   678.42         14.5105
   678.56         14.5146
   678.70         14.5257
   678.84         14.5423
   678.98         14.5623
   679.12         14.5838
   679.26         14.6046
   679.40         14.6216
   679.54         14.6322
   679.68         14.6345
   679.82         14.6275
   679.96         14.6108
   680.10         14.5849
   680.24         14.5517
   680.38         14.5139
   680.52         14.4745
   680.66         14.4354
   680.80         14.3979
   680.94         14.3635
   681.08         14.3324
   681.22         14.3045
   681.36         14.2795
   681.50         14.2578
   681.64         14.2401
   681.78         14.2272
   681.92         14.2187
   682.06         14.2134
   682.20         14.2106
   682.34         14.2101
   682.48         14.2116
   682.62         14.2140
   682.76         14.2162
   682.90         14.2177
   683.04         14.2173
   683.18         14.2128
   683.32         14.2010
   683.46         14.1800
   683.60         14.1502
   683.74         14.1136
   683.88         14.0744
   684.02         14.0377
   684.16         14.0071
   684.30         13.9843
   684.44         13.9697
   684.58         13.9633
   684.72         13.9651
   684.86         13.9743
   685.00         13.9899
   685.14         14.0086
   685.28         14.0244
   685.42         14.0279
   685.56         14.0052
   685.70         13.9396
   685.84         13.8167
   685.98         13.6295
   686.12         13.3789
   686.26         13.0734
   686.40         12.7277
   686.54         12.3619
   686.68         11.9998
   686.82         11.6673
   686.96         11.3899
   687.10         11.1888
   687.24         11.0765
   687.38         11.0548
   687.52         11.1158
   687.66         11.2442
   687.80         11.4177
   687.94         11.6115
   688.08         11.8008
   688.22         11.9646
   688.36         12.0903
   688.50         12.1751
   688.64         12.2236
   688.78         12.2452
   688.92         12.2504
   689.06         12.2500
   689.20         12.2536
   689.34         12.2674
   689.48         12.2945
   689.62         12.3340
   689.76         12.3824
   689.90         12.4360
   690.04         12.4922
   690.18         12.5494
   690.32         12.6060
   690.46         12.6603
   690.60         12.7111
   690.74         12.7573
   690.88         12.7994
   691.02         12.8382
   691.16         12.8751
   691.30         12.9113
   691.44         12.9474
   691.58         12.9836
   691.72         13.0198
   691.86         13.0553
   692.00         13.0897
   692.14         13.1230
   692.28         13.1555
   692.42         13.1866
   692.56         13.2151
   692.70         13.2388
   692.84         13.2558
   692.98         13.2661
   693.12         13.2714
   693.26         13.2742
   693.40         13.2768
   693.54         13.2805
   693.68         13.2856
   693.82         13.2919
   693.96         13.3003
   694.10         13.3112
   694.24         13.3246
   694.38         13.3404
   694.52         13.3595
   694.66         13.3821
   694.80         13.4067
   694.94         13.4305
   695.08         13.4517
   695.22         13.4704
   695.36         13.4877
   695.50         13.5052
   695.64         13.5246
   695.78         13.5468
   695.92         13.5720
   696.06         13.6004
   696.20         13.6327
   696.34         13.6698
   696.48         13.7125
   696.62         13.7592
   696.76         13.8061
   696.90         13.8484
   697.04         13.8821
   697.18         13.9032
   697.32         13.9081
   697.46         13.8957
   697.60         13.8685
   697.74         13.8311
   697.88         13.7879
   698.02         13.7417
   698.16         13.6951
   698.30         13.6508
   698.44         13.6106
   698.58         13.5757
   698.72         13.5454
   698.86         13.5178
   699.00         13.4904
   699.14         13.4599
   699.28         13.4234
   699.42         13.3808
   699.56         13.3341
   699.70         13.2858
   699.84         13.2378
   699.98         13.1920
   700.12         13.1502
   700.26         13.1140
   700.40         13.0843
   700.54         13.0612
   700.68         13.0444
   700.82         13.0326
   700.96         13.0248
   701.10         13.0197
   701.24         13.0162
   701.38         13.0137
   701.52         13.0121
   701.66         13.0111
   701.80         13.0105
   701.94         13.0105
   702.08         13.0120
   702.22         13.0153
   702.36         13.0202
   702.50         13.0270
   702.64         13.0354
   702.78         13.0447
   702.92         13.0535
   703.06         13.0605
   703.20         13.0636
   703.34         13.0606
   703.48         13.0513
   703.62         13.0368
   703.76         13.0195
   703.90         13.0009
   704.04         12.9823
   704.18         12.9652
   704.32         12.9524
   704.46         12.9467
   704.60         12.9497
   704.74         12.9615
   704.88         12.9811
   705.02         13.0071
   705.16         13.0368
   705.30         13.0658
   705.44         13.0895
   705.58         13.1040
   705.72         13.1065
   705.86         13.0961
   706.00         13.0745
   706.14         13.0446
   706.28         13.0090
   706.42         12.9698
   706.56         12.9293
   706.70         12.8905
   706.84         12.8571
   706.98         12.8330
   707.12         12.8202
   707.26         12.8188
   707.40         12.8286
   707.54         12.8488
   707.68         12.8778
   707.82         12.9124
   707.96         12.9494
   708.10         12.9853
   708.24         13.0169
   708.38         13.0414
   708.52         13.0561
   708.66         13.0588
   708.80         13.0474
   708.94         13.0215
   709.08         12.9831
   709.22         12.9357
   709.36         12.8835
   709.50         12.8302
   709.64         12.7793
   709.78         12.7330
   709.92         12.6932
   710.06         12.6620
   710.20         12.6409
   710.34         12.6308
   710.48         12.6305
   710.62         12.6371
   710.76         12.6474
   710.90         12.6600
   711.04         12.6743
   711.18         12.6902
   711.32         12.7080
   711.46         12.7280
   711.60         12.7498
   711.74         12.7728
   711.88         12.7954
   712.02         12.8169
   712.16         12.8375
   712.30         12.8575
   712.44         12.8761
   712.58         12.8916
   712.72         12.9021
   712.86         12.9058
   713.00         12.9019
   713.14         12.8912
   713.28         12.8767
   713.42         12.8617
   713.56         12.8498
   713.70         12.8437
   713.84         12.8449
   713.98         12.8539
   714.12         12.8706
   714.26         12.8934
   714.40         12.9206
   714.54         12.9504
   714.68         12.9798
   714.82         13.0052
   714.96         13.0229
   715.10         13.0300
   715.24         13.0247
   715.38         13.0073
   715.52         12.9798
   715.66         12.9451
   715.80         12.9054
   715.94         12.8598
   716.08         12.8070
   716.22         12.7472
   716.36         12.6811
   716.50         12.6101
   716.64         12.5359
   716.78         12.4608
   716.92         12.3869
   717.06         12.3149
   717.20         12.2445
   717.34         12.1739
   717.48         12.1033
   717.62         12.0358
   717.76         11.9750
   717.90         11.9231
   718.04         11.8802
   718.18         11.8449
   718.32         11.8175
   718.46         11.7987
   718.60         11.7884
   718.74         11.7865
   718.88         11.7926
   719.02         11.8053
   719.16         11.8227
   719.30         11.8416
   719.44         11.8583
   719.58         11.8708
   719.72         11.8785
   719.86         11.8832
   720.00         11.8903
   720.14         11.9076
   720.28         11.9417
   720.42         11.9942
   720.56         12.0622
   720.70         12.1420
   720.84         12.2327
   720.98         12.3327
   721.12         12.4362
   721.26         12.5336
   721.40         12.6171
   721.54         12.6813
   721.68         12.7230
   721.82         12.7411
   721.96         12.7371
   722.10         12.7148
   722.24         12.6792
   722.38         12.6353
   722.52         12.5894
   722.66         12.5473
   722.80         12.5118
   722.94         12.4822
   723.08         12.4565
   723.22         12.4324
   723.36         12.4094
   723.50         12.3874
   723.64         12.3652
   723.78         12.3393
   723.92         12.3068
   724.06         12.2669
   724.20         12.2193
   724.34         12.1636
   724.48         12.1010
   724.62         12.0331
   724.76         11.9619
   724.90         11.8893
   725.04         11.8183
   725.18         11.7516
   725.32         11.6916
   725.46         11.6411
   725.60         11.6030
   725.74         11.5800
   725.88         11.5742
   726.02         11.5855
   726.16         11.6118
   726.30         11.6486
   726.44         11.6882
   726.58         11.7231
   726.72         11.7497
   726.86         11.7671
   727.00         11.7767
   727.14         11.7810
   727.28         11.7818
   727.42         11.7804
   727.56         11.7778
   727.70         11.7752
   727.84         11.7744
   727.98         11.7770
   728.12         11.7831
   728.26         11.7916
   728.40         11.8005
   728.54         11.8072
   728.68         11.8093
   728.82         11.8047
   728.96         11.7921
   729.10         11.7711
   729.24         11.7441
   729.38         11.7152
   729.52         11.6876
   729.66         11.6631
   729.80         11.6418
   729.94         11.6233
   730.08         11.6086
   730.22         11.5991
   730.36         11.5955
   730.50         11.5972
   730.64         11.6024
   730.78         11.6094
   730.92         11.6171
   731.06         11.6248
   731.20         11.6324
   731.34         11.6401
   731.48         11.6474
   731.62         11.6532
   731.76         11.6574
   731.90         11.6603
   732.04         11.6625
   732.18         11.6634
   732.32         11.6609
   732.46         11.6527
   732.60         11.6375
   732.74         11.6150
   732.88         11.5844
   733.02         11.5455
   733.16         11.4994
   733.30         11.4487
   733.44         11.3974
   733.58         11.3486
   733.72         11.3029
   733.86         11.2596
   734.00         11.2184
   734.14         11.1798
   734.28         11.1450
   734.42         11.1151
   734.56         11.0909
   734.70         11.0724
   734.84         11.0597
   734.98         11.0532
   735.12         11.0533
   735.26         11.0595
   735.40         11.0710
   735.54         11.0860
   735.68         11.1029
   735.82         11.1213
   735.96         11.1400
   736.10         11.1571
   736.24         11.1703
   736.38         11.1791
   736.52         11.1851
   736.66         11.1909
   736.80         11.1992
   736.94         11.2112
   737.08         11.2273
   737.22         11.2474
   737.36         11.2712
   737.50         11.2967
   737.64         11.3213
   737.78         11.3421
   737.92         11.3583
   738.06         11.3698
   738.20         11.3772
   738.34         11.3807
   738.48         11.3804
   738.62         11.3749
   738.76         11.3636
   738.90         11.3473
   739.04         11.3284
   739.18         11.3104
   739.32         11.2982
   739.46         11.2961
   739.60         11.3061
   739.74         11.3271
   739.88         11.3560
   740.02         11.3886
   740.16         11.4201
   740.30         11.4474
   740.44         11.4688
   740.58         11.4838
   740.72         11.4930
   740.86         11.4975
   741.00         11.5006
   741.14         11.5064
   741.28         11.5187
   741.42         11.5400
   741.56         11.5708
   741.70         11.6100
   741.84         11.6558
   741.98         11.7048
   742.12         11.7531
   742.26         11.7967
   742.40         11.8327
   742.54         11.8595
   742.68         11.8766
   742.82         11.8848
   742.96         11.8848
   743.10         11.8766
   743.24         11.8595
   743.38         11.8327
   743.52         11.7967
   743.66         11.7531
   743.80         11.7048
   743.94         11.6558
   744.08         11.6100
   744.22         11.5708
