# File HD191978
# Wavelength [nm]    Normalized Amplitude
   349.70         409.8341
   349.84         410.6918
   349.98         411.5300
   350.12         412.2804
   350.26         412.8812
   350.40         413.2963
   350.54         413.5391
   350.68         413.6559
   350.82         413.7000
   350.96         413.7151
   351.10         413.7198
   351.24         413.7151
   351.38         413.7000
   351.52         413.6559
   351.66         413.5391
   351.80         413.2963
   351.94         412.8812
   352.08         412.2804
   352.22         411.5300
   352.36         410.6918
   352.50         409.8341
   352.64         408.9907
   352.78         408.1790
   352.92         407.4097
   353.06         406.6540
   353.20         405.8685
   353.34         405.0106
   353.48         404.0512
   353.62         402.9700
   353.76         401.7479
   353.90         400.3725
   354.04         398.8361
   354.18         397.1506
   354.32         395.3735
   354.46         393.5870
   354.60         391.8680
   354.74         390.2827
   354.88         388.8674
   355.02         387.6256
   355.16         386.5448
   355.30         385.5934
   355.44         384.7321
   355.58         383.9302
   355.72         383.1755
   355.86         382.4710
   356.00         381.8014
   356.14         381.1272
   356.28         380.3933
   356.42         379.5265
   356.56         378.4650
   356.70         377.1791
   356.84         375.6703
   356.98         373.9694
   357.12         372.1146
   357.26         370.1297
   357.40         368.0313
   357.54         365.8566
   357.68         363.6764
   357.82         361.5883
   357.96         359.6988
   358.10         358.1245
   358.24         356.9921
   358.38         356.3971
   358.52         356.3727
   358.66         356.8949
   358.80         357.8919
   358.94         359.2215
   359.08         360.6931
   359.22         362.1371
   359.36         363.4183
   359.50         364.4212
   359.64         365.0400
   359.78         365.1983
   359.92         364.8739
   360.06         364.1219
   360.20         363.0909
   360.34         361.9882
   360.48         361.0207
   360.62         360.3399
   360.76         360.0160
   360.90         360.0375
   361.04         360.3218
   361.18         360.7435
   361.32         361.1727
   361.46         361.4856
   361.60         361.5630
   361.74         361.3384
   361.88         360.7976
   362.02         359.9315
   362.16         358.7373
   362.30         357.2483
   362.44         355.5627
   362.58         353.8200
   362.72         352.1821
   362.86         350.8291
   363.00         349.8873
   363.14         349.3613
   363.28         349.1486
   363.42         349.1177
   363.56         349.1853
   363.70         349.3139
   363.84         349.4612
   363.98         349.5765
   364.12         349.6252
   364.26         349.6099
   364.40         349.5756
   364.54         349.5581
   364.68         349.5645
   364.82         349.5918
   364.96         349.6336
   365.10         349.6872
   365.24         349.7360
   365.38         349.7519
   365.52         349.7011
   365.66         349.5425
   365.80         349.2595
   365.94         348.8795
   366.08         348.4591
   366.22         348.0513
   366.36         347.6605
   366.50         347.2581
   366.64         346.8283
   366.78         346.3678
   366.92         345.8747
   367.06         345.3381
   367.20         344.7266
   367.34         344.0214
   367.48         343.2586
   367.62         342.5218
   367.76         341.8999
   367.90         341.4378
   368.04         341.1311
   368.18         340.9414
   368.32         340.8006
   368.46         340.6123
   368.60         340.2913
   368.74         339.8058
   368.88         339.1554
   369.02         338.3402
   369.16         337.3712
   369.30         336.2794
   369.44         335.1122
   369.58         333.9361
   369.72         332.8118
   369.86         331.7659
   370.00         330.8137
   370.14         329.9897
   370.28         329.3266
   370.42         328.8339
   370.56         328.5168
   370.70         328.3850
   370.84         328.4468
   370.98         328.6867
   371.12         329.0514
   371.26         329.4623
   371.40         329.8428
   371.54         330.1397
   371.68         330.3388
   371.82         330.4633
   371.96         330.5335
   372.10         330.5313
   372.24         330.4190
   372.38         330.1647
   372.52         329.7718
   372.66         329.3092
   372.80         328.8872
   372.94         328.6136
   373.08         328.5842
   373.22         328.8673
   373.36         329.4580
   373.50         330.2687
   373.64         331.1461
   373.78         331.8949
   373.92         332.3292
   374.06         332.3112
   374.20         331.7426
   374.34         330.5503
   374.48         328.6999
   374.62         326.2090
   374.76         323.1714
   374.90         319.7941
   375.04         316.3959
   375.18         313.3280
   375.32         310.8833
   375.46         309.2410
   375.60         308.4399
   375.74         308.3615
   375.88         308.7278
   376.02         309.1802
   376.16         309.4278
   376.30         309.3288
   376.44         308.8974
   376.58         308.2876
   376.72         307.7345
   376.86         307.4904
   377.00         307.7769
   377.14         308.7544
   377.28         310.5170
   377.42         313.1112
   377.56         316.5275
   377.70         320.6449
   377.84         325.1796
   377.98         329.7327
   378.12         333.8861
   378.26         337.2402
   378.40         339.4424
   378.54         340.2396
   378.68         339.5356
   378.82         337.4334
   378.96         334.2106
   379.10         330.2425
   379.24         325.9378
   379.38         321.7076
   379.52         317.9627
   379.66         315.0872
   379.80         313.3987
   379.94         313.1116
   380.08         314.3009
   380.22         316.8693
   380.36         320.5371
   380.50         324.8931
   380.64         329.4925
   380.78         333.9138
   380.92         337.7789
   381.06         340.8236
   381.20         342.9561
   381.34         344.2565
   381.48         344.9185
   381.62         345.1380
   381.76         345.0285
   381.90         344.6089
   382.04         343.8179
   382.18         342.5129
   382.32         340.4987
   382.46         337.6044
   382.60         333.7616
   382.74         329.0573
   382.88         323.7267
   383.02         318.1293
   383.16         312.7308
   383.30         308.0396
   383.44         304.5031
   383.58         302.4450
   383.72         302.0365
   383.86         303.2670
   384.00         305.9479
   384.14         309.7408
   384.28         314.2010
   384.42         318.8490
   384.56         323.2436
   384.70         327.0361
   384.84         329.9984
   384.98         332.0456
   385.12         333.2296
   385.26         333.6954
   385.40         333.6145
   385.54         333.1223
   385.68         332.3234
   385.82         331.3069
   385.96         330.1358
   386.10         328.8611
   386.24         327.5516
   386.38         326.2874
   386.52         325.1363
   386.66         324.1421
   386.80         323.3135
   386.94         322.6281
   387.08         322.0335
   387.22         321.4172
   387.36         320.5861
   387.50         319.2870
   387.64         317.2612
   387.78         314.3261
   387.92         310.4372
   388.06         305.7109
   388.20         300.4313
   388.34         295.0193
   388.48         289.9525
   388.62         285.7028
   388.76         282.6957
   388.90         281.2509
   389.04         281.5349
   389.18         283.5461
   389.32         287.1072
   389.46         291.8864
   389.60         297.4558
   389.74         303.3306
   389.88         309.0066
   390.02         314.0307
   390.16         318.0794
   390.30         321.0029
   390.44         322.8307
   390.58         323.7188
   390.72         323.8790
   390.86         323.5170
   391.00         322.7919
   391.14         321.8268
   391.28         320.7375
   391.42         319.6281
   391.56         318.5725
   391.70         317.6103
   391.84         316.7472
   391.98         315.9422
   392.12         315.1142
   392.26         314.1818
   392.40         313.0918
   392.54         311.8397
   392.68         310.4789
   392.82         309.1031
   392.96         307.8178
   393.10         306.7365
   393.24         305.9781
   393.38         305.6411
   393.52         305.7669
   393.66         306.3336
   393.80         307.2711
   393.94         308.4723
   394.08         309.7947
   394.22         311.0633
   394.36         312.1018
   394.50         312.7683
   394.64         312.9681
   394.78         312.6777
   394.92         311.9453
   395.06         310.8316
   395.20         309.3644
   395.34         307.5260
   395.48         305.2472
   395.62         302.4100
   395.76         298.8776
   395.90         294.5521
   396.04         289.4440
   396.18         283.7239
   396.32         277.7108
   396.46         271.8160
   396.60         266.4784
   396.74         262.0992
   396.88         259.0101
   397.02         257.4371
   397.16         257.4725
   397.30         259.0712
   397.44         262.0480
   397.58         266.0878
   397.72         270.7863
   397.86         275.7101
   398.00         280.4435
   398.14         284.6321
   398.28         288.0236
   398.42         290.5138
   398.56         292.1642
   398.70         293.1527
   398.84         293.6694
   398.98         293.8394
   399.12         293.7375
   399.26         293.4206
   399.40         292.9391
   399.54         292.3342
   399.68         291.6202
   399.82         290.8129
   399.96         289.9495
   400.10         289.0767
   400.24         288.2433
   400.38         287.4928
   400.52         286.8627
   400.66         286.3757
   400.80         286.0264
   400.94         285.7766
   401.08         285.5580
   401.22         285.2727
   401.36         284.7816
   401.50         283.9243
   401.64         282.5991
   401.78         280.8142
   401.92         278.6699
   402.06         276.3261
   402.20         273.9747
   402.34         271.8300
   402.48         270.1098
   402.62         268.9839
   402.76         268.5392
   402.90         268.7764
   403.04         269.6164
   403.18         270.9134
   403.32         272.4839
   403.46         274.1419
   403.60         275.7187
   403.74         277.0742
   403.88         278.1162
   404.02         278.8077
   404.16         279.1801
   404.30         279.3236
   404.44         279.3293
   404.58         279.2540
   404.72         279.1331
   404.86         278.9898
   405.00         278.8360
   405.14         278.6743
   405.28         278.5017
   405.42         278.3098
   405.56         278.0824
   405.70         277.7841
   405.84         277.3574
   405.98         276.7520
   406.12         275.9492
   406.26         274.9578
   406.40         273.8037
   406.54         272.5256
   406.68         271.1735
   406.82         269.8152
   406.96         268.5296
   407.10         267.3979
   407.24         266.4926
   407.38         265.8518
   407.52         265.4511
   407.66         265.2028
   407.80         264.9919
   407.94         264.7103
   408.08         264.2677
   408.22         263.5930
   408.36         262.6345
   408.50         261.3503
   408.64         259.6975
   408.78         257.6125
   408.92         254.9979
   409.06         251.7530
   409.20         247.8499
   409.34         243.3980
   409.48         238.6415
   409.62         233.9146
   409.76         229.5789
   409.90         225.9607
   410.04         223.3181
   410.18         221.8302
   410.32         221.5889
   410.46         222.5911
   410.60         224.7246
   410.74         227.7704
   410.88         231.4321
   411.02         235.3694
   411.16         239.2321
   411.30         242.7111
   411.44         245.5971
   411.58         247.8092
   411.72         249.3895
   411.86         250.4770
   412.00         251.2434
   412.14         251.8260
   412.28         252.3111
   412.42         252.7408
   412.56         253.1273
   412.70         253.4693
   412.84         253.7465
   412.98         253.9225
   413.12         253.9642
   413.26         253.8549
   413.40         253.5908
   413.54         253.1692
   413.68         252.5955
   413.82         251.8937
   413.96         251.1023
   414.10         250.2685
   414.24         249.4430
   414.38         248.6710
   414.52         247.9958
   414.66         247.4581
   414.80         247.0901
   414.94         246.9072
   415.08         246.8997
   415.22         247.0438
   415.36         247.3022
   415.50         247.6226
   415.64         247.9582
   415.78         248.2785
   415.92         248.5608
   416.06         248.7862
   416.20         248.9455
   416.34         249.0364
   416.48         249.0464
   416.62         248.9513
   416.76         248.7369
   416.90         248.4010
   417.04         247.9443
   417.18         247.3743
   417.32         246.7036
   417.46         245.9472
   417.60         245.1186
   417.74         244.2326
   417.88         243.3192
   418.02         242.4132
   418.16         241.5441
   418.30         240.7375
   418.44         240.0036
   418.58         239.3293
   418.72         238.6763
   418.86         237.9912
   419.00         237.2274
   419.14         236.3586
   419.28         235.3901
   419.42         234.3587
   419.56         233.3142
   419.70         232.3158
   419.84         231.4336
   419.98         230.7412
   420.12         230.3041
   420.26         230.1554
   420.40         230.2881
   420.54         230.6622
   420.68         231.2014
   420.82         231.8177
   420.96         232.4347
   421.10         232.9823
   421.24         233.4002
   421.38         233.6538
   421.52         233.7486
   421.66         233.7250
   421.80         233.6360
   421.94         233.5294
   422.08         233.4380
   422.22         233.3783
   422.36         233.3619
   422.50         233.3947
   422.64         233.4641
   422.78         233.5369
   422.92         233.5770
   423.06         233.5645
   423.20         233.5012
   423.34         233.4011
   423.48         233.2795
   423.62         233.1380
   423.76         232.9616
   423.90         232.7440
   424.04         232.4986
   424.18         232.2364
   424.32         231.9521
   424.46         231.6306
   424.60         231.2601
   424.74         230.8404
   424.88         230.3808
   425.02         229.8917
   425.16         229.3754
   425.30         228.8325
   425.44         228.2701
   425.58         227.7013
   425.72         227.1470
   425.86         226.6322
   426.00         226.1745
   426.14         225.7785
   426.28         225.4411
   426.42         225.1591
   426.56         224.9304
   426.70         224.7446
   426.84         224.5869
   426.98         224.4551
   427.12         224.3610
   427.26         224.3128
   427.40         224.3047
   427.54         224.3199
   427.68         224.3302
   427.82         224.3050
   427.96         224.2245
   428.10         224.0738
   428.24         223.8564
   428.38         223.6008
   428.52         223.3403
   428.66         223.1022
   428.80         222.9066
   428.94         222.7667
   429.08         222.6878
   429.22         222.6658
   429.36         222.6889
   429.50         222.7387
   429.64         222.7913
   429.78         222.8218
   429.92         222.8002
   430.06         222.6944
   430.20         222.4776
   430.34         222.1279
   430.48         221.6418
   430.62         221.0411
   430.76         220.3672
   430.90         219.6754
   431.04         219.0135
   431.18         218.4135
   431.32         217.8991
   431.46         217.4929
   431.60         217.2065
   431.74         217.0294
   431.88         216.9329
   432.02         216.8809
   432.16         216.8278
   432.30         216.7027
   432.44         216.3961
   432.58         215.7616
   432.72         214.6368
   432.86         212.8702
   433.00         210.3631
   433.14         207.1207
   433.28         203.2744
   433.42         199.0622
   433.56         194.7921
   433.70         190.8054
   433.84         187.4414
   433.98         184.9916
   434.12         183.6607
   434.26         183.5492
   434.40         184.6523
   434.54         186.8657
   434.68         189.9854
   434.82         193.7196
   434.96         197.7289
   435.10         201.6808
   435.24         205.2915
   435.38         208.3573
   435.52         210.7814
   435.66         212.5760
   435.80         213.8270
   435.94         214.6427
   436.08         215.1219
   436.22         215.3522
   436.36         215.4045
   436.50         215.3217
   436.64         215.1249
   436.78         214.8288
   436.92         214.4486
   437.06         213.9947
   437.20         213.4742
   437.34         212.8987
   437.48         212.2860
   437.62         211.6440
   437.76         210.9656
   437.90         210.2498
   438.04         209.5114
   438.18         208.7810
   438.32         208.1041
   438.46         207.5273
   438.60         207.0896
   438.74         206.8227
   438.88         206.7411
   439.02         206.8277
   439.16         207.0465
   439.30         207.3649
   439.44         207.7568
   439.58         208.1913
   439.72         208.6232
   439.86         208.9956
   440.00         209.2493
   440.14         209.3339
   440.28         209.2209
   440.42         208.9170
   440.56         208.4547
   440.70         207.8647
   440.84         207.1732
   440.98         206.4036
   441.12         205.5700
   441.26         204.6874
   441.40         203.7731
   441.54         202.8371
   441.68         201.8875
   441.82         200.9344
   441.96         199.9837
   442.10         199.0369
   442.24         198.0936
   442.38         197.1542
   442.52         196.2341
   442.66         195.3680
   442.80         194.5961
   442.94         193.9522
   443.08         193.4599
   443.22         193.1296
   443.36         192.9591
   443.50         192.9343
   443.64         193.0288
   443.78         193.2108
   443.92         193.4516
   444.06         193.7263
   444.20         194.0134
   444.34         194.2915
   444.48         194.5397
   444.62         194.7421
   444.76         194.8915
   444.90         194.9805
   445.04         194.9970
   445.18         194.9348
   445.32         194.7948
   445.46         194.5765
   445.60         194.2748
   445.74         193.8697
   445.88         193.3150
   446.02         192.5528
   446.16         191.5481
   446.30         190.3202
   446.44         188.9437
   446.58         187.5230
   446.72         186.1666
   446.86         184.9696
   447.00         184.0071
   447.14         183.3391
   447.28         183.0066
   447.42         183.0269
   447.56         183.3922
   447.70         184.0645
   447.84         184.9745
   447.98         186.0269
   448.12         187.1082
   448.26         188.1039
   448.40         188.9168
   448.54         189.4861
   448.68         189.7995
   448.82         189.8866
   448.96         189.7932
   449.10         189.5576
   449.24         189.2118
   449.38         188.7890
   449.52         188.3225
   449.66         187.8477
   449.80         187.3963
   449.94         186.9867
   450.08         186.6209
   450.22         186.2869
   450.36         185.9632
   450.50         185.6355
   450.64         185.3054
   450.78         184.9796
   450.92         184.6606
   451.06         184.3539
   451.20         184.0676
   451.34         183.8114
   451.48         183.6056
   451.62         183.4777
   451.76         183.4469
   451.90         183.5123
   452.04         183.6465
   452.18         183.8053
   452.32         183.9452
   452.46         184.0285
   452.60         184.0217
   452.74         183.8885
   452.88         183.5838
   453.02         183.0613
   453.16         182.2948
   453.30         181.2883
   453.44         180.0747
   453.58         178.7226
   453.72         177.3294
   453.86         175.9997
   454.00         174.8373
   454.14         173.9361
   454.28         173.3610
   454.42         173.1418
   454.56         173.2756
   454.70         173.7336
   454.84         174.4653
   454.98         175.3984
   455.12         176.4396
   455.26         177.4828
   455.40         178.4212
   455.54         179.1681
   455.68         179.6842
   455.82         179.9872
   455.96         180.1241
   456.10         180.1370
   456.24         180.0594
   456.38         179.9192
   456.52         179.7422
   456.66         179.5517
   456.80         179.3630
   456.94         179.1907
   457.08         179.0535
   457.22         178.9701
   457.36         178.9500
   457.50         178.9892
   457.64         179.0717
   457.78         179.1698
   457.92         179.2404
   458.06         179.2364
   458.20         179.1334
   458.34         178.9336
   458.48         178.6461
   458.62         178.2753
   458.76         177.8250
   458.90         177.3156
   459.04         176.7832
   459.18         176.2620
   459.32         175.7858
   459.46         175.3855
   459.60         175.0805
   459.74         174.8743
   459.88         174.7461
   460.02         174.6532
   460.16         174.5615
   460.30         174.4605
   460.44         174.3478
   460.58         174.2230
   460.72         174.0970
   460.86         173.9916
   461.00         173.9244
   461.14         173.8984
   461.28         173.8998
   461.42         173.9026
   461.56         173.8726
   461.70         173.7687
   461.84         173.5595
   461.98         173.2365
   462.12         172.8061
   462.26         172.2879
   462.40         171.7157
   462.54         171.1286
   462.68         170.5677
   462.82         170.0813
   462.96         169.7068
   463.10         169.4527
   463.24         169.3010
   463.38         169.2115
   463.52         169.1254
   463.66         168.9677
   463.80         168.6553
   463.94         168.1208
   464.08         167.3463
   464.22         166.3715
   464.36         165.2830
   464.50         164.1915
   464.64         163.1968
   464.78         162.3781
   464.92         161.7946
   465.06         161.4768
   465.20         161.4280
   465.34         161.6325
   465.48         162.0509
   465.62         162.6150
   465.76         163.2395
   465.90         163.8394
   466.04         164.3481
   466.18         164.7192
   466.32         164.9252
   466.46         164.9650
   466.60         164.8638
   466.74         164.6619
   466.88         164.3963
   467.02         164.0840
   467.16         163.7052
   467.30         163.2065
   467.44         162.5317
   467.58         161.6512
   467.72         160.5848
   467.86         159.3995
   468.00         158.1851
   468.14         157.0351
   468.28         156.0402
   468.42         155.2847
   468.56         154.8318
   468.70         154.7095
   468.84         154.9043
   468.98         155.3757
   469.12         156.0624
   469.26         156.8847
   469.40         157.7540
   469.54         158.5754
   469.68         159.2534
   469.82         159.7089
   469.96         159.9055
   470.10         159.8594
   470.24         159.6241
   470.38         159.2651
   470.52         158.8332
   470.66         158.3637
   470.80         157.8868
   470.94         157.4310
   471.08         157.0292
   471.22         156.7144
   471.36         156.5060
   471.50         156.4084
   471.64         156.4170
   471.78         156.5212
   471.92         156.7103
   472.06         156.9661
   472.20         157.2569
   472.34         157.5462
   472.48         157.7982
   472.62         157.9831
   472.76         158.0850
   472.90         158.1031
   473.04         158.0478
   473.18         157.9333
   473.32         157.7707
   473.46         157.5716
   473.60         157.3564
   473.74         157.1452
   473.88         156.9470
   474.02         156.7604
   474.16         156.5830
   474.30         156.4207
   474.44         156.2806
   474.58         156.1605
   474.72         156.0431
   474.86         155.8970
   475.00         155.6846
   475.14         155.3783
   475.28         154.9730
   475.42         154.4781
   475.56         153.9130
   475.70         153.3030
   475.84         152.6782
   475.98         152.0776
   476.12         151.5426
   476.26         151.1035
   476.40         150.7676
   476.54         150.5212
   476.68         150.3445
   476.82         150.2187
   476.96         150.1224
   477.10         150.0308
   477.24         149.9204
   477.38         149.7721
   477.52         149.5742
   477.66         149.3301
   477.80         149.0605
   477.94         148.7907
   478.08         148.5418
   478.22         148.3316
   478.36         148.1641
   478.50         148.0325
   478.64         147.9253
   478.78         147.8293
   478.92         147.7405
   479.06         147.6578
   479.20         147.5730
   479.34         147.4826
   479.48         147.3868
   479.62         147.2801
   479.76         147.1535
   479.90         146.9955
   480.04         146.7976
   480.18         146.5654
   480.32         146.3150
   480.46         146.0639
   480.60         145.8301
   480.74         145.6270
   480.88         145.4529
   481.02         145.2925
   481.16         145.1328
   481.30         144.9711
   481.44         144.8196
   481.58         144.6960
   481.72         144.5995
   481.86         144.5133
   482.00         144.4251
   482.14         144.3312
   482.28         144.2345
   482.42         144.1482
   482.56         144.0939
   482.70         144.0893
   482.84         144.1364
   482.98         144.2145
   483.12         144.2899
   483.26         144.3323
   483.40         144.3175
   483.54         144.2319
   483.68         144.0813
   483.82         143.8846
   483.96         143.6607
   484.10         143.4216
   484.24         143.1603
   484.38         142.8410
   484.52         142.4080
   484.66         141.7920
   484.80         140.9036
   484.94         139.6438
   485.08         137.9381
   485.22         135.7669
   485.36         133.1843
   485.50         130.3241
   485.64         127.3790
   485.78         124.5711
   485.92         122.1225
   486.06         120.2270
   486.20         119.0286
   486.34         118.6060
   486.48         118.9632
   486.62         120.0330
   486.76         121.6866
   486.90         123.7407
   487.04         125.9745
   487.18         128.1622
   487.32         130.1067
   487.46         131.6726
   487.60         132.8056
   487.74         133.5280
   487.88         133.9096
   488.02         134.0321
   488.16         133.9690
   488.30         133.7789
   488.44         133.5094
   488.58         133.2010
   488.72         132.8859
   488.86         132.5852
   489.00         132.3124
   489.14         132.0750
   489.28         131.8663
   489.42         131.6626
   489.56         131.4405
   489.70         131.1976
   489.84         130.9547
   489.98         130.7487
   490.12         130.6200
   490.26         130.5997
   490.40         130.7066
   490.54         130.9414
   490.68         131.2830
   490.82         131.6928
   490.96         132.1124
   491.10         132.4703
   491.24         132.7049
   491.38         132.7808
   491.52         132.6921
   491.66         132.4599
   491.80         132.1240
   491.94         131.7312
   492.08         131.3360
   492.22         131.0025
   492.36         130.7900
   492.50         130.7342
   492.64         130.8402
   492.78         131.0860
   492.92         131.4317
   493.06         131.8311
   493.20         132.2379
   493.34         132.6115
   493.48         132.9174
   493.62         133.1307
   493.76         133.2449
   493.90         133.2666
   494.04         133.2025
   494.18         133.0593
   494.32         132.8541
   494.46         132.6090
   494.60         132.3403
   494.74         132.0618
   494.88         131.7936
   495.02         131.5608
   495.16         131.3791
   495.30         131.2479
   495.44         131.1533
   495.58         131.0741
   495.72         130.9905
   495.86         130.8891
   496.00         130.7640
   496.14         130.6147
   496.28         130.4450
   496.42         130.2686
   496.56         130.1068
   496.70         129.9774
   496.84         129.8889
   496.98         129.8347
   497.12         129.7923
   497.26         129.7374
   497.40         129.6586
   497.54         129.5562
   497.68         129.4326
   497.82         129.2855
   497.96         129.1163
   498.10         128.9380
   498.24         128.7728
   498.38         128.6492
   498.52         128.5883
   498.66         128.5915
   498.80         128.6402
   498.94         128.7046
   499.08         128.7564
   499.22         128.7695
   499.36         128.7159
   499.50         128.5771
   499.64         128.3541
   499.78         128.0637
   499.92         127.7229
   500.06         127.3396
   500.20         126.9142
   500.34         126.4394
   500.48         125.9070
   500.62         125.3259
   500.76         124.7251
   500.90         124.1415
   501.04         123.6115
   501.18         123.1590
   501.32         122.7905
   501.46         122.5032
   501.60         122.2907
   501.74         122.1487
   501.88         122.0684
   502.02         122.0343
   502.16         122.0335
   502.30         122.0549
   502.44         122.0866
   502.58         122.1191
   502.72         122.1471
   502.86         122.1670
   503.00         122.1752
   503.14         122.1780
   503.28         122.1925
   503.42         122.2273
   503.56         122.2769
   503.70         122.3296
   503.84         122.3751
   503.98         122.4080
   504.12         122.4297
   504.26         122.4455
   504.40         122.4564
   504.54         122.4522
   504.68         122.4201
   504.82         122.3523
   504.96         122.2417
   505.10         122.0820
   505.24         121.8683
   505.38         121.5940
   505.52         121.2596
   505.66         120.8827
   505.80         120.4952
   505.94         120.1337
   506.08         119.8296
   506.22         119.6028
   506.36         119.4589
   506.50         119.3942
   506.64         119.3996
   506.78         119.4637
   506.92         119.5703
   507.06         119.6921
   507.20         119.7984
   507.34         119.8646
   507.48         119.8708
   507.62         119.8016
   507.76         119.6529
   507.90         119.4374
   508.04         119.1781
   508.18         118.9018
   508.32         118.6398
   508.46         118.4199
   508.60         118.2576
   508.74         118.1571
   508.88         118.1127
   509.02         118.1077
   509.16         118.1186
   509.30         118.1215
   509.44         118.0928
   509.58         118.0091
   509.72         117.8554
   509.86         117.6311
   510.00         117.3484
   510.14         117.0261
   510.28         116.6867
   510.42         116.3570
   510.56         116.0601
   510.70         115.8082
   510.84         115.6059
   510.98         115.4552
   511.12         115.3497
   511.26         115.2751
   511.40         115.2186
   511.54         115.1696
   511.68         115.1123
   511.82         115.0364
   511.96         114.9513
   512.10         114.8761
   512.24         114.8209
   512.38         114.7818
   512.52         114.7542
   512.66         114.7389
   512.80         114.7377
   512.94         114.7504
   513.08         114.7670
   513.22         114.7670
   513.36         114.7360
   513.50         114.6743
   513.64         114.5862
   513.78         114.4772
   513.92         114.3597
   514.06         114.2488
   514.20         114.1573
   514.34         114.0980
   514.48         114.0846
   514.62         114.1209
   514.76         114.1933
   514.90         114.2750
   515.04         114.3346
   515.18         114.3466
   515.32         114.2938
   515.46         114.1652
   515.60         113.9549
   515.74         113.6644
   515.88         113.3093
   516.02         112.9190
   516.16         112.5264
   516.30         112.1605
   516.44         111.8490
   516.58         111.6134
   516.72         111.4582
   516.86         111.3776
   517.00         111.3633
   517.14         111.3986
   517.28         111.4629
   517.42         111.5353
   517.56         111.5915
   517.70         111.6128
   517.84         111.5956
   517.98         111.5475
   518.12         111.4777
   518.26         111.3946
   518.40         111.3060
   518.54         111.2189
   518.68         111.1393
   518.82         111.0696
   518.96         111.0065
   519.10         110.9386
   519.24         110.8486
   519.38         110.7276
   519.52         110.5844
   519.66         110.4314
   519.80         110.2759
   519.94         110.1219
   520.08         109.9698
   520.22         109.8184
   520.36         109.6696
   520.50         109.5272
   520.64         109.3939
   520.78         109.2666
   520.92         109.1320
   521.06         108.9759
   521.20         108.7936
   521.34         108.5884
   521.48         108.3733
   521.62         108.1677
   521.76         107.9836
   521.90         107.8307
   522.04         107.7245
   522.18         107.6685
   522.32         107.6513
   522.46         107.6592
   522.60         107.6797
   522.74         107.7006
   522.88         107.7061
   523.02         107.6858
   523.16         107.6400
   523.30         107.5682
   523.44         107.4697
   523.58         107.3494
   523.72         107.2145
   523.86         107.0672
   524.00         106.9121
   524.14         106.7597
   524.28         106.6132
   524.42         106.4620
   524.56         106.2964
   524.70         106.1087
   524.84         105.8858
   524.98         105.6222
   525.12         105.3279
   525.26         105.0225
   525.40         104.7244
   525.54         104.4457
   525.68         104.2027
   525.82         104.0115
   525.96         103.8780
   526.10         103.8024
   526.24         103.7811
   526.38         103.8028
   526.52         103.8507
   526.66         103.9077
   526.80         103.9555
   526.94         103.9687
   527.08         103.9265
   527.22         103.8249
   527.36         103.6683
   527.50         103.4643
   527.64         103.2269
   527.78         102.9768
   527.92         102.7349
   528.06         102.5157
   528.20         102.3325
   528.34         102.1955
   528.48         102.1029
   528.62         102.0412
   528.76         101.9926
   528.90         101.9419
   529.04         101.8766
   529.18         101.7899
   529.32         101.6866
   529.46         101.5786
   529.60         101.4751
   529.74         101.3879
   529.88         101.3283
   530.02         101.3002
   530.16         101.3042
   530.30         101.3366
   530.44         101.3884
   530.58         101.4468
   530.72         101.4932
   530.86         101.5086
   531.00         101.4774
   531.14         101.3930
   531.28         101.2638
   531.42         101.1052
   531.56         100.9323
   531.70         100.7551
   531.84         100.5809
   531.98         100.4202
   532.12         100.2816
   532.26         100.1694
   532.40         100.0845
   532.54         100.0227
   532.68         99.9733
   532.82         99.9215
   532.96         99.8566
   533.10         99.7774
   533.24         99.6846
   533.38         99.5743
   533.52         99.4429
   533.66         99.2900
   533.80         99.1207
   533.94         98.9431
   534.08         98.7656
   534.22         98.5981
   534.36         98.4521
   534.50         98.3373
   534.64         98.2574
   534.78         98.2037
   534.92         98.1614
   535.06         98.1164
   535.20         98.0556
   535.34         97.9702
   535.48         97.8562
   535.62         97.7118
   535.76         97.5344
   535.90         97.3211
   536.04         97.0789
   536.18         96.8250
   536.32         96.5796
   536.46         96.3664
   536.60         96.2016
   536.74         96.0929
   536.88         96.0458
   537.02         96.0572
   537.16         96.1123
   537.30         96.1888
   537.44         96.2653
   537.58         96.3275
   537.72         96.3611
   537.86         96.3500
   538.00         96.2856
   538.14         96.1664
   538.28         95.9973
   538.42         95.7917
   538.56         95.5697
   538.70         95.3558
   538.84         95.1690
   538.98         95.0199
   539.12         94.9096
   539.26         94.8256
   539.40         94.7486
   539.54         94.6558
   539.68         94.5230
   539.82         94.3301
   539.96         94.0574
   540.10         93.6843
   540.24         93.1966
   540.38         92.6014
   540.52         91.9361
   540.66         91.2548
   540.80         90.6057
   540.94         90.0269
   541.08         89.5531
   541.22         89.2153
   541.36         89.0312
   541.50         88.9990
   541.64         89.1025
   541.78         89.3173
   541.92         89.6151
   542.06         89.9693
   542.20         90.3553
   542.34         90.7512
   542.48         91.1370
   542.62         91.4923
   542.76         91.8066
   542.90         92.0873
   543.04         92.3515
   543.18         92.6045
   543.32         92.8329
   543.46         93.0175
   543.60         93.1469
   543.74         93.2134
   543.88         93.2095
   544.02         93.1323
   544.16         92.9866
   544.30         92.7876
   544.44         92.5552
   544.58         92.3077
   544.72         92.0607
   544.86         91.8292
   545.00         91.6307
   545.14         91.4771
   545.28         91.3656
   545.42         91.2851
   545.56         91.2251
   545.70         91.1742
   545.84         91.1170
   545.98         91.0403
   546.12         90.9394
   546.26         90.8113
   546.40         90.6515
   546.54         90.4599
   546.68         90.2401
   546.82         89.9965
   546.96         89.7352
   547.10         89.4608
   547.24         89.1765
   547.38         88.8874
   547.52         88.5986
   547.66         88.3106
   547.80         88.0189
   547.94         87.7210
   548.08         87.4246
   548.22         87.1482
   548.36         86.9097
   548.50         86.7196
   548.64         86.5826
   548.78         86.4986
   548.92         86.4616
   549.06         86.4645
   549.20         86.5006
   549.34         86.5602
   549.48         86.6313
   549.62         86.6996
   549.76         86.7474
   549.90         86.7608
   550.04         86.7378
   550.18         86.6854
   550.32         86.6126
   550.46         86.5299
   550.60         86.4461
   550.74         86.3674
   550.88         86.2964
   551.02         86.2330
   551.16         86.1764
   551.30         86.1282
   551.44         86.0926
   551.58         86.0692
   551.72         86.0536
   551.86         86.0433
   552.00         86.0349
   552.14         86.0223
   552.28         85.9993
   552.42         85.9656
   552.56         85.9278
   552.70         85.8900
   552.84         85.8487
   552.98         85.7960
   553.12         85.7221
   553.26         85.6191
   553.40         85.4858
   553.54         85.3257
   553.68         85.1475
   553.82         84.9620
   553.96         84.7796
   554.10         84.6084
   554.24         84.4514
   554.38         84.3139
   554.52         84.2017
   554.66         84.1146
   554.80         84.0500
   554.94         84.0066
   555.08         83.9832
   555.22         83.9742
   555.36         83.9699
   555.50         83.9624
   555.64         83.9423
   555.78         83.8982
   555.92         83.8257
   556.06         83.7254
   556.20         83.6004
   556.34         83.4592
   556.48         83.3088
   556.62         83.1531
   556.76         82.9951
   556.90         82.8409
   557.04         82.7002
   557.18         82.5776
   557.32         82.4731
   557.46         82.3883
   557.60         82.3248
   557.74         82.2828
   557.88         82.2547
   558.02         82.2205
   558.16         82.1558
   558.30         82.0411
   558.44         81.8694
   558.58         81.6487
   558.72         81.3958
   558.86         81.1337
   559.00         80.8814
   559.14         80.6487
   559.28         80.4429
   559.42         80.2718
   559.56         80.1457
   559.70         80.0725
   559.84         80.0505
   559.98         80.0705
   560.12         80.1170
   560.26         80.1683
   560.40         80.2004
   560.54         80.1934
   560.68         80.1403
   560.82         80.0487
   560.96         79.9315
   561.10         79.8004
   561.24         79.6631
   561.38         79.5195
   561.52         79.3627
   561.66         79.1844
   561.80         78.9835
   561.94         78.7674
   562.08         78.5473
   562.22         78.3397
   562.36         78.1596
   562.50         78.0146
   562.64         77.9080
   562.78         77.8416
   562.92         77.8172
   563.06         77.8323
   563.20         77.8761
   563.34         77.9324
   563.48         77.9810
   563.62         78.0024
   563.76         77.9844
   563.90         77.9189
   564.04         77.8047
   564.18         77.6497
   564.32         77.4652
   564.46         77.2680
   564.60         77.0773
   564.74         76.9104
   564.88         76.7781
   565.02         76.6805
   565.16         76.6073
   565.30         76.5451
   565.44         76.4844
   565.58         76.4155
   565.72         76.3238
   565.86         76.1936
   566.00         76.0180
   566.14         75.8000
   566.28         75.5510
   566.42         75.2873
   566.56         75.0256
   566.70         74.7840
   566.84         74.5739
   566.98         74.4012
   567.12         74.2745
   567.26         74.1975
   567.40         74.1651
   567.54         74.1686
   567.68         74.1975
   567.82         74.2394
   567.96         74.2813
   568.10         74.3103
   568.24         74.3158
   568.38         74.2966
   568.52         74.2620
   568.66         74.2263
   568.80         74.2015
   568.94         74.1916
   569.08         74.1899
   569.22         74.1830
   569.36         74.1583
   569.50         74.1076
   569.64         74.0337
   569.78         73.9470
   569.92         73.8554
   570.06         73.7638
   570.20         73.6819
   570.34         73.6245
   570.48         73.6031
   570.62         73.6189
   570.76         73.6653
   570.90         73.7326
   571.04         73.8099
   571.18         73.8810
   571.32         73.9212
   571.46         73.9022
   571.60         73.7994
   571.74         73.5991
   571.88         73.3063
   572.02         72.9439
   572.16         72.5453
   572.30         72.1451
   572.44         71.7726
   572.58         71.4496
   572.72         71.1905
   572.86         71.0016
   573.00         70.8810
   573.14         70.8176
   573.28         70.7964
   573.42         70.8048
   573.56         70.8325
   573.70         70.8659
   573.84         70.8843
   573.98         70.8642
   574.12         70.7922
   574.26         70.6691
   574.40         70.5041
   574.54         70.3109
   574.68         70.1079
   574.82         69.9149
   574.96         69.7494
   575.10         69.6241
   575.24         69.5447
   575.38         69.5094
   575.52         69.5154
   575.66         69.5548
   575.80         69.6107
   575.94         69.6631
   576.08         69.6938
   576.22         69.6894
   576.36         69.6434
   576.50         69.5565
   576.64         69.4297
   576.78         69.2608
   576.92         69.0449
   577.06         68.7790
   577.20         68.4691
   577.34         68.1326
   577.48         67.7892
   577.62         67.4535
   577.76         67.1374
   577.90         66.8502
   578.04         66.6021
   578.18         66.4027
   578.32         66.2571
   578.46         66.1708
   578.60         66.1462
   578.74         66.1729
   578.88         66.2290
   579.02         66.2868
   579.16         66.3165
   579.30         66.2937
   579.44         66.2129
   579.58         66.0923
   579.72         65.9591
   579.86         65.8349
   580.00         65.7299
   580.14         65.6443
   580.28         65.5769
   580.42         65.5271
   580.56         65.4957
   580.70         65.4856
   580.84         65.4975
   580.98         65.5308
   581.12         65.5832
   581.26         65.6465
   581.40         65.7093
   581.54         65.7647
   581.68         65.8122
   581.82         65.8542
   581.96         65.8936
   582.10         65.9337
   582.24         65.9717
   582.38         65.9977
   582.52         66.0049
   582.66         65.9932
   582.80         65.9669
   582.94         65.9316
   583.08         65.8897
   583.22         65.8399
   583.36         65.7786
   583.50         65.7048
   583.64         65.6193
   583.78         65.5223
   583.92         65.4162
   584.06         65.3087
   584.20         65.2081
   584.34         65.1186
   584.48         65.0427
   584.62         64.9858
   584.76         64.9540
   584.90         64.9486
   585.04         64.9660
   585.18         64.9975
   585.32         65.0310
   585.46         65.0572
   585.60         65.0745
   585.74         65.0817
   585.88         65.0739
   586.02         65.0449
   586.16         64.9847
   586.30         64.8674
   586.44         64.6549
   586.58         64.3222
   586.72         63.8718
   586.86         63.3310
   587.00         62.7467
   587.14         62.1748
   587.28         61.6672
   587.42         61.2639
   587.56         60.9845
   587.70         60.8206
   587.84         60.7366
   587.98         60.6868
   588.12         60.6354
   588.26         60.5525
   588.40         60.4032
   588.54         60.1552
   588.68         59.7978
   588.82         59.3493
   588.96         58.8531
   589.10         58.3766
   589.24         58.0068
   589.38         57.8215
   589.52         57.8649
   589.66         58.1419
   589.80         58.6225
   589.94         59.2548
   590.08         59.9743
   590.22         60.7079
   590.36         61.3886
   590.50         61.9711
   590.64         62.4327
   590.78         62.7607
   590.92         62.9384
   591.06         62.9556
   591.20         62.8241
   591.34         62.5787
   591.48         62.2618
   591.62         61.9084
   591.76         61.5488
   591.90         61.2109
   592.04         60.9178
   592.18         60.6832
   592.32         60.5095
   592.46         60.3908
   592.60         60.3185
   592.74         60.2869
   592.88         60.2908
   593.02         60.3183
   593.16         60.3501
   593.30         60.3628
   593.44         60.3395
   593.58         60.2746
   593.72         60.1717
   593.86         60.0387
   594.00         59.8829
   594.14         59.7075
   594.28         59.5127
   594.42         59.3013
   594.56         59.0826
   594.70         58.8699
   594.84         58.6759
   594.98         58.5103
   595.12         58.3828
   595.26         58.3068
   595.40         58.2950
   595.54         58.3501
   595.68         58.4627
   595.82         58.6177
   595.96         58.7968
   596.10         58.9819
   596.24         59.1559
   596.38         59.3019
   596.52         59.4051
   596.66         59.4591
   596.80         59.4635
   596.94         59.4198
   597.08         59.3334
   597.22         59.2133
   597.36         59.0691
   597.50         58.9107
   597.64         58.7471
   597.78         58.5874
   597.92         58.4410
   598.06         58.3155
   598.20         58.2153
   598.34         58.1395
   598.48         58.0831
   598.62         58.0407
   598.76         58.0080
   598.90         57.9789
   599.04         57.9467
   599.18         57.9071
   599.32         57.8583
   599.46         57.7969
   599.60         57.7221
   599.74         57.6386
   599.88         57.5532
   600.02         57.4711
   600.16         57.3939
   600.30         57.3190
   600.44         57.2435
   600.58         57.1658
   600.72         57.0831
   600.86         56.9893
   601.00         56.8783
   601.14         56.7463
   601.28         56.5916
   601.42         56.4163
   601.56         56.2311
   601.70         56.0506
   601.84         55.8845
   601.98         55.7359
   602.12         55.6025
   602.26         55.4800
   602.40         55.3648
   602.54         55.2516
   602.68         55.1343
   602.82         55.0071
   602.96         54.8639
   603.10         54.7052
   603.24         54.5388
   603.38         54.3757
   603.52         54.2286
   603.66         54.1102
   603.80         54.0287
   603.94         53.9866
   604.08         53.9847
   604.22         54.0188
   604.36         54.0761
   604.50         54.1393
   604.64         54.1943
   604.78         54.2308
   604.92         54.2434
   605.06         54.2301
   605.20         54.1902
   605.34         54.1292
   605.48         54.0577
   605.62         53.9861
   605.76         53.9234
   605.90         53.8725
   606.04         53.8290
   606.18         53.7872
   606.32         53.7429
   606.46         53.6940
   606.60         53.6393
   606.74         53.5787
   606.88         53.5133
   607.02         53.4465
   607.16         53.3812
   607.30         53.3185
   607.44         53.2583
   607.58         53.2011
   607.72         53.1496
   607.86         53.1073
   608.00         53.0743
   608.14         53.0420
   608.28         52.9970
   608.42         52.9312
   608.56         52.8443
   608.70         52.7423
   608.84         52.6328
   608.98         52.5227
   609.12         52.4170
   609.26         52.3195
   609.40         52.2338
   609.54         52.1631
   609.68         52.1099
   609.82         52.0756
   609.96         52.0636
   610.10         52.0780
   610.24         52.1194
   610.38         52.1818
   610.52         52.2534
   610.66         52.3219
   610.80         52.3795
   610.94         52.4252
   611.08         52.4607
   611.22         52.4849
   611.36         52.4903
   611.50         52.4655
   611.64         52.4044
   611.78         52.3093
   611.92         52.1880
   612.06         52.0482
   612.20         51.8976
   612.34         51.7458
   612.48         51.6049
   612.62         51.4858
   612.76         51.3947
   612.90         51.3346
   613.04         51.3082
   613.18         51.3173
   613.32         51.3595
   613.46         51.4285
   613.60         51.5167
   613.74         51.6148
   613.88         51.7106
   614.02         51.7939
   614.16         51.8623
   614.30         51.9180
   614.44         51.9624
   614.58         51.9934
   614.72         52.0091
   614.86         52.0093
   615.00         51.9941
   615.14         51.9635
   615.28         51.9185
   615.42         51.8648
   615.56         51.8100
   615.70         51.7548
   615.84         51.6933
   615.98         51.6180
   616.12         51.5231
   616.26         51.4054
   616.40         51.2640
   616.54         51.1019
   616.68         50.9278
   616.82         50.7516
   616.96         50.5802
   617.10         50.4205
   617.24         50.2784
   617.38         50.1578
   617.52         50.0579
   617.66         49.9750
   617.80         49.9071
   617.94         49.8530
   618.08         49.8086
   618.22         49.7646
   618.36         49.7101
   618.50         49.6410
   618.64         49.5630
   618.78         49.4883
   618.92         49.4288
   619.06         49.3915
   619.20         49.3762
   619.34         49.3785
   619.48         49.3940
   619.62         49.4209
   619.76         49.4571
   619.90         49.4994
   620.04         49.5434
   620.18         49.5851
   620.32         49.6222
   620.46         49.6542
   620.60         49.6797
   620.74         49.6989
   620.88         49.7143
   621.02         49.7291
   621.16         49.7483
   621.30         49.7778
   621.44         49.8198
   621.58         49.8718
   621.72         49.9286
   621.86         49.9846
   622.00         50.0350
   622.14         50.0739
   622.28         50.0907
   622.42         50.0737
   622.56         50.0130
   622.70         49.9028
   622.84         49.7448
   622.98         49.5489
   623.12         49.3304
   623.26         49.1090
   623.40         48.9046
   623.54         48.7345
   623.68         48.6123
   623.82         48.5477
   623.96         48.5457
   624.10         48.6045
   624.24         48.7152
   624.38         48.8618
   624.52         49.0203
   624.66         49.1659
   624.80         49.2784
   624.94         49.3447
   625.08         49.3612
   625.22         49.3309
   625.36         49.2623
   625.50         49.1676
   625.64         49.0581
   625.78         48.9410
   625.92         48.8226
   626.06         48.7077
   626.20         48.5991
   626.34         48.4943
   626.48         48.3854
   626.62         48.2597
   626.76         48.1011
   626.90         47.8952
   627.04         47.6329
   627.18         47.3117
   627.32         46.9406
   627.46         46.5378
   627.60         46.1273
   627.74         45.7376
   627.88         45.3981
   628.02         45.1349
   628.16         44.9681
   628.30         44.9094
   628.44         44.9613
   628.58         45.1147
   628.72         45.3495
   628.86         45.6382
   629.00         45.9508
   629.14         46.2579
   629.28         46.5342
   629.42         46.7607
   629.56         46.9273
   629.70         47.0288
   629.84         47.0635
   629.98         47.0372
   630.12         46.9647
   630.26         46.8653
   630.40         46.7555
   630.54         46.6463
   630.68         46.5432
   630.82         46.4478
   630.96         46.3603
   631.10         46.2827
   631.24         46.2184
   631.38         46.1701
   631.52         46.1375
   631.66         46.1166
   631.80         46.1030
   631.94         46.0937
   632.08         46.0854
   632.22         46.0743
   632.36         46.0548
   632.50         46.0224
   632.64         45.9767
   632.78         45.9224
   632.92         45.8636
   633.06         45.8021
   633.20         45.7387
   633.34         45.6747
   633.48         45.6139
   633.62         45.5622
   633.76         45.5241
   633.90         45.5016
   634.04         45.4941
   634.18         45.5019
   634.32         45.5271
   634.46         45.5679
   634.60         45.6167
   634.74         45.6643
   634.88         45.7031
   635.02         45.7270
   635.16         45.7330
   635.30         45.7234
   635.44         45.7012
   635.58         45.6660
   635.72         45.6179
   635.86         45.5586
   636.00         45.4896
   636.14         45.4131
   636.28         45.3301
   636.42         45.2411
   636.56         45.1454
   636.70         45.0435
   636.84         44.9394
   636.98         44.8388
   637.12         44.7460
   637.26         44.6654
   637.40         44.6034
   637.54         44.5649
   637.68         44.5513
   637.82         44.5626
   637.96         44.5982
   638.10         44.6542
   638.24         44.7244
   638.38         44.8025
   638.52         44.8822
   638.66         44.9577
   638.80         45.0258
   638.94         45.0845
   639.08         45.1304
   639.22         45.1583
   639.36         45.1633
   639.50         45.1426
   639.64         45.0946
   639.78         45.0178
   639.92         44.9120
   640.06         44.7806
   640.20         44.6290
   640.34         44.4645
   640.48         44.2969
   640.62         44.1378
   640.76         43.9957
   640.90         43.8754
   641.04         43.7790
   641.18         43.7052
   641.32         43.6491
   641.46         43.6032
   641.60         43.5600
   641.74         43.5145
   641.88         43.4661
   642.02         43.4173
   642.16         43.3707
   642.30         43.3288
   642.44         43.2952
   642.58         43.2738
   642.72         43.2665
   642.86         43.2732
   643.00         43.2898
   643.14         43.3095
   643.28         43.3241
   643.42         43.3255
   643.56         43.3086
   643.70         43.2694
   643.84         43.2069
   643.98         43.1248
   644.12         43.0297
   644.26         42.9303
   644.40         42.8375
   644.54         42.7593
   644.68         42.6991
   644.82         42.6583
   644.96         42.6377
   645.10         42.6342
   645.24         42.6383
   645.38         42.6404
   645.52         42.6338
   645.66         42.6141
   645.80         42.5806
   645.94         42.5350
   646.08         42.4798
   646.22         42.4163
   646.36         42.3466
   646.50         42.2772
   646.64         42.2167
   646.78         42.1713
   646.92         42.1463
   647.06         42.1442
   647.20         42.1622
   647.34         42.1922
   647.48         42.2252
   647.62         42.2534
   647.76         42.2706
   647.90         42.2746
   648.04         42.2670
   648.18         42.2495
   648.32         42.2232
   648.46         42.1900
   648.60         42.1526
   648.74         42.1150
   648.88         42.0834
   649.02         42.0649
   649.16         42.0627
   649.30         42.0733
   649.44         42.0896
   649.58         42.1044
   649.72         42.1138
   649.86         42.1162
   650.00         42.1113
   650.14         42.0991
   650.28         42.0810
   650.42         42.0595
   650.56         42.0373
   650.70         42.0150
   650.84         41.9920
   650.98         41.9685
   651.12         41.9456
   651.26         41.9233
   651.40         41.9005
   651.54         41.8749
   651.68         41.8441
   651.82         41.8050
   651.96         41.7567
   652.10         41.7028
   652.24         41.6512
   652.38         41.6121
   652.52         41.5911
   652.66         41.5874
   652.80         41.5989
   652.94         41.6261
   653.08         41.6682
   653.22         41.7185
   653.36         41.7670
   653.50         41.8039
   653.64         41.8204
   653.78         41.8094
   653.92         41.7669
   654.06         41.6913
   654.20         41.5821
   654.34         41.4387
   654.48         41.2579
   654.62         41.0324
   654.76         40.7497
   654.90         40.3928
   655.04         39.9425
   655.18         39.3837
   655.32         38.7161
   655.46         37.9628
   655.60         37.1676
   655.74         36.3867
   655.88         35.6827
   656.02         35.1182
   656.16         34.7457
   656.30         34.5987
   656.44         34.6882
   656.58         35.0033
   656.72         35.5122
   656.86         36.1674
   657.00         36.9109
   657.14         37.6802
   657.28         38.4181
   657.42         39.0785
   657.56         39.6329
   657.70         40.0716
   657.84         40.3999
   657.98         40.6338
   658.12         40.7939
   658.26         40.8966
   658.40         40.9525
   658.54         40.9661
   658.68         40.9398
   658.82         40.8776
   658.96         40.7862
   659.10         40.6759
   659.24         40.5595
   659.38         40.4499
   659.52         40.3582
   659.66         40.2920
   659.80         40.2541
   659.94         40.2421
   660.08         40.2486
   660.22         40.2636
   660.36         40.2765
   660.50         40.2786
   660.64         40.2640
   660.78         40.2307
   660.92         40.1810
   661.06         40.1193
   661.20         40.0515
   661.34         39.9865
   661.48         39.9328
   661.62         39.8935
   661.76         39.8683
   661.90         39.8554
   662.04         39.8532
   662.18         39.8587
   662.32         39.8644
   662.46         39.8630
   662.60         39.8511
   662.74         39.8281
   662.88         39.7950
   663.02         39.7547
   663.16         39.7109
   663.30         39.6659
   663.44         39.6201
   663.58         39.5736
   663.72         39.5269
   663.86         39.4826
   664.00         39.4429
   664.14         39.4060
   664.28         39.3689
   664.42         39.3308
   664.56         39.2914
   664.70         39.2518
   664.84         39.2133
   664.98         39.1775
   665.12         39.1480
   665.26         39.1271
   665.40         39.1135
   665.54         39.1036
   665.68         39.0926
   665.82         39.0754
   665.96         39.0465
   666.10         39.0001
   666.24         38.9307
   666.38         38.8305
   666.52         38.6866
   666.66         38.4862
   666.80         38.2234
   666.94         37.9045
   667.08         37.5461
   667.22         37.1697
   667.36         36.8011
   667.50         36.4638
   667.64         36.1755
   667.78         35.9506
   667.92         35.7996
   668.06         35.7285
   668.20         35.7369
   668.34         35.8170
   668.48         35.9555
   668.62         36.1336
   668.76         36.3288
   668.90         36.5193
   669.04         36.6876
   669.18         36.8233
   669.32         36.9249
   669.46         36.9982
   669.60         37.0528
   669.74         37.0959
   669.88         37.1327
   670.02         37.1674
   670.16         37.2025
   670.30         37.2397
   670.44         37.2811
   670.58         37.3273
   670.72         37.3750
   670.86         37.4201
   671.00         37.4605
   671.14         37.4954
   671.28         37.5244
   671.42         37.5444
   671.56         37.5493
   671.70         37.5341
   671.84         37.4986
   671.98         37.4466
   672.12         37.3816
   672.26         37.3066
   672.40         37.2242
   672.54         37.1395
   672.68         37.0580
   672.82         36.9827
   672.96         36.9140
   673.10         36.8519
   673.24         36.7963
   673.38         36.7464
   673.52         36.7029
   673.66         36.6670
   673.80         36.6395
   673.94         36.6210
   674.08         36.6101
   674.22         36.6056
   674.36         36.6075
   674.50         36.6150
   674.64         36.6254
   674.78         36.6362
   674.92         36.6481
   675.06         36.6624
   675.20         36.6791
   675.34         36.6953
   675.48         36.7065
   675.62         36.7099
   675.76         36.7061
   675.90         36.6970
   676.04         36.6843
   676.18         36.6680
   676.32         36.6472
   676.46         36.6190
   676.60         36.5779
   676.74         36.5183
   676.88         36.4382
   677.02         36.3404
   677.16         36.2317
   677.30         36.1208
   677.44         36.0168
   677.58         35.9267
   677.72         35.8538
   677.86         35.8002
   678.00         35.7668
   678.14         35.7538
   678.28         35.7609
   678.42         35.7862
   678.56         35.8254
   678.70         35.8722
   678.84         35.9203
   678.98         35.9642
   679.12         35.9997
   679.26         36.0219
   679.40         36.0276
   679.54         36.0179
   679.68         35.9962
   679.82         35.9657
   679.96         35.9288
   680.10         35.8860
   680.24         35.8366
   680.38         35.7799
   680.52         35.7173
   680.66         35.6514
   680.80         35.5863
   680.94         35.5259
   681.08         35.4729
   681.22         35.4305
   681.36         35.4030
   681.50         35.3936
   681.64         35.4040
   681.78         35.4319
   681.92         35.4739
   682.06         35.5267
   682.20         35.5853
   682.34         35.6404
   682.48         35.6820
   682.62         35.7035
   682.76         35.7014
   682.90         35.6752
   683.04         35.6266
   683.18         35.5614
   683.32         35.4887
   683.46         35.4151
   683.60         35.3428
   683.74         35.2720
   683.88         35.2041
   684.02         35.1407
   684.16         35.0828
   684.30         35.0305
   684.44         34.9844
   684.58         34.9456
   684.72         34.9125
   684.86         34.8805
   685.00         34.8474
   685.14         34.8125
   685.28         34.7718
   685.42         34.7129
   685.56         34.6118
   685.70         34.4356
   685.84         34.1538
   685.98         33.7464
   686.12         33.2075
   686.26         32.5487
   686.40         31.8005
   686.54         31.0076
   686.68         30.2227
   686.82         29.5012
   686.96         28.8973
   687.10         28.4560
   687.24         28.2036
   687.38         28.1433
   687.52         28.2575
   687.66         28.5105
   687.80         28.8499
   687.94         29.2164
   688.08         29.5518
   688.22         29.8106
   688.36         29.9719
   688.50         30.0410
   688.64         30.0415
   688.78         30.0035
   688.92         29.9575
   689.06         29.9319
   689.20         29.9484
   689.34         30.0195
   689.48         30.1485
   689.62         30.3275
   689.76         30.5387
   689.90         30.7601
   690.04         30.9707
   690.18         31.1553
   690.32         31.3063
   690.46         31.4229
   690.60         31.5091
   690.74         31.5725
   690.88         31.6258
   691.02         31.6839
   691.16         31.7579
   691.30         31.8537
   691.44         31.9718
   691.58         32.1073
   691.72         32.2514
   691.86         32.3958
   692.00         32.5356
   692.14         32.6675
   692.28         32.7885
   692.42         32.8957
   692.56         32.9865
   692.70         33.0571
   692.84         33.1033
   692.98         33.1241
   693.12         33.1228
   693.26         33.1068
   693.40         33.0850
   693.54         33.0646
   693.68         33.0489
   693.82         33.0390
   693.96         33.0358
   694.10         33.0388
   694.24         33.0465
   694.38         33.0578
   694.52         33.0723
   694.66         33.0889
   694.80         33.1065
   694.94         33.1239
   695.08         33.1401
   695.22         33.1533
   695.36         33.1621
   695.50         33.1691
   695.64         33.1812
   695.78         33.2069
   695.92         33.2508
   696.06         33.3152
   696.20         33.4021
   696.34         33.5114
   696.48         33.6385
   696.62         33.7719
   696.76         33.8986
   696.90         34.0081
   697.04         34.0920
   697.18         34.1448
   697.32         34.1639
   697.46         34.1485
   697.60         34.0987
   697.74         34.0167
   697.88         33.9082
   698.02         33.7822
   698.16         33.6501
   698.30         33.5226
   698.44         33.4068
   698.58         33.3056
   698.72         33.2186
   698.86         33.1433
   699.00         33.0762
   699.14         33.0133
   699.28         32.9514
   699.42         32.8912
   699.56         32.8350
   699.70         32.7836
   699.84         32.7369
   699.98         32.6913
   700.12         32.6403
   700.26         32.5775
   700.40         32.4983
   700.54         32.3996
   700.68         32.2799
   700.82         32.1395
   700.96         31.9832
   701.10         31.8193
   701.24         31.6567
   701.38         31.5043
   701.52         31.3721
   701.66         31.2671
   701.80         31.1926
   701.94         31.1500
   702.08         31.1386
   702.22         31.1522
   702.36         31.1815
   702.50         31.2164
   702.64         31.2469
   702.78         31.2666
   702.92         31.2733
   703.06         31.2652
   703.20         31.2399
   703.34         31.1966
   703.48         31.1379
   703.62         31.0697
   703.76         30.9966
   703.90         30.9205
   704.04         30.8429
   704.18         30.7652
   704.32         30.6900
   704.46         30.6199
   704.60         30.5552
   704.74         30.4948
   704.88         30.4370
   705.02         30.3779
   705.16         30.3065
   705.30         30.2084
   705.44         30.0742
   705.58         29.9037
   705.72         29.7045
   705.86         29.4913
   706.00         29.2825
   706.14         29.0965
   706.28         28.9480
   706.42         28.8477
   706.56         28.8029
   706.70         28.8154
   706.84         28.8823
   706.98         28.9968
   707.12         29.1459
   707.26         29.3110
   707.40         29.4755
   707.54         29.6254
   707.68         29.7509
   707.82         29.8492
   707.96         29.9261
   708.10         29.9929
   708.24         30.0589
   708.38         30.1267
   708.52         30.1940
   708.66         30.2551
   708.80         30.3021
   708.94         30.3279
   709.08         30.3274
   709.22         30.2965
   709.36         30.2323
   709.50         30.1344
   709.64         30.0064
   709.78         29.8559
   709.92         29.6941
   710.06         29.5376
   710.20         29.4024
   710.34         29.2995
   710.48         29.2348
   710.62         29.2089
   710.76         29.2194
   710.90         29.2635
   711.04         29.3370
   711.18         29.4325
   711.32         29.5389
   711.46         29.6425
   711.60         29.7300
   711.74         29.7900
   711.88         29.8152
   712.02         29.8041
   712.16         29.7594
   712.30         29.6878
   712.44         29.5965
   712.58         29.4919
   712.72         29.3811
   712.86         29.2703
   713.00         29.1661
   713.14         29.0762
   713.28         29.0077
   713.42         28.9643
   713.56         28.9454
   713.70         28.9481
   713.84         28.9677
   713.98         29.0001
   714.12         29.0437
   714.26         29.1006
   714.40         29.1748
   714.54         29.2667
   714.68         29.3712
   714.82         29.4775
   714.96         29.5745
   715.10         29.6534
   715.24         29.7066
   715.38         29.7291
   715.52         29.7158
   715.66         29.6645
   715.80         29.5754
   715.94         29.4487
   716.08         29.2848
   716.22         29.0899
   716.36         28.8729
   716.50         28.6421
   716.64         28.4062
   716.78         28.1740
   716.92         27.9510
   717.06         27.7384
   717.20         27.5344
   717.34         27.3356
   717.48         27.1405
   717.62         26.9549
   717.76         26.7853
   717.90         26.6326
   718.04         26.4935
   718.18         26.3663
   718.32         26.2551
   718.46         26.1651
   718.60         26.0983
   718.74         26.0548
   718.88         26.0343
   719.02         26.0368
   719.16         26.0644
   719.30         26.1177
   719.44         26.1920
   719.58         26.2802
   719.72         26.3759
   719.86         26.4748
   720.00         26.5761
   720.14         26.6826
   720.28         26.7966
   720.42         26.9154
   720.56         27.0347
   720.70         27.1524
   720.84         27.2702
   720.98         27.3905
   721.12         27.5122
   721.26         27.6304
   721.40         27.7399
   721.54         27.8383
   721.68         27.9230
   721.82         27.9875
   721.96         28.0230
   722.10         28.0218
   722.24         27.9780
   722.38         27.8893
   722.52         27.7596
   722.66         27.5974
   722.80         27.4116
   722.94         27.2104
   723.08         27.0026
   723.22         26.7983
   723.36         26.6083
   723.50         26.4442
   723.64         26.3175
   723.78         26.2328
   723.92         26.1847
   724.06         26.1650
   724.20         26.1665
   724.34         26.1817
   724.48         26.2046
   724.62         26.2303
   724.76         26.2552
   724.90         26.2781
   725.04         26.3007
   725.18         26.3257
   725.32         26.3525
   725.46         26.3795
   725.60         26.4077
   725.74         26.4398
   725.88         26.4779
   726.02         26.5210
   726.16         26.5653
   726.30         26.6052
   726.44         26.6328
   726.58         26.6428
   726.72         26.6368
   726.86         26.6181
   727.00         26.5867
   727.14         26.5426
   727.28         26.4911
   727.42         26.4442
   727.56         26.4164
   727.70         26.4179
   727.84         26.4538
   727.98         26.5235
   728.12         26.6217
   728.26         26.7397
   728.40         26.8648
   728.54         26.9829
   728.68         27.0818
   728.82         27.1530
   728.96         27.1902
   729.10         27.1906
   729.24         27.1571
   729.38         27.0979
   729.52         27.0226
   729.66         26.9416
   729.80         26.8666
   729.94         26.8071
   730.08         26.7654
   730.22         26.7354
   730.36         26.7059
   730.50         26.6684
   730.64         26.6228
   730.78         26.5780
   730.92         26.5462
   731.06         26.5368
   731.20         26.5542
   731.34         26.5979
   731.48         26.6643
   731.62         26.7475
   731.76         26.8392
   731.90         26.9272
   732.04         26.9994
   732.18         27.0456
   732.32         27.0574
   732.46         27.0306
   732.60         26.9655
   732.74         26.8671
   732.88         26.7456
   733.02         26.6146
   733.16         26.4891
   733.30         26.3808
   733.44         26.2940
   733.58         26.2257
   733.72         26.1704
   733.86         26.1217
   734.00         26.0759
   734.14         26.0328
   734.28         25.9926
   734.42         25.9556
   734.56         25.9257
   734.70         25.9113
   734.84         25.9186
   734.98         25.9488
   735.12         26.0004
   735.26         26.0703
   735.40         26.1544
   735.54         26.2458
   735.68         26.3351
   735.82         26.4112
   735.96         26.4615
   736.10         26.4781
   736.24         26.4617
   736.38         26.4188
   736.52         26.3586
   736.66         26.2899
   736.80         26.2200
   736.94         26.1539
   737.08         26.0970
   737.22         26.0546
   737.36         26.0275
   737.50         26.0122
   737.64         26.0052
   737.78         26.0069
   737.92         26.0187
   738.06         26.0393
   738.20         26.0652
   738.34         26.0917
   738.48         26.1132
   738.62         26.1252
   738.76         26.1264
   738.90         26.1166
   739.04         26.0953
   739.18         26.0631
   739.32         26.0224
   739.46         25.9787
   739.60         25.9395
   739.74         25.9120
   739.88         25.9000
   740.02         25.9046
   740.16         25.9269
   740.30         25.9672
   740.44         26.0220
   740.58         26.0835
   740.72         26.1445
   740.86         26.2010
   741.00         26.2513
   741.14         26.2952
   741.28         26.3311
   741.42         26.3562
   741.56         26.3693
   741.70         26.3692
   741.84         26.3537
   741.98         26.3210
   742.12         26.2731
   742.26         26.2160
   742.40         26.1579
   742.54         26.1069
   742.68         26.0699
   742.82         26.0508
   742.96         26.0508
   743.10         26.0699
   743.24         26.1069
   743.38         26.1579
   743.52         26.2160
   743.66         26.2731
   743.80         26.3210
   743.94         26.3537
   744.08         26.3692
   744.22         26.3693
