# File HD209678
# Wavelength [nm]    Normalized Amplitude
   349.70         284.2212
   349.84         284.6137
   349.98         284.8532
   350.12         284.8820
   350.26         284.6959
   350.40         284.3411
   350.54         283.8788
   350.68         283.3779
   350.82         282.9233
   350.96         282.6058
   351.10         282.4924
   351.24         282.6058
   351.38         282.9233
   351.52         283.3779
   351.66         283.8788
   351.80         284.3411
   351.94         284.6959
   352.08         284.8820
   352.22         284.8532
   352.36         284.6137
   352.50         284.2212
   352.64         283.7560
   352.78         283.3119
   352.92         282.9811
   353.06         282.8214
   353.20         282.8557
   353.34         283.0857
   353.48         283.4880
   353.62         284.0100
   353.76         284.5669
   353.90         285.0295
   354.04         285.2358
   354.18         285.0524
   354.32         284.4378
   354.46         283.4461
   354.60         282.1777
   354.74         280.7387
   354.88         279.2390
   355.02         277.7887
   355.16         276.4762
   355.30         275.3583
   355.44         274.4662
   355.58         273.8187
   355.72         273.4427
   355.86         273.3592
   356.00         273.5478
   356.14         273.9520
   356.28         274.5007
   356.42         275.1019
   356.56         275.6400
   356.70         276.0144
   356.84         276.1664
   356.98         276.0608
   357.12         275.6694
   357.26         274.9689
   357.40         273.9494
   357.54         272.6218
   357.68         271.0196
   357.82         269.2130
   357.96         267.3300
   358.10         265.5265
   358.24         263.9373
   358.38         262.6550
   358.52         261.7148
   358.66         261.1013
   358.80         260.7683
   358.94         260.6394
   359.08         260.6173
   359.22         260.6196
   359.36         260.6029
   359.50         260.5531
   359.64         260.4560
   359.78         260.3016
   359.92         260.0961
   360.06         259.8401
   360.20         259.5314
   360.34         259.1953
   360.48         258.8889
   360.62         258.6661
   360.76         258.5450
   360.90         258.5152
   361.04         258.5485
   361.18         258.6108
   361.32         258.6870
   361.46         258.7770
   361.60         258.8736
   361.74         258.9603
   361.88         259.0161
   362.02         259.0085
   362.16         258.8882
   362.30         258.6085
   362.44         258.1782
   362.58         257.6671
   362.72         257.1563
   362.86         256.7175
   363.00         256.4107
   363.14         256.2758
   363.28         256.3300
   363.42         256.5663
   363.56         256.9524
   363.70         257.4519
   363.84         258.0312
   363.98         258.6454
   364.12         259.2390
   364.26         259.7669
   364.40         260.2091
   364.54         260.5737
   364.68         260.8887
   364.82         261.2131
   364.96         261.6390
   365.10         262.2346
   365.24         262.9874
   365.38         263.8114
   365.52         264.6041
   365.66         265.2834
   365.80         265.7838
   365.94         266.0456
   366.08         266.0233
   366.22         265.7124
   366.36         265.1460
   366.50         264.3536
   366.64         263.3656
   366.78         262.2363
   366.92         261.0338
   367.06         259.8291
   367.20         258.7041
   367.34         257.7466
   367.48         257.0257
   367.62         256.5804
   367.76         256.4147
   367.90         256.4977
   368.04         256.7762
   368.18         257.1870
   368.32         257.6502
   368.46         258.0568
   368.60         258.2957
   368.74         258.3081
   368.88         258.0926
   369.02         257.6554
   369.16         256.9854
   369.30         256.0814
   369.44         254.9911
   369.58         253.8304
   369.72         252.7346
   369.86         251.7809
   370.00         250.9909
   370.14         250.3743
   370.28         249.9633
   370.42         249.8114
   370.56         249.9731
   370.70         250.4849
   370.84         251.3286
   370.98         252.4110
   371.12         253.6039
   371.26         254.8212
   371.40         256.0402
   371.54         257.2566
   371.68         258.4508
   371.82         259.6026
   371.96         260.6973
   372.10         261.6771
   372.24         262.4219
   372.38         262.7939
   372.52         262.7257
   372.66         262.3105
   372.80         261.7819
   372.94         261.4219
   373.08         261.4695
   373.22         262.0665
   373.36         263.2333
   373.50         264.8621
   373.64         266.7459
   373.78         268.6262
   373.92         270.2430
   374.06         271.3792
   374.20         271.8985
   374.34         271.7572
   374.48         271.0025
   374.62         269.7820
   374.76         268.3482
   374.90         267.0495
   375.04         266.2720
   375.18         266.3425
   375.32         267.4332
   375.46         269.4856
   375.60         272.1811
   375.74         274.9861
   375.88         277.2842
   376.02         278.5369
   376.16         278.4224
   376.30         276.9148
   376.44         274.2849
   376.58         271.0354
   376.72         267.7754
   376.86         265.0771
   377.00         263.3659
   377.14         262.8906
   377.28         263.7434
   377.42         265.8664
   377.56         269.0667
   377.70         273.0476
   377.84         277.4275
   377.98         281.7732
   378.12         285.6446
   378.26         288.6262
   378.40         290.3750
   378.54         290.6872
   378.68         289.5506
   378.82         287.1451
   378.96         283.7903
   379.10         279.8859
   379.24         275.8517
   379.38         272.0835
   379.52         268.9482
   379.66         266.7864
   379.80         265.8898
   379.94         266.4411
   380.08         268.4716
   380.22         271.8448
   380.36         276.2436
   380.50         281.1860
   380.64         286.0961
   380.78         290.4050
   380.92         293.6684
   381.06         295.6745
   381.20         296.4758
   381.34         296.3317
   381.48         295.5764
   381.62         294.4894
   381.76         293.2303
   381.90         291.8298
   382.04         290.2191
   382.18         288.2686
   382.32         285.8320
   382.46         282.8117
   382.60         279.2116
   382.74         275.1537
   382.88         270.8570
   383.02         266.6150
   383.16         262.7812
   383.30         259.7428
   383.44         257.8732
   383.58         257.4532
   383.72         258.6013
   383.86         261.2464
   384.00         265.1322
   384.14         269.8380
   384.28         274.8555
   384.42         279.6858
   384.56         283.9093
   384.70         287.2500
   384.84         289.6138
   384.98         291.0641
   385.12         291.7493
   385.26         291.8238
   385.40         291.4045
   385.54         290.5776
   385.68         289.4152
   385.82         287.9828
   385.96         286.3456
   386.10         284.5837
   386.24         282.7970
   386.38         281.0897
   386.52         279.5432
   386.66         278.1894
   386.80         277.0207
   386.94         276.0213
   387.08         275.1627
   387.22         274.3594
   387.36         273.4411
   387.50         272.1689
   387.64         270.2908
   387.78         267.6450
   387.92         264.2450
   388.06         260.2873
   388.20         256.1052
   388.34         252.1061
   388.48         248.7197
   388.62         246.3268
   388.76         245.2007
   388.90         245.4902
   389.04         247.2071
   389.18         250.2213
   389.32         254.2711
   389.46         258.9910
   389.60         263.9547
   389.74         268.7211
   389.88         272.8863
   390.02         276.1535
   390.16         278.3910
   390.30         279.6364
   390.44         280.0438
   390.58         279.8066
   390.72         279.0885
   390.86         277.9988
   391.00         276.6162
   391.14         275.0023
   391.28         273.1965
   391.42         271.2421
   391.56         269.2155
   391.70         267.2101
   391.84         265.2818
   391.98         263.4062
   392.12         261.5112
   392.26         259.5609
   392.40         257.6057
   392.54         255.7613
   392.68         254.1673
   392.82         252.9576
   392.96         252.2358
   393.10         252.0650
   393.24         252.4730
   393.38         253.4467
   393.52         254.9276
   393.66         256.8220
   393.80         258.9933
   393.94         261.2682
   394.08         263.4655
   394.22         265.4077
   394.36         266.9263
   394.50         267.8842
   394.64         268.2298
   394.78         268.0324
   394.92         267.4335
   395.06         266.5405
   395.20         265.3627
   395.34         263.8175
   395.48         261.7412
   395.62         258.9163
   395.76         255.1572
   395.90         250.4162
   396.04         244.8316
   396.18         238.7073
   396.32         232.4623
   396.46         226.5658
   396.60         221.4849
   396.74         217.6354
   396.88         215.3296
   397.02         214.7363
   397.16         215.8623
   397.30         218.5498
   397.44         222.4862
   397.58         227.2434
   397.72         232.3439
   397.86         237.3244
   398.00         241.7727
   398.14         245.3637
   398.28         247.9277
   398.42         249.4884
   398.56         250.2184
   398.70         250.3358
   398.84         250.0286
   398.98         249.4493
   399.12         248.7250
   399.26         247.9513
   399.40         247.1855
   399.54         246.4437
   399.68         245.7159
   399.82         245.0017
   399.96         244.3258
   400.10         243.7218
   400.24         243.2208
   400.38         242.8485
   400.52         242.6161
   400.66         242.5120
   400.80         242.5093
   400.94         242.5791
   401.08         242.6757
   401.22         242.6978
   401.36         242.4962
   401.50         241.9484
   401.64         241.0100
   401.78         239.7094
   401.92         238.1255
   402.06         236.3688
   402.20         234.5754
   402.34         232.9120
   402.48         231.5540
   402.62         230.6313
   402.76         230.1919
   402.90         230.2149
   403.04         230.6273
   403.18         231.3145
   403.32         232.1414
   403.46         232.9817
   403.60         233.7411
   403.74         234.3662
   403.88         234.8466
   404.02         235.2275
   404.16         235.5969
   404.30         236.0273
   404.44         236.5392
   404.58         237.1052
   404.72         237.6717
   404.86         238.1852
   405.00         238.6064
   405.14         238.9024
   405.28         239.0438
   405.42         239.0177
   405.56         238.8314
   405.70         238.4958
   405.84         238.0096
   405.98         237.3609
   406.12         236.5384
   406.26         235.5428
   406.40         234.3876
   406.54         233.1000
   406.68         231.7329
   406.82         230.3647
   406.96         229.0791
   407.10         227.9580
   407.24         227.0749
   407.38         226.4765
   407.52         226.1750
   407.66         226.1432
   407.80         226.3169
   407.94         226.6122
   408.08         226.9377
   408.22         227.1900
   408.36         227.2483
   408.50         226.9788
   408.64         226.2459
   408.78         224.9156
   408.92         222.8711
   409.06         220.0679
   409.20         216.5870
   409.34         212.6337
   409.48         208.4974
   409.62         204.5104
   409.76         201.0091
   409.90         198.2879
   410.04         196.5697
   410.18         195.9953
   410.32         196.6046
   410.46         198.3208
   410.60         200.9468
   410.74         204.1815
   410.88         207.6602
   411.02         211.0176
   411.16         213.9493
   411.30         216.2535
   411.44         217.8525
   411.58         218.7937
   411.72         219.2212
   411.86         219.3184
   412.00         219.2500
   412.14         219.1396
   412.28         219.0657
   412.42         219.0578
   412.56         219.1037
   412.70         219.1679
   412.84         219.1977
   412.98         219.1137
   413.12         218.8194
   413.26         218.2467
   413.40         217.3999
   413.54         216.3530
   413.68         215.2133
   413.82         214.0909
   413.96         213.0815
   414.10         212.2569
   414.24         211.6597
   414.38         211.3175
   414.52         211.2566
   414.66         211.4879
   414.80         211.9918
   414.94         212.7113
   415.08         213.5504
   415.22         214.3944
   415.36         215.1361
   415.50         215.6844
   415.64         215.9750
   415.78         216.0014
   415.92         215.8233
   416.06         215.5244
   416.20         215.1618
   416.34         214.7613
   416.48         214.3433
   416.62         213.9333
   416.76         213.5552
   416.90         213.2266
   417.04         212.9573
   417.18         212.7423
   417.32         212.5619
   417.46         212.3884
   417.60         212.1903
   417.74         211.9457
   417.88         211.6626
   418.02         211.3716
   418.16         211.1055
   418.30         210.8914
   418.44         210.7465
   418.58         210.6689
   418.72         210.6314
   418.86         210.5930
   419.00         210.5259
   419.14         210.4210
   419.28         210.2742
   419.42         210.0819
   419.56         209.8498
   419.70         209.5935
   419.84         209.3322
   419.98         209.0901
   420.12         208.8951
   420.26         208.7745
   420.40         208.7502
   420.54         208.8279
   420.68         208.9868
   420.82         209.1863
   420.96         209.3797
   421.10         209.5212
   421.24         209.5759
   421.38         209.5288
   421.52         209.3863
   421.66         209.1686
   421.80         208.8947
   421.94         208.5834
   422.08         208.2620
   422.22         207.9566
   422.36         207.6764
   422.50         207.4150
   422.64         207.1631
   422.78         206.9138
   422.92         206.6566
   423.06         206.3772
   423.20         206.0658
   423.34         205.7244
   423.48         205.3709
   423.62         205.0356
   423.76         204.7492
   423.90         204.5309
   424.04         204.3882
   424.18         204.3110
   424.32         204.2762
   424.46         204.2636
   424.60         204.2544
   424.74         204.2253
   424.88         204.1493
   425.02         204.0013
   425.16         203.7637
   425.30         203.4195
   425.44         202.9501
   425.58         202.3465
   425.72         201.6227
   425.86         200.8126
   426.00         199.9539
   426.14         199.0786
   426.28         198.2172
   426.42         197.3982
   426.56         196.6510
   426.70         196.0089
   426.84         195.5011
   426.98         195.1507
   427.12         194.9689
   427.26         194.9443
   427.40         195.0510
   427.54         195.2527
   427.68         195.5056
   427.82         195.7684
   427.96         196.0135
   428.10         196.2353
   428.24         196.4487
   428.38         196.6736
   428.52         196.9218
   428.66         197.1957
   428.80         197.4909
   428.94         197.7943
   429.08         198.0836
   429.22         198.3322
   429.36         198.5130
   429.50         198.6005
   429.64         198.5729
   429.78         198.4144
   429.92         198.1241
   430.06         197.7229
   430.20         197.2427
   430.34         196.7106
   430.48         196.1447
   430.62         195.5557
   430.76         194.9562
   430.90         194.3688
   431.04         193.8212
   431.18         193.3397
   431.32         192.9459
   431.46         192.6499
   431.60         192.4513
   431.74         192.3385
   431.88         192.2816
   432.02         192.2316
   432.16         192.1243
   432.30         191.8757
   432.44         191.3790
   432.58         190.5055
   432.72         189.1098
   432.86         187.0675
   433.00         184.3424
   433.14         181.0291
   433.28         177.3402
   433.42         173.5541
   433.56         169.9602
   433.70         166.8220
   433.84         164.3654
   433.98         162.7645
   434.12         162.1204
   434.26         162.4545
   434.40         163.7105
   434.54         165.7679
   434.68         168.4532
   434.82         171.5473
   434.96         174.8032
   435.10         177.9788
   435.24         180.8709
   435.38         183.3412
   435.52         185.3377
   435.66         186.8769
   435.80         187.9961
   435.94         188.7204
   436.08         189.0696
   436.22         189.0825
   436.36         188.8243
   436.50         188.3794
   436.64         187.8411
   436.78         187.2952
   436.92         186.8076
   437.06         186.4214
   437.20         186.1486
   437.34         185.9530
   437.48         185.7532
   437.62         185.4528
   437.76         184.9786
   437.90         184.3080
   438.04         183.4734
   438.18         182.5543
   438.32         181.6563
   438.46         180.8883
   438.60         180.3487
   438.74         180.1108
   438.88         180.2097
   439.02         180.6335
   439.16         181.3304
   439.30         182.2203
   439.44         183.2053
   439.58         184.1789
   439.72         185.0328
   439.86         185.6651
   440.00         185.9936
   440.14         185.9745
   440.28         185.6055
   440.42         184.9216
   440.56         183.9805
   440.70         182.8426
   440.84         181.5650
   440.98         180.2027
   441.12         178.8076
   441.26         177.4217
   441.40         176.0730
   441.54         174.7777
   441.68         173.5466
   441.82         172.3894
   441.96         171.3180
   442.10         170.3392
   442.24         169.4489
   442.38         168.6387
   442.52         167.9072
   442.66         167.2621
   442.80         166.7201
   442.94         166.3099
   443.08         166.0755
   443.22         166.0615
   443.36         166.2933
   443.50         166.7671
   443.64         167.4481
   443.78         168.2782
   443.92         169.1904
   444.06         170.1265
   444.20         171.0449
   444.34         171.9200
   444.48         172.7363
   444.62         173.4798
   444.76         174.1348
   444.90         174.6890
   445.04         175.1341
   445.18         175.4674
   445.32         175.6953
   445.46         175.8195
   445.60         175.8151
   445.74         175.6199
   445.88         175.1472
   446.02         174.3280
   446.16         173.1571
   446.30         171.7019
   446.44         170.0771
   446.58         168.4184
   446.72         166.8542
   446.86         165.4887
   447.00         164.4017
   447.14         163.6525
   447.28         163.2790
   447.42         163.2952
   447.56         163.6913
   447.70         164.4307
   447.84         165.4454
   447.98         166.6386
   448.12         167.8912
   448.26         169.0827
   448.40         170.1252
   448.54         170.9873
   448.68         171.6887
   448.82         172.2641
   448.96         172.7229
   449.10         173.0444
   449.24         173.2030
   449.38         173.1860
   449.52         173.0074
   449.66         172.7082
   449.80         172.3390
   449.94         171.9470
   450.08         171.5716
   450.22         171.2429
   450.36         170.9825
   450.50         170.8014
   450.64         170.7021
   450.78         170.6775
   450.92         170.7114
   451.06         170.7831
   451.20         170.8689
   451.34         170.9431
   451.48         170.9766
   451.62         170.9387
   451.76         170.8087
   451.90         170.5822
   452.04         170.2686
   452.18         169.8917
   452.32         169.4885
   452.46         169.0996
   452.60         168.7612
   452.74         168.4990
   452.88         168.3265
   453.02         168.2429
   453.16         168.2290
   453.30         168.2497
   453.44         168.2656
   453.58         168.2403
   453.72         168.1373
   453.86         167.9155
   454.00         167.5328
   454.14         166.9693
   454.28         166.2502
   454.42         165.4422
   454.56         164.6277
   454.70         163.8851
   454.84         163.2810
   454.98         162.8618
   455.12         162.6472
   455.26         162.6272
   455.40         162.7615
   455.54         162.9859
   455.68         163.2322
   455.82         163.4511
   455.96         163.6176
   456.10         163.7168
   456.24         163.7326
   456.38         163.6531
   456.52         163.4860
   456.66         163.2675
   456.80         163.0560
   456.94         162.9080
   457.08         162.8604
   457.22         162.9321
   457.36         163.1262
   457.50         163.4279
   457.64         163.8037
   457.78         164.2011
   457.92         164.5573
   458.06         164.8145
   458.20         164.9351
   458.34         164.9116
   458.48         164.7580
   458.62         164.4876
   458.76         164.1005
   458.90         163.5985
   459.04         163.0020
   459.18         162.3436
   459.32         161.6548
   459.46         160.9628
   459.60         160.2987
   459.74         159.6959
   459.88         159.1742
   460.02         158.7317
   460.16         158.3619
   460.30         158.0685
   460.44         157.8602
   460.58         157.7408
   460.72         157.6980
   460.86         157.7140
   461.00         157.7807
   461.14         157.8926
   461.28         158.0290
   461.42         158.1567
   461.56         158.2352
   461.70         158.2156
   461.84         158.0567
   461.98         157.7494
   462.12         157.3202
   462.26         156.8117
   462.40         156.2644
   462.54         155.7122
   462.68         155.1836
   462.82         154.6970
   462.96         154.2534
   463.10         153.8453
   463.24         153.4692
   463.38         153.1262
   463.52         152.8134
   463.66         152.5131
   463.80         152.1984
   463.94         151.8536
   464.08         151.4864
   464.22         151.1272
   464.36         150.8311
   464.50         150.6751
   464.64         150.7239
   464.78         150.9966
   464.92         151.4673
   465.06         152.0882
   465.20         152.8011
   465.34         153.5399
   465.48         154.2407
   465.62         154.8575
   465.76         155.3657
   465.90         155.7512
   466.04         156.0051
   466.18         156.1255
   466.32         156.1276
   466.46         156.0491
   466.60         155.9311
   466.74         155.8035
   466.88         155.6863
   467.02         155.5917
   467.16         155.5231
   467.30         155.4780
   467.44         155.4561
   467.58         155.4636
   467.72         155.5044
   467.86         155.5719
   468.00         155.6538
   468.14         155.7371
   468.28         155.8105
   468.42         155.8656
   468.56         155.8931
   468.70         155.8757
   468.84         155.7924
   468.98         155.6345
   469.12         155.4120
   469.26         155.1468
   469.40         154.8674
   469.54         154.5986
   469.68         154.3465
   469.82         154.0963
   469.96         153.8148
   470.10         153.4548
   470.24         152.9754
   470.38         152.3634
   470.52         151.6352
   470.66         150.8290
   470.80         149.9950
   470.94         149.1891
   471.08         148.4623
   471.22         147.8526
   471.36         147.3835
   471.50         147.0685
   471.64         146.9150
   471.78         146.9232
   471.92         147.0798
   472.06         147.3525
   472.20         147.6915
   472.34         148.0421
   472.48         148.3592
   472.62         148.6184
   472.76         148.8239
   472.90         149.0031
   473.04         149.1820
   473.18         149.3673
   473.32         149.5516
   473.46         149.7172
   473.60         149.8395
   473.74         149.8972
   473.88         149.8789
   474.02         149.7806
   474.16         149.6064
   474.30         149.3678
   474.44         149.0764
   474.58         148.7446
   474.72         148.3869
   474.86         148.0187
   475.00         147.6472
   475.14         147.2745
   475.28         146.9092
   475.42         146.5594
   475.56         146.2243
   475.70         145.9004
   475.84         145.5905
   475.98         145.3032
   476.12         145.0441
   476.26         144.8243
   476.40         144.6558
   476.54         144.5319
   476.68         144.4262
   476.82         144.3108
   476.96         144.1701
   477.10         144.0018
   477.24         143.8123
   477.38         143.6066
   477.52         143.3873
   477.66         143.1636
   477.80         142.9599
   477.94         142.8012
   478.08         142.6955
   478.22         142.6368
   478.36         142.6118
   478.50         142.6053
   478.64         142.5932
   478.78         142.5432
   478.92         142.4282
   479.06         142.2266
   479.20         141.9261
   479.34         141.5344
   479.48         141.0840
   479.62         140.6163
   479.76         140.1652
   479.90         139.7566
   480.04         139.4083
   480.18         139.1302
   480.32         138.9272
   480.46         138.7956
   480.60         138.7215
   480.74         138.6852
   480.88         138.6712
   481.02         138.6690
   481.16         138.6693
   481.30         138.6636
   481.44         138.6507
   481.58         138.6368
   481.72         138.6219
   481.86         138.6015
   482.00         138.5755
   482.14         138.5476
   482.28         138.5203
   482.42         138.4984
   482.56         138.4880
   482.70         138.4894
   482.84         138.5022
   482.98         138.5248
   483.12         138.5489
   483.26         138.5609
   483.40         138.5478
   483.54         138.5055
   483.68         138.4363
   483.82         138.3420
   483.96         138.2165
   484.10         138.0374
   484.24         137.7676
   484.38         137.3597
   484.52         136.7605
   484.66         135.8996
   484.80         134.6832
   484.94         133.0268
   485.08         130.9040
   485.22         128.3678
   485.36         125.5459
   485.50         122.6221
   485.64         119.8041
   485.78         117.3016
   485.92         115.3097
   486.06         113.9852
   486.20         113.4241
   486.34         113.6436
   486.48         114.5736
   486.62         116.0712
   486.76         117.9510
   486.90         120.0098
   487.04         122.0471
   487.18         123.8833
   487.32         125.3824
   487.46         126.4846
   487.60         127.2212
   487.74         127.6816
   487.88         127.9620
   488.02         128.1419
   488.16         128.2802
   488.30         128.4190
   488.44         128.5919
   488.58         128.8197
   488.72         129.1009
   488.86         129.4181
   489.00         129.7478
   489.14         130.0670
   489.28         130.3585
   489.42         130.6101
   489.56         130.8117
   489.70         130.9586
   489.84         131.0481
   489.98         131.0832
   490.12         131.0742
   490.26         131.0198
   490.40         130.9064
   490.54         130.7312
   490.68         130.5020
   490.82         130.2140
   490.96         129.8332
   491.10         129.3134
   491.24         128.6335
   491.38         127.8179
   491.52         126.9317
   491.66         126.0641
   491.80         125.3073
   491.94         124.7407
   492.08         124.4215
   492.22         124.3789
   492.36         124.6102
   492.50         125.0821
   492.64         125.7385
   492.78         126.5047
   492.92         127.2923
   493.06         128.0189
   493.20         128.6183
   493.34         129.0374
   493.48         129.2447
   493.62         129.2500
   493.76         129.1148
   493.90         128.9311
   494.04         128.7787
   494.18         128.7089
   494.32         128.7449
   494.46         128.8770
   494.60         129.0682
   494.74         129.2728
   494.88         129.4507
   495.02         129.5713
   495.16         129.6153
   495.30         129.5693
   495.44         129.4216
   495.58         129.1706
   495.72         128.8320
   495.86         128.4377
   496.00         128.0267
   496.14         127.6319
   496.28         127.2751
   496.42         126.9707
   496.56         126.7286
   496.70         126.5559
   496.84         126.4499
   496.98         126.3848
   497.12         126.3212
   497.26         126.2315
   497.40         126.1099
   497.54         125.9626
   497.68         125.7974
   497.82         125.6246
   497.96         125.4600
   498.10         125.3235
   498.24         125.2304
   498.38         125.1853
   498.52         125.1832
   498.66         125.2090
   498.80         125.2341
   498.94         125.2201
   499.08         125.1274
   499.22         124.9181
   499.36         124.5618
   499.50         124.0437
   499.64         123.3716
   499.78         122.5787
   499.92         121.7120
   500.06         120.8177
   500.20         119.9393
   500.34         119.1143
   500.48         118.3765
   500.62         117.7639
   500.76         117.3123
   500.90         117.0458
   501.04         116.9809
   501.18         117.1224
   501.32         117.4524
   501.46         117.9314
   501.60         118.5096
   501.74         119.1371
   501.88         119.7628
   502.02         120.3352
   502.16         120.8100
   502.30         121.1543
   502.44         121.3501
   502.58         121.3974
   502.72         121.3155
   502.86         121.1390
   503.00         120.9057
   503.14         120.6451
   503.28         120.3698
   503.42         120.0735
   503.56         119.7433
   503.70         119.3688
   503.84         118.9432
   503.98         118.4681
   504.12         117.9570
   504.26         117.4359
   504.40         116.9412
   504.54         116.5150
   504.68         116.1998
   504.82         116.0297
   504.96         116.0196
   505.10         116.1613
   505.24         116.4292
   505.38         116.7892
   505.52         117.2055
   505.66         117.6391
   505.80         118.0511
   505.94         118.4140
   506.08         118.7185
   506.22         118.9671
   506.36         119.1644
   506.50         119.3167
   506.64         119.4289
   506.78         119.5056
   506.92         119.5574
   507.06         119.5968
   507.20         119.6267
   507.34         119.6417
   507.48         119.6375
   507.62         119.6157
   507.76         119.5853
   507.90         119.5565
   508.04         119.5349
   508.18         119.5136
   508.32         119.4755
   508.46         119.4041
   508.60         119.2851
   508.74         119.1110
   508.88         118.8829
   509.02         118.6037
   509.16         118.2762
   509.30         117.9108
   509.44         117.5300
   509.58         117.1594
   509.72         116.8161
   509.86         116.5091
   510.00         116.2484
   510.14         116.0413
   510.28         115.8888
   510.42         115.7911
   510.56         115.7426
   510.70         115.7307
   510.84         115.7396
   510.98         115.7538
   511.12         115.7556
   511.26         115.7275
   511.40         115.6566
   511.54         115.5356
   511.68         115.3616
   511.82         115.1430
   511.96         114.9030
   512.10         114.6679
   512.24         114.4518
   512.38         114.2569
   512.52         114.0850
   512.66         113.9427
   512.80         113.8395
   512.94         113.7854
   513.08         113.7791
   513.22         113.8060
   513.36         113.8531
   513.50         113.9178
   513.64         113.9951
   513.78         114.0727
   513.92         114.1383
   514.06         114.1825
   514.20         114.1981
   514.34         114.1837
   514.48         114.1458
   514.62         114.0860
   514.76         113.9969
   514.90         113.8713
   515.04         113.7092
   515.18         113.5206
   515.32         113.3251
   515.46         113.1445
   515.60         112.9903
   515.74         112.8660
   515.88         112.7798
   516.02         112.7440
   516.16         112.7611
   516.30         112.8176
   516.44         112.8936
   516.58         112.9766
   516.72         113.0587
   516.86         113.1329
   517.00         113.1984
   517.14         113.2575
   517.28         113.3093
   517.42         113.3531
   517.56         113.3870
   517.70         113.4045
   517.84         113.3960
   517.98         113.3464
   518.12         113.2358
   518.26         113.0512
   518.40         112.7958
   518.54         112.4860
   518.68         112.1410
   518.82         111.7776
   518.96         111.4130
   519.10         111.0657
   519.24         110.7516
   519.38         110.4849
   519.52         110.2776
   519.66         110.1329
   519.80         110.0438
   519.94         109.9951
   520.08         109.9673
   520.22         109.9404
   520.36         109.8976
   520.50         109.8298
   520.64         109.7386
   520.78         109.6306
   520.92         109.5076
   521.06         109.3665
   521.20         109.2054
   521.34         109.0242
   521.48         108.8299
   521.62         108.6378
   521.76         108.4599
   521.90         108.3054
   522.04         108.1898
   522.18         108.1210
   522.32         108.0937
   522.46         108.1010
   522.60         108.1349
   522.74         108.1837
   522.88         108.2305
   523.02         108.2569
   523.16         108.2478
   523.30         108.1881
   523.44         108.0647
   523.58         107.8743
   523.72         107.6249
   523.86         107.3293
   524.00         107.0044
   524.14         106.6703
   524.28         106.3430
   524.42         106.0367
   524.56         105.7721
   524.70         105.5686
   524.84         105.4302
   524.98         105.3493
   525.12         105.3181
   525.26         105.3306
   525.40         105.3762
   525.54         105.4341
   525.68         105.4862
   525.82         105.5220
   525.96         105.5330
   526.10         105.5128
   526.24         105.4571
   526.38         105.3654
   526.52         105.2419
   526.66         105.0918
   526.80         104.9203
   526.94         104.7308
   527.08         104.5271
   527.22         104.3128
   527.36         104.0895
   527.50         103.8619
   527.64         103.6423
   527.78         103.4485
   527.92         103.2935
   528.06         103.1790
   528.20         103.0994
   528.34         103.0465
   528.48         103.0062
   528.62         102.9555
   528.76         102.8735
   528.90         102.7549
   529.04         102.6098
   529.18         102.4537
   529.32         102.3037
   529.46         102.1758
   529.60         102.0820
   529.74         102.0308
   529.88         102.0246
   530.02         102.0567
   530.16         102.1186
   530.30         102.1997
   530.44         102.2850
   530.58         102.3562
   530.72         102.3940
   530.86         102.3815
   531.00         102.3058
   531.14         102.1629
   531.28         101.9630
   531.42         101.7289
   531.56         101.4877
   531.70         101.2586
   531.84         101.0508
   531.98         100.8721
   532.12         100.7306
   532.26         100.6363
   532.40         100.5972
   532.54         100.6161
   532.68         100.6909
   532.82         100.8127
   532.96         100.9625
   533.10         101.1130
   533.24         101.2294
   533.38         101.2772
   533.52         101.2334
   533.66         101.0899
   533.80         100.8562
   533.94         100.5575
   534.08         100.2244
   534.22         99.8841
   534.36         99.5558
   534.50         99.2502
   534.64         98.9749
   534.78         98.7329
   534.92         98.5217
   535.06         98.3328
   535.20         98.1533
   535.34         97.9732
   535.48         97.7875
   535.62         97.5918
   535.76         97.3832
   535.90         97.1600
   536.04         96.9289
   536.18         96.7042
   536.32         96.5028
   536.46         96.3469
   536.60         96.2544
   536.74         96.2319
   536.88         96.2775
   537.02         96.3892
   537.16         96.5631
   537.30         96.7846
   537.44         97.0314
   537.58         97.2812
   537.72         97.5130
   537.86         97.7071
   538.00         97.8492
   538.14         97.9273
   538.28         97.9329
   538.42         97.8647
   538.56         97.7272
   538.70         97.5309
   538.84         97.2904
   538.98         97.0234
   539.12         96.7488
   539.26         96.4773
   539.40         96.2115
   539.54         95.9485
   539.68         95.6813
   539.82         95.4032
   539.96         95.1143
   540.10         94.8271
   540.24         94.5604
   540.38         94.3263
   540.52         94.1299
   540.66         93.9733
   540.80         93.8555
   540.94         93.7727
   541.08         93.7206
   541.22         93.6972
   541.36         93.7021
   541.50         93.7294
   541.64         93.7714
   541.78         93.8225
   541.92         93.8725
   542.06         93.9049
   542.20         93.9038
   542.34         93.8639
   542.48         93.7908
   542.62         93.6915
   542.76         93.5724
   542.90         93.4406
   543.04         93.3000
   543.18         93.1533
   543.32         92.9985
   543.46         92.8291
   543.60         92.6412
   543.74         92.4330
   543.88         92.2007
   544.02         91.9362
   544.16         91.6305
   544.30         91.2849
   544.44         90.9097
   544.58         90.5178
   544.72         90.1271
   544.86         89.7629
   545.00         89.4546
   545.14         89.2247
   545.28         89.0836
   545.42         89.0332
   545.56         89.0688
   545.70         89.1783
   545.84         89.3450
   545.98         89.5464
   546.12         89.7607
   546.26         89.9709
   546.40         90.1590
   546.54         90.3088
   546.68         90.4094
   546.82         90.4559
   546.96         90.4466
   547.10         90.3822
   547.24         90.2669
   547.38         90.1075
   547.52         89.9123
   547.66         89.6908
   547.80         89.4537
   547.94         89.2151
   548.08         88.9938
   548.22         88.8067
   548.36         88.6607
   548.50         88.5536
   548.64         88.4826
   548.78         88.4496
   548.92         88.4568
   549.06         88.5032
   549.20         88.5845
   549.34         88.6895
   549.48         88.8001
   549.62         88.8940
   549.76         88.9489
   549.90         88.9498
   550.04         88.8947
   550.18         88.7951
   550.32         88.6716
   550.46         88.5470
   550.60         88.4375
   550.74         88.3493
   550.88         88.2787
   551.02         88.2176
   551.16         88.1592
   551.30         88.0974
   551.44         88.0209
   551.58         87.9118
   551.72         87.7554
   551.86         87.5462
   552.00         87.2820
   552.14         86.9615
   552.28         86.5899
   552.42         86.1875
   552.56         85.7866
   552.70         85.4208
   552.84         85.1141
   552.98         84.8770
   553.12         84.7081
   553.26         84.6029
   553.40         84.5581
   553.54         84.5720
   553.68         84.6443
   553.82         84.7702
   553.96         84.9388
   554.10         85.1351
   554.24         85.3398
   554.38         85.5398
   554.52         85.7269
   554.66         85.8914
   554.80         86.0249
   554.94         86.1289
   555.08         86.2131
   555.22         86.2834
   555.36         86.3357
   555.50         86.3616
   555.64         86.3545
   555.78         86.3116
   555.92         86.2345
   556.06         86.1251
   556.20         85.9881
   556.34         85.8323
   556.48         85.6631
   556.62         85.4860
   556.76         85.3089
   556.90         85.1427
   557.04         85.0012
   557.18         84.8916
   557.32         84.8127
   557.46         84.7613
   557.60         84.7352
   557.74         84.7311
   557.88         84.7423
   558.02         84.7583
   558.16         84.7739
   558.30         84.7882
   558.44         84.7964
   558.58         84.7865
   558.72         84.7471
   558.86         84.6758
   559.00         84.5751
   559.14         84.4484
   559.28         84.3029
   559.42         84.1475
   559.56         83.9915
   559.70         83.8436
   559.84         83.7079
   559.98         83.5891
   560.12         83.4923
   560.26         83.4172
   560.40         83.3616
   560.54         83.3224
   560.68         83.2968
   560.82         83.2833
   560.96         83.2781
   561.10         83.2705
   561.24         83.2486
   561.38         83.2077
   561.52         83.1460
   561.66         83.0601
   561.80         82.9488
   561.94         82.8132
   562.08         82.6547
   562.22         82.4822
   562.36         82.3125
   562.50         82.1620
   562.64         82.0425
   562.78         81.9586
   562.92         81.9116
   563.06         81.9004
   563.20         81.9155
   563.34         81.9405
   563.48         81.9569
   563.62         81.9501
   563.76         81.9117
   563.90         81.8370
   564.04         81.7266
   564.18         81.5865
   564.32         81.4238
   564.46         81.2476
   564.60         81.0644
   564.74         80.8750
   564.88         80.6805
   565.02         80.4825
   565.16         80.2749
   565.30         80.0424
   565.44         79.7733
   565.58         79.4650
   565.72         79.1232
   565.86         78.7592
   566.00         78.3894
   566.14         78.0317
   566.28         77.6989
   566.42         77.3926
   566.56         77.1022
   566.70         76.8174
   566.84         76.5306
   566.98         76.2402
   567.12         75.9580
   567.26         75.6978
   567.40         75.4711
   567.54         75.2942
   567.68         75.1841
   567.82         75.1510
   567.96         75.1995
   568.10         75.3305
   568.24         75.5341
   568.38         75.7888
   568.52         76.0625
   568.66         76.3217
   568.80         76.5400
   568.94         76.6957
   569.08         76.7735
   569.22         76.7698
   569.36         76.6942
   569.50         76.5648
   569.64         76.4062
   569.78         76.2385
   569.92         76.0719
   570.06         75.9172
   570.20         75.7904
   570.34         75.7070
   570.48         75.6740
   570.62         75.6888
   570.76         75.7444
   570.90         75.8311
   571.04         75.9389
   571.18         76.0585
   571.32         76.1793
   571.46         76.2840
   571.60         76.3486
   571.74         76.3520
   571.88         76.2831
   572.02         76.1459
   572.16         75.9593
   572.30         75.7492
   572.44         75.5334
   572.58         75.3190
   572.72         75.1057
   572.86         74.8878
   573.00         74.6658
   573.14         74.4483
   573.28         74.2423
   573.42         74.0502
   573.56         73.8713
   573.70         73.7114
   573.84         73.5831
   573.98         73.4963
   574.12         73.4583
   574.26         73.4769
   574.40         73.5581
   574.54         73.7001
   574.68         73.8912
   574.82         74.1107
   574.96         74.3302
   575.10         74.5194
   575.24         74.6577
   575.38         74.7386
   575.52         74.7670
   575.66         74.7501
   575.80         74.6884
   575.94         74.5782
   576.08         74.4198
   576.22         74.2222
   576.36         73.9988
   576.50         73.7589
   576.64         73.5011
   576.78         73.2161
   576.92         72.8925
   577.06         72.5227
   577.20         72.1104
   577.34         71.6734
   577.48         71.2388
   577.62         70.8360
   577.76         70.4925
   577.90         70.2283
   578.04         70.0573
   578.18         69.9876
   578.32         70.0168
   578.46         70.1324
   578.60         70.3133
   578.74         70.5293
   578.88         70.7466
   579.02         70.9338
   579.16         71.0672
   579.30         71.1326
   579.44         71.1287
   579.58         71.0702
   579.72         70.9798
   579.86         70.8784
   580.00         70.7827
   580.14         70.7044
   580.28         70.6520
   580.42         70.6325
   580.56         70.6520
   580.70         70.7128
   580.84         70.8059
   580.98         70.9141
   581.12         71.0233
   581.26         71.1260
   581.40         71.2197
   581.54         71.3025
   581.68         71.3725
   581.82         71.4267
   581.96         71.4583
   582.10         71.4577
   582.24         71.4180
   582.38         71.3402
   582.52         71.2386
   582.66         71.1331
   582.80         71.0378
   582.94         70.9586
   583.08         70.8932
   583.22         70.8281
   583.36         70.7439
   583.50         70.6307
   583.64         70.4932
   583.78         70.3387
   583.92         70.1716
   584.06         69.9921
   584.20         69.7983
   584.34         69.5911
   584.48         69.3785
   584.62         69.1769
   584.76         69.0102
   584.90         68.9087
   585.04         68.8980
   585.18         68.9857
   585.32         69.1585
   585.46         69.3944
   585.60         69.6737
   585.74         69.9771
   585.88         70.2805
   586.02         70.5547
   586.16         70.7568
   586.30         70.8221
   586.44         70.6902
   586.58         70.3460
   586.72         69.8203
   586.86         69.1711
   587.00         68.4697
   587.14         67.7907
   587.28         67.2006
   587.42         66.7444
   587.56         66.4321
   587.70         66.2290
   587.84         66.0669
   587.98         65.8786
   588.12         65.6196
   588.26         65.2530
   588.40         64.7350
   588.54         64.0337
   588.68         63.1593
   588.82         62.1718
   588.96         61.1709
   589.10         60.2832
   589.24         59.6292
   589.38         59.2826
   589.52         59.2665
   589.66         59.5658
   589.80         60.1309
   589.94         60.8838
   590.08         61.7328
   590.22         62.5858
   590.36         63.3666
   590.50         64.0307
   590.64         64.5658
   590.78         64.9715
   590.92         65.2459
   591.06         65.3996
   591.20         65.4668
   591.34         65.4922
   591.48         65.5089
   591.62         65.5282
   591.76         65.5507
   591.90         65.5709
   592.04         65.5795
   592.18         65.5693
   592.32         65.5355
   592.46         65.4761
   592.60         65.3950
   592.74         65.3002
   592.88         65.1949
   593.02         65.0762
   593.16         64.9385
   593.30         64.7754
   593.44         64.5864
   593.58         64.3760
   593.72         64.1454
   593.86         63.8948
   594.00         63.6286
   594.14         63.3563
   594.28         63.0889
   594.42         62.8396
   594.56         62.6244
   594.70         62.4619
   594.84         62.3717
   594.98         62.3703
   595.12         62.4656
   595.26         62.6563
   595.40         62.9318
   595.54         63.2709
   595.68         63.6459
   595.82         64.0292
   595.96         64.3930
   596.10         64.7126
   596.24         64.9687
   596.38         65.1469
   596.52         65.2387
   596.66         65.2440
   596.80         65.1716
   596.94         65.0355
   597.08         64.8534
   597.22         64.6447
   597.36         64.4291
   597.50         64.2260
   597.64         64.0535
   597.78         63.9217
   597.92         63.8291
   598.06         63.7664
   598.20         63.7231
   598.34         63.6924
   598.48         63.6697
   598.62         63.6481
   598.76         63.6185
   598.90         63.5702
   599.04         63.4912
   599.18         63.3756
   599.32         63.2296
   599.46         63.0649
   599.60         62.8913
   599.74         62.7140
   599.88         62.5363
   600.02         62.3626
   600.16         62.1969
   600.30         62.0439
   600.44         61.9088
   600.58         61.7973
   600.72         61.7144
   600.86         61.6620
   601.00         61.6369
   601.14         61.6312
   601.28         61.6342
   601.42         61.6396
   601.56         61.6460
   601.70         61.6536
   601.84         61.6609
   601.98         61.6603
   602.12         61.6392
   602.26         61.5869
   602.40         61.4992
   602.54         61.3796
   602.68         61.2383
   602.82         61.0839
   602.96         60.9178
   603.10         60.7401
   603.24         60.5518
   603.38         60.3540
   603.52         60.1529
   603.66         59.9601
   603.80         59.7936
   603.94         59.6745
   604.08         59.6187
   604.22         59.6309
   604.36         59.7094
   604.50         59.8508
   604.64         60.0487
   604.78         60.2942
   604.92         60.5743
   605.06         60.8712
   605.20         61.1624
   605.34         61.4256
   605.48         61.6439
   605.62         61.8105
   605.76         61.9332
   605.90         62.0261
   606.04         62.1010
   606.18         62.1681
   606.32         62.2355
   606.46         62.3079
   606.60         62.3802
   606.74         62.4409
   606.88         62.4816
   607.02         62.4976
   607.16         62.4834
   607.30         62.4341
   607.44         62.3472
   607.58         62.2232
   607.72         62.0670
   607.86         61.8886
   608.00         61.7004
   608.14         61.5123
   608.28         61.3308
   608.42         61.1618
   608.56         61.0081
   608.70         60.8660
   608.84         60.7275
   608.98         60.5899
   609.12         60.4568
   609.26         60.3330
   609.40         60.2233
   609.54         60.1315
   609.68         60.0606
   609.82         60.0137
   609.96         59.9944
   610.10         60.0046
   610.24         60.0437
   610.38         60.1091
   610.52         60.1957
   610.66         60.2933
   610.80         60.3908
   610.94         60.4810
   611.08         60.5619
   611.22         60.6339
   611.36         60.6981
   611.50         60.7558
   611.64         60.8110
   611.78         60.8671
   611.92         60.9239
   612.06         60.9775
   612.20         61.0205
   612.34         61.0443
   612.48         61.0395
   612.62         60.9997
   612.76         60.9237
   612.90         60.8149
   613.04         60.6801
   613.18         60.5274
   613.32         60.3668
   613.46         60.2100
   613.60         60.0711
   613.74         59.9627
   613.88         59.8899
   614.02         59.8497
   614.16         59.8362
   614.30         59.8439
   614.44         59.8645
   614.58         59.8841
   614.72         59.8871
   614.86         59.8642
   615.00         59.8120
   615.14         59.7300
   615.28         59.6211
   615.42         59.4937
   615.56         59.3564
   615.70         59.2123
   615.84         59.0612
   615.98         58.9014
   616.12         58.7326
   616.26         58.5557
   616.40         58.3742
   616.54         58.1943
   616.68         58.0238
   616.82         57.8704
   616.96         57.7399
   617.10         57.6375
   617.24         57.5680
   617.38         57.5354
   617.52         57.5405
   617.66         57.5786
   617.80         57.6429
   617.94         57.7250
   618.08         57.8126
   618.22         57.8869
   618.36         57.9279
   618.50         57.9231
   618.64         57.8719
   618.78         57.7815
   618.92         57.6624
   619.06         57.5258
   619.20         57.3807
   619.34         57.2348
   619.48         57.1009
   619.62         56.9935
   619.76         56.9228
   619.90         56.8919
   620.04         56.8992
   620.18         56.9424
   620.32         57.0168
   620.46         57.1136
   620.60         57.2214
   620.74         57.3294
   620.88         57.4303
   621.02         57.5206
   621.16         57.6016
   621.30         57.6773
   621.44         57.7513
   621.58         57.8250
   621.72         57.8971
   621.86         57.9656
   622.00         58.0319
   622.14         58.0965
   622.28         58.1520
   622.42         58.1868
   622.56         58.1917
   622.70         58.1622
   622.84         58.0982
   622.98         58.0019
   623.12         57.8776
   623.26         57.7330
   623.40         57.5758
   623.54         57.4133
   623.68         57.2558
   623.82         57.1157
   623.96         57.0025
   624.10         56.9193
   624.24         56.8660
   624.38         56.8427
   624.52         56.8500
   624.66         56.8873
   624.80         56.9510
   624.94         57.0334
   625.08         57.1253
   625.22         57.2158
   625.36         57.2962
   625.50         57.3594
   625.64         57.3977
   625.78         57.4006
   625.92         57.3558
   626.06         57.2554
   626.20         57.1012
   626.34         56.8998
   626.48         56.6544
   626.62         56.3619
   626.76         56.0176
   626.90         55.6195
   627.04         55.1671
   627.18         54.6591
   627.32         54.0999
   627.46         53.5086
   627.60         52.9189
   627.74         52.3718
   627.88         51.9081
   628.02         51.5630
   628.16         51.3602
   628.30         51.3102
   628.44         51.4085
   628.58         51.6384
   628.72         51.9764
   628.86         52.3916
   629.00         52.8410
   629.14         53.2784
   629.28         53.6634
   629.42         53.9660
   629.56         54.1713
   629.70         54.2815
   629.84         54.3121
   629.98         54.2900
   630.12         54.2454
   630.26         54.1994
   630.40         54.1614
   630.54         54.1372
   630.68         54.1322
   630.82         54.1491
   630.96         54.1844
   631.10         54.2301
   631.24         54.2793
   631.38         54.3294
   631.52         54.3803
   631.66         54.4340
   631.80         54.4970
   631.94         54.5754
   632.08         54.6710
   632.22         54.7863
   632.36         54.9217
   632.50         55.0694
   632.64         55.2149
   632.78         55.3445
   632.92         55.4462
   633.06         55.5102
   633.20         55.5281
   633.34         55.4918
   633.48         55.3968
   633.62         55.2489
   633.76         55.0650
   633.90         54.8672
   634.04         54.6760
   634.18         54.5072
   634.32         54.3702
   634.46         54.2670
   634.60         54.1933
   634.74         54.1432
   634.88         54.1114
   635.02         54.0898
   635.16         54.0679
   635.30         54.0406
   635.44         54.0075
   635.58         53.9681
   635.72         53.9218
   635.86         53.8678
   636.00         53.8056
   636.14         53.7374
   636.28         53.6679
   636.42         53.5980
   636.56         53.5225
   636.70         53.4338
   636.84         53.3280
   636.98         53.2073
   637.12         53.0780
   637.26         52.9471
   637.40         52.8216
   637.54         52.7091
   637.68         52.6179
   637.82         52.5586
   637.96         52.5412
   638.10         52.5728
   638.24         52.6538
   638.38         52.7777
   638.52         52.9338
   638.66         53.1103
   638.80         53.2939
   638.94         53.4686
   639.08         53.6178
   639.22         53.7285
   639.36         53.7947
   639.50         53.8164
   639.64         53.7981
   639.78         53.7474
   639.92         53.6735
   640.06         53.5867
   640.20         53.4993
   640.34         53.4262
   640.48         53.3794
   640.62         53.3649
   640.76         53.3816
   640.90         53.4213
   641.04         53.4726
   641.18         53.5243
   641.32         53.5675
   641.46         53.5962
   641.60         53.6078
   641.74         53.6010
   641.88         53.5758
   642.02         53.5327
   642.16         53.4726
   642.30         53.3992
   642.44         53.3224
   642.58         53.2524
   642.72         53.1954
   642.86         53.1550
   643.00         53.1299
   643.14         53.1124
   643.28         53.0933
   643.42         53.0650
   643.56         53.0210
   643.70         52.9540
   643.84         52.8579
   643.98         52.7311
   644.12         52.5748
   644.26         52.3899
   644.40         52.1799
   644.54         51.9528
   644.68         51.7193
   644.82         51.4913
   644.96         51.2833
   645.10         51.1090
   645.24         50.9754
   645.38         50.8845
   645.52         50.8386
   645.66         50.8382
   645.80         50.8800
   645.94         50.9579
   646.08         51.0599
   646.22         51.1696
   646.36         51.2717
   646.50         51.3560
   646.64         51.4150
   646.78         51.4398
   646.92         51.4226
   647.06         51.3622
   647.20         51.2622
   647.34         51.1288
   647.48         50.9719
   647.62         50.8066
   647.76         50.6499
   647.90         50.5193
   648.04         50.4308
   648.18         50.3941
   648.32         50.4114
   648.46         50.4805
   648.60         50.5962
   648.74         50.7510
   648.88         50.9371
   649.02         51.1452
   649.16         51.3616
   649.30         51.5697
   649.44         51.7549
   649.58         51.9085
   649.72         52.0286
   649.86         52.1181
   650.00         52.1847
   650.14         52.2385
   650.28         52.2888
   650.42         52.3427
   650.56         52.4032
   650.70         52.4682
   650.84         52.5316
   650.98         52.5886
   651.12         52.6352
   651.26         52.6681
   651.40         52.6866
   651.54         52.6931
   651.68         52.6910
   651.82         52.6825
   651.96         52.6665
   652.10         52.6414
   652.24         52.6080
   652.38         52.5704
   652.52         52.5337
   652.66         52.5000
   652.80         52.4688
   652.94         52.4406
   653.08         52.4162
   653.22         52.3939
   653.36         52.3715
   653.50         52.3498
   653.64         52.3321
   653.78         52.3210
   653.92         52.3174
   654.06         52.3163
   654.20         52.3059
   654.34         52.2707
   654.48         52.1928
   654.62         52.0550
   654.76         51.8405
   654.90         51.5316
   655.04         51.1137
   655.18         50.5858
   655.32         49.9695
   655.46         49.3075
   655.60         48.6527
   655.74         48.0591
   655.88         47.5743
   656.02         47.2361
   656.16         47.0673
   656.30         47.0695
   656.44         47.2211
   656.58         47.4842
   656.72         47.8149
   656.86         48.1717
   657.00         48.5159
   657.14         48.8120
   657.28         49.0332
   657.42         49.1664
   657.56         49.2191
   657.70         49.2197
   657.84         49.2055
   657.98         49.2085
   658.12         49.2442
   658.26         49.3133
   658.40         49.4092
   658.54         49.5203
   658.68         49.6323
   658.82         49.7315
   658.96         49.8068
   659.10         49.8543
   659.24         49.8779
   659.38         49.8837
   659.52         49.8750
   659.66         49.8528
   659.80         49.8159
   659.94         49.7616
   660.08         49.6862
   660.22         49.5863
   660.36         49.4594
   660.50         49.3057
   660.64         49.1305
   660.78         48.9413
   660.92         48.7469
   661.06         48.5576
   661.20         48.3824
   661.34         48.2300
   661.48         48.1102
   661.62         48.0320
   661.76         47.9975
   661.90         48.0010
   662.04         48.0338
   662.18         48.0880
   662.32         48.1531
   662.46         48.2164
   662.60         48.2685
   662.74         48.3028
   662.88         48.3133
   663.02         48.2968
   663.16         48.2549
   663.30         48.1949
   663.44         48.1266
   663.58         48.0597
   663.72         48.0023
   663.86         47.9592
   664.00         47.9323
   664.14         47.9208
   664.28         47.9223
   664.42         47.9331
   664.56         47.9478
   664.70         47.9609
   664.84         47.9647
   664.98         47.9496
   665.12         47.9090
   665.26         47.8387
   665.40         47.7374
   665.54         47.6093
   665.68         47.4633
   665.82         47.3092
   665.96         47.1544
   666.10         46.9991
   666.24         46.8346
   666.38         46.6431
   666.52         46.4039
   666.66         46.1057
   666.80         45.7535
   666.94         45.3691
   667.08         44.9828
   667.22         44.6254
   667.36         44.3272
   667.50         44.1140
   667.64         44.0033
   667.78         44.0039
   667.92         44.1153
   668.06         44.3283
   668.20         44.6252
   668.34         44.9790
   668.48         45.3576
   668.62         45.7286
   668.76         46.0598
   668.90         46.3247
   669.04         46.5095
   669.18         46.6200
   669.32         46.6772
   669.46         46.7045
   669.60         46.7186
   669.74         46.7252
   669.88         46.7227
   670.02         46.7077
   670.16         46.6773
   670.30         46.6313
   670.44         46.5731
   670.58         46.5073
   670.72         46.4387
   670.86         46.3716
   671.00         46.3083
   671.14         46.2500
   671.28         46.1975
   671.42         46.1512
   671.56         46.1123
   671.70         46.0836
   671.84         46.0680
   671.98         46.0670
   672.12         46.0786
   672.26         46.0993
   672.40         46.1234
   672.54         46.1442
   672.68         46.1571
   672.82         46.1592
   672.96         46.1475
   673.10         46.1186
   673.24         46.0703
   673.38         46.0028
   673.52         45.9196
   673.66         45.8255
   673.80         45.7264
   673.94         45.6288
   674.08         45.5395
   674.22         45.4627
   674.36         45.3992
   674.50         45.3481
   674.64         45.3059
   674.78         45.2694
   674.92         45.2377
   675.06         45.2109
   675.20         45.1915
   675.34         45.1841
   675.48         45.1910
   675.62         45.2132
   675.76         45.2512
   675.90         45.3053
   676.04         45.3730
   676.18         45.4491
   676.32         45.5250
   676.46         45.5887
   676.60         45.6278
   676.74         45.6323
   676.88         45.5969
   677.02         45.5237
   677.16         45.4208
   677.30         45.2993
   677.44         45.1703
   677.58         45.0425
   677.72         44.9224
   677.86         44.8165
   678.00         44.7298
   678.14         44.6629
   678.28         44.6138
   678.42         44.5795
   678.56         44.5591
   678.70         44.5529
   678.84         44.5582
   678.98         44.5686
   679.12         44.5782
   679.26         44.5843
   679.40         44.5883
   679.54         44.5953
   679.68         44.6114
   679.82         44.6401
   679.96         44.6803
   680.10         44.7279
   680.24         44.7762
   680.38         44.8192
   680.52         44.8533
   680.66         44.8742
   680.80         44.8757
   680.94         44.8531
   681.08         44.8034
   681.22         44.7237
   681.36         44.6096
   681.50         44.4591
   681.64         44.2798
   681.78         44.0866
   681.92         43.8973
   682.06         43.7295
   682.20         43.5958
   682.34         43.4996
   682.48         43.4376
   682.62         43.4036
   682.76         43.3907
   682.90         43.3921
   683.04         43.4023
   683.18         43.4176
   683.32         43.4346
   683.46         43.4496
   683.60         43.4590
   683.74         43.4626
   683.88         43.4649
   684.02         43.4726
   684.16         43.4922
   684.30         43.5281
   684.44         43.5811
   684.58         43.6493
   684.72         43.7288
   684.86         43.8137
   685.00         43.8986
   685.14         43.9768
   685.28         44.0366
   685.42         44.0590
   685.56         44.0112
   685.70         43.8477
   685.84         43.5239
   685.98         43.0089
   686.12         42.2924
   686.26         41.3901
   686.40         40.3438
   686.54         39.2134
   686.68         38.0716
   686.82         36.9988
   686.96         36.0777
   687.10         35.3808
   687.24         34.9553
   687.38         34.8173
   687.52         34.9522
   687.66         35.3163
   687.80         35.8426
   687.94         36.4532
   688.08         37.0674
   688.22         37.6114
   688.36         38.0365
   688.50         38.3254
   688.64         38.4862
   688.78         38.5409
   688.92         38.5164
   689.06         38.4420
   689.20         38.3468
   689.34         38.2569
   689.48         38.1921
   689.62         38.1635
   689.76         38.1728
   689.90         38.2158
   690.04         38.2865
   690.18         38.3795
   690.32         38.4908
   690.46         38.6183
   690.60         38.7611
   690.74         38.9177
   690.88         39.0896
   691.02         39.2795
   691.16         39.4879
   691.30         39.7133
   691.44         39.9525
   691.58         40.1998
   691.72         40.4472
   691.86         40.6844
   692.00         40.9012
   692.14         41.0893
   692.28         41.2409
   692.42         41.3516
   692.56         41.4196
   692.70         41.4465
   692.84         41.4383
   692.98         41.4059
   693.12         41.3615
   693.26         41.3150
   693.40         41.2739
   693.54         41.2429
   693.68         41.2223
   693.82         41.2084
   693.96         41.1970
   694.10         41.1828
   694.24         41.1589
   694.38         41.1205
   694.52         41.0681
   694.66         41.0072
   694.80         40.9437
   694.94         40.8841
   695.08         40.8382
   695.22         40.8155
   695.36         40.8216
   695.50         40.8569
   695.64         40.9199
   695.78         41.0081
   695.92         41.1171
   696.06         41.2403
   696.20         41.3715
   696.34         41.5045
   696.48         41.6327
   696.62         41.7489
   696.76         41.8467
   696.90         41.9227
   697.04         41.9787
   697.18         42.0203
   697.32         42.0523
   697.46         42.0749
   697.60         42.0859
   697.74         42.0818
   697.88         42.0580
   698.02         42.0110
   698.16         41.9407
   698.30         41.8508
   698.44         41.7454
   698.58         41.6255
   698.72         41.4917
   698.86         41.3472
   699.00         41.1954
   699.14         41.0391
   699.28         40.8820
   699.42         40.7320
   699.56         40.6000
   699.70         40.4939
   699.84         40.4171
   699.98         40.3679
   700.12         40.3420
   700.26         40.3350
   700.40         40.3430
   700.54         40.3617
   700.68         40.3844
   700.82         40.4027
   700.96         40.4082
   701.10         40.3916
   701.24         40.3444
   701.38         40.2631
   701.52         40.1511
   701.66         40.0162
   701.80         39.8696
   701.94         39.7269
   702.08         39.6053
   702.22         39.5161
   702.36         39.4623
   702.50         39.4425
   702.64         39.4507
   702.78         39.4758
   702.92         39.5071
   703.06         39.5375
   703.20         39.5615
   703.34         39.5738
   703.48         39.5696
   703.62         39.5464
   703.76         39.5052
   703.90         39.4517
   704.04         39.3946
   704.18         39.3436
   704.32         39.3060
   704.46         39.2845
   704.60         39.2784
   704.74         39.2820
   704.88         39.2823
   705.02         39.2604
   705.16         39.1958
   705.30         39.0740
   705.44         38.8937
   705.58         38.6656
   705.72         38.4072
   705.86         38.1403
   706.00         37.8886
   706.14         37.6772
   706.28         37.5292
   706.42         37.4608
   706.56         37.4773
   706.70         37.5740
   706.84         37.7401
   706.98         37.9587
   707.12         38.2059
   707.26         38.4555
   707.40         38.6834
   707.54         38.8694
   707.68         39.0015
   707.82         39.0819
   707.96         39.1250
   708.10         39.1476
   708.24         39.1620
   708.38         39.1773
   708.52         39.1999
   708.66         39.2309
   708.80         39.2655
   708.94         39.2934
   709.08         39.3049
   709.22         39.2978
   709.36         39.2781
   709.50         39.2531
   709.64         39.2262
   709.78         39.1976
   709.92         39.1691
   710.06         39.1456
   710.20         39.1326
   710.34         39.1351
   710.48         39.1572
   710.62         39.1981
   710.76         39.2509
   710.90         39.3070
   711.04         39.3589
   711.18         39.4014
   711.32         39.4321
   711.46         39.4507
   711.60         39.4597
   711.74         39.4637
   711.88         39.4645
   712.02         39.4599
   712.16         39.4439
   712.30         39.4119
   712.44         39.3649
   712.58         39.3086
   712.72         39.2489
   712.86         39.1879
   713.00         39.1272
   713.14         39.0701
   713.28         39.0203
   713.42         38.9802
   713.56         38.9532
   713.70         38.9404
   713.84         38.9395
   713.98         38.9450
   714.12         38.9500
   714.26         38.9488
   714.40         38.9397
   714.54         38.9259
   714.68         38.9124
   714.82         38.8983
   714.96         38.8824
   715.10         38.8653
   715.24         38.8445
   715.38         38.8152
   715.52         38.7727
   715.66         38.7160
   715.80         38.6457
   715.94         38.5587
   716.08         38.4500
   716.22         38.3185
   716.36         38.1696
   716.50         38.0143
   716.64         37.8670
   716.78         37.7397
   716.92         37.6376
   717.06         37.5594
   717.20         37.4962
   717.34         37.4286
   717.48         37.3367
   717.62         37.2139
   717.76         37.0622
   717.90         36.8838
   718.04         36.6816
   718.18         36.4638
   718.32         36.2481
   718.46         36.0562
   718.60         35.9054
   718.74         35.8044
   718.88         35.7557
   719.02         35.7603
   719.16         35.8126
   719.30         35.8974
   719.44         35.9947
   719.58         36.0860
   719.72         36.1587
   719.86         36.2084
   720.00         36.2406
   720.14         36.2720
   720.28         36.3213
   720.42         36.3990
   720.56         36.5101
   720.70         36.6570
   720.84         36.8409
   720.98         37.0602
   721.12         37.3029
   721.26         37.5486
   721.40         37.7749
   721.54         37.9650
   721.68         38.1084
   721.82         38.1959
   721.96         38.2219
   722.10         38.1865
   722.24         38.0924
   722.38         37.9486
   722.52         37.7721
   722.66         37.5827
   722.80         37.3949
   722.94         37.2166
   723.08         37.0526
   723.22         36.9068
   723.36         36.7798
   723.50         36.6724
   723.64         36.5872
   723.78         36.5197
   723.92         36.4574
   724.06         36.3870
   724.20         36.3001
   724.34         36.1951
   724.48         36.0758
   724.62         35.9457
   724.76         35.8057
   724.90         35.6590
   725.04         35.5153
   725.18         35.3836
   725.32         35.2652
   725.46         35.1590
   725.60         35.0699
   725.74         35.0088
   725.88         34.9837
   726.02         34.9967
   726.16         35.0443
   726.30         35.1179
   726.44         35.1997
   726.58         35.2701
   726.72         35.3167
   726.86         35.3307
   727.00         35.3061
   727.14         35.2411
   727.28         35.1373
   727.42         35.0043
   727.56         34.8592
   727.70         34.7196
   727.84         34.5992
   727.98         34.5100
   728.12         34.4623
   728.26         34.4587
   728.40         34.4915
   728.54         34.5486
   728.68         34.6198
   728.82         34.6979
   728.96         34.7752
   729.10         34.8420
   729.24         34.8929
   729.38         34.9284
   729.52         34.9526
   729.66         34.9723
   729.80         34.9930
   729.94         35.0165
   730.08         35.0407
   730.22         35.0607
   730.36         35.0693
   730.50         35.0624
   730.64         35.0411
   730.78         35.0087
   730.92         34.9721
   731.06         34.9420
   731.20         34.9280
   731.34         34.9349
   731.48         34.9630
   731.62         35.0074
   731.76         35.0618
   731.90         35.1217
   732.04         35.1830
   732.18         35.2374
   732.32         35.2763
   732.46         35.2946
   732.60         35.2907
   732.74         35.2666
   732.88         35.2254
   733.02         35.1705
   733.16         35.1077
   733.30         35.0414
   733.44         34.9722
   733.58         34.8982
   733.72         34.8126
   733.86         34.7080
   734.00         34.5843
   734.14         34.4498
   734.28         34.3167
   734.42         34.1990
   734.56         34.1095
   734.70         34.0574
   734.84         34.0485
   734.98         34.0864
   735.12         34.1680
   735.26         34.2823
   735.40         34.4134
   735.54         34.5427
   735.68         34.6533
   735.82         34.7338
   735.96         34.7760
   736.10         34.7761
   736.24         34.7363
   736.38         34.6651
   736.52         34.5802
   736.66         34.5012
   736.80         34.4397
   736.94         34.3990
   737.08         34.3766
   737.22         34.3684
   737.36         34.3691
   737.50         34.3733
   737.64         34.3760
   737.78         34.3738
   737.92         34.3656
   738.06         34.3518
   738.20         34.3324
   738.34         34.3072
   738.48         34.2771
   738.62         34.2429
   738.76         34.2085
   738.90         34.1837
   739.04         34.1824
   739.18         34.2184
   739.32         34.2989
   739.46         34.4241
   739.60         34.5886
   739.74         34.7794
   739.88         34.9787
   740.02         35.1659
   740.16         35.3216
   740.30         35.4296
   740.44         35.4802
   740.58         35.4727
   740.72         35.4137
   740.86         35.3158
   741.00         35.1973
   741.14         35.0779
   741.28         34.9749
   741.42         34.8991
   741.56         34.8516
   741.70         34.8254
   741.84         34.8073
   741.98         34.7836
   742.12         34.7457
   742.26         34.6911
   742.40         34.6245
   742.54         34.5572
   742.68         34.5026
   742.82         34.4723
   742.96         34.4723
   743.10         34.5026
   743.24         34.5572
   743.38         34.6245
   743.52         34.6911
   743.66         34.7457
   743.80         34.7836
   743.94         34.8073
   744.08         34.8254
   744.22         34.8516
