# File HD209900
# Wavelength [nm]    Normalized Amplitude
   349.70         38.4047
   349.84         38.4451
   349.98         38.5322
   350.12         38.6696
   350.26         38.8514
   350.40         39.0635
   350.54         39.2876
   350.68         39.5023
   350.82         39.6851
   350.96         39.8110
   351.10         39.8564
   351.24         39.8110
   351.38         39.6851
   351.52         39.5023
   351.66         39.2876
   351.80         39.0635
   351.94         38.8514
   352.08         38.6696
   352.22         38.5322
   352.36         38.4451
   352.50         38.4047
   352.64         38.4034
   352.78         38.4312
   352.92         38.4697
   353.06         38.4960
   353.20         38.4923
   353.34         38.4467
   353.48         38.3537
   353.62         38.2135
   353.76         38.0299
   353.90         37.8119
   354.04         37.5729
   354.18         37.3224
   354.32         37.0666
   354.46         36.8218
   354.60         36.6112
   354.74         36.4507
   354.88         36.3494
   355.02         36.3171
   355.16         36.3567
   355.30         36.4566
   355.44         36.5930
   355.58         36.7365
   355.72         36.8607
   355.86         36.9490
   356.00         36.9950
   356.14         37.0014
   356.28         36.9774
   356.42         36.9349
   356.56         36.8871
   356.70         36.8454
   356.84         36.8163
   356.98         36.8023
   357.12         36.8045
   357.26         36.8166
   357.40         36.8254
   357.54         36.8215
   357.68         36.7982
   357.82         36.7472
   357.96         36.6661
   358.10         36.5632
   358.24         36.4463
   358.38         36.3222
   358.52         36.2092
   358.66         36.1359
   358.80         36.1243
   358.94         36.1833
   359.08         36.3093
   359.22         36.4873
   359.36         36.6962
   359.50         36.9167
   359.64         37.1286
   359.78         37.3090
   359.92         37.4369
   360.06         37.4983
   360.20         37.4886
   360.34         37.4115
   360.48         37.2718
   360.62         37.0688
   360.76         36.7999
   360.90         36.4740
   361.04         36.1250
   361.18         35.7991
   361.32         35.5335
   361.46         35.3478
   361.60         35.2452
   361.74         35.2251
   361.88         35.2921
   362.02         35.4526
   362.16         35.7029
   362.30         36.0198
   362.44         36.3734
   362.58         36.7389
   362.72         37.0900
   362.86         37.3922
   363.00         37.6085
   363.14         37.7097
   363.28         37.6841
   363.42         37.5435
   363.56         37.3148
   363.70         37.0244
   363.84         36.6929
   363.98         36.3418
   364.12         35.9960
   364.26         35.6852
   364.40         35.4412
   364.54         35.2854
   364.68         35.2222
   364.82         35.2467
   364.96         35.3559
   365.10         35.5449
   365.24         35.7955
   365.38         36.0792
   365.52         36.3641
   365.66         36.6213
   365.80         36.8323
   365.94         36.9920
   366.08         37.1044
   366.22         37.1724
   366.36         37.1944
   366.50         37.1767
   366.64         37.1355
   366.78         37.0876
   366.92         37.0466
   367.06         37.0238
   367.20         37.0403
   367.34         37.1266
   367.48         37.3065
   367.62         37.5912
   367.76         37.9787
   367.90         38.4576
   368.04         39.0141
   368.18         39.6409
   368.32         40.3354
   368.46         41.0955
   368.60         41.9273
   368.74         42.8371
   368.88         43.8127
   369.02         44.8231
   369.16         45.8382
   369.30         46.8483
   369.44         47.8699
   369.58         48.9253
   369.72         50.0133
   369.86         51.0996
   370.00         52.1293
   370.14         53.0636
   370.28         53.9165
   370.42         54.7479
   370.56         55.6178
   370.70         56.5506
   370.84         57.5228
   370.98         58.4716
   371.12         59.3404
   371.26         60.1185
   371.40         60.8317
   371.54         61.5352
   371.68         62.3136
   371.82         63.2437
   371.96         64.3368
   372.10         65.5114
   372.24         66.6290
   372.38         67.5741
   372.52         68.3270
   372.66         68.9856
   372.80         69.7211
   372.94         70.7002
   373.08         72.0198
   373.22         73.6843
   373.36         75.6152
   373.50         77.6699
   373.64         79.6720
   373.78         81.4404
   373.92         82.8195
   374.06         83.7084
   374.20         84.0792
   374.34         83.9662
   374.48         83.4490
   374.62         82.6680
   374.76         81.8426
   374.90         81.2512
   375.04         81.1667
   375.18         81.7802
   375.32         83.1339
   375.46         85.0823
   375.60         87.3081
   375.74         89.3903
   375.88         90.9061
   376.02         91.5381
   376.16         91.1671
   376.30         89.9099
   376.44         88.0897
   376.58         86.1706
   376.72         84.6533
   376.86         83.9633
   377.00         84.3722
   377.14         85.9731
   377.28         88.7032
   377.42         92.3848
   377.56         96.7519
   377.70         101.4691
   377.84         106.1493
   377.98         110.3746
   378.12         113.7327
   378.26         115.8671
   378.40         116.5301
   378.54         115.6351
   378.68         113.2872
   378.82         109.7704
   378.96         105.4910
   379.10         100.9200
   379.24         96.5454
   379.38         92.8220
   379.52         90.1332
   379.66         88.7601
   379.80         88.8624
   379.94         90.4757
   380.08         93.4947
   380.22         97.6599
   380.36         102.5930
   380.50         107.8556
   380.64         112.9940
   380.78         117.5917
   380.92         121.3400
   381.06         124.0997
   381.20         125.9060
   381.34         126.9023
   381.48         127.2531
   381.62         127.0792
   381.76         126.4340
   381.90         125.3049
   382.04         123.6197
   382.18         121.2699
   382.32         118.1629
   382.46         114.2862
   382.60         109.7512
   382.74         104.7989
   382.88         99.7831
   383.02         95.1309
   383.16         91.2635
   383.30         88.5196
   383.44         87.1258
   383.58         87.1928
   383.72         88.7053
   383.86         91.5075
   384.00         95.3150
   384.14         99.7650
   384.28         104.4619
   384.42         109.0175
   384.56         113.1009
   384.70         116.4805
   384.84         119.0456
   384.98         120.8115
   385.12         121.8896
   385.26         122.4340
   385.40         122.6013
   385.54         122.5319
   385.68         122.3469
   385.82         122.1391
   385.96         121.9681
   386.10         121.8731
   386.24         121.8834
   386.38         121.9987
   386.52         122.1712
   386.66         122.3228
   386.80         122.3701
   386.94         122.2251
   387.08         121.7920
   387.22         120.9640
   387.36         119.6071
   387.50         117.5674
   387.64         114.7254
   387.78         111.0623
   387.92         106.6982
   388.06         101.8980
   388.20         97.0378
   388.34         92.5343
   388.48         88.7707
   388.62         86.0508
   388.76         84.5808
   388.90         84.4586
   389.04         85.6691
   389.18         88.0971
   389.32         91.5417
   389.46         95.7222
   389.60         100.2963
   389.74         104.9001
   389.88         109.1922
   390.02         112.8949
   390.16         115.8473
   390.30         118.0383
   390.44         119.5851
   390.58         120.6639
   390.72         121.4387
   390.86         122.0203
   391.00         122.4631
   391.14         122.7923
   391.28         123.0317
   391.42         123.2110
   391.56         123.3498
   391.70         123.4338
   391.84         123.4002
   391.98         123.1381
   392.12         122.5188
   392.26         121.4537
   392.40         119.9327
   392.54         118.0232
   392.68         115.8601
   392.82         113.6373
   392.96         111.5767
   393.10         109.8827
   393.24         108.7074
   393.38         108.1335
   393.52         108.1815
   393.66         108.8260
   393.80         109.9968
   393.94         111.5704
   394.08         113.3704
   394.22         115.1891
   394.36         116.8275
   394.50         118.1298
   394.64         119.0022
   394.78         119.4240
   394.92         119.4323
   395.06         119.0723
   395.20         118.3520
   395.34         117.2221
   395.48         115.5742
   395.62         113.2610
   395.76         110.1574
   395.90         106.2299
   396.04         101.5840
   396.18         96.4765
   396.32         91.2804
   396.46         86.4170
   396.60         82.2953
   396.74         79.2648
   396.88         77.5785
   397.02         77.3642
   397.16         78.6185
   397.30         81.2147
   397.44         84.9080
   397.58         89.3602
   397.72         94.1832
   397.86         98.9764
   398.00         103.3682
   398.14         107.0744
   398.28         109.9513
   398.42         112.0039
   398.56         113.3452
   398.70         114.1400
   398.84         114.5526
   398.98         114.7075
   399.12         114.6875
   399.26         114.5526
   399.40         114.3510
   399.54         114.1278
   399.68         113.9289
   399.82         113.7963
   399.96         113.7544
   400.10         113.8048
   400.24         113.9397
   400.38         114.1429
   400.52         114.3830
   400.66         114.6242
   400.80         114.8477
   400.94         115.0511
   401.08         115.2306
   401.22         115.3751
   401.36         115.4729
   401.50         115.5184
   401.64         115.5135
   401.78         115.4632
   401.92         115.3756
   402.06         115.2628
   402.20         115.1372
   402.34         115.0065
   402.48         114.8735
   402.62         114.7440
   402.76         114.6315
   402.90         114.5497
   403.04         114.5022
   403.18         114.4826
   403.32         114.4826
   403.46         114.4916
   403.60         114.4890
   403.74         114.4471
   403.88         114.3442
   404.02         114.1713
   404.16         113.9296
   404.30         113.6281
   404.44         113.2837
   404.58         112.9242
   404.72         112.5824
   404.86         112.2837
   405.00         112.0454
   405.14         111.8826
   405.28         111.8030
   405.42         111.7995
   405.56         111.8552
   405.70         111.9491
   405.84         112.0526
   405.98         112.1341
   406.12         112.1641
   406.26         112.1146
   406.40         111.9658
   406.54         111.7143
   406.68         111.3744
   406.82         110.9750
   406.96         110.5585
   407.10         110.1699
   407.24         109.8424
   407.38         109.5915
   407.52         109.4114
   407.66         109.2777
   407.80         109.1579
   407.94         109.0153
   408.08         108.8061
   408.22         108.4777
   408.36         107.9614
   408.50         107.1627
   408.64         105.9666
   408.78         104.2494
   408.92         101.9017
   409.06         98.8722
   409.20         95.2124
   409.34         91.0883
   409.48         86.7574
   409.62         82.5323
   409.76         78.7393
   409.90         75.6794
   410.04         73.6036
   410.18         72.6917
   410.32         73.0273
   410.46         74.5802
   410.60         77.2016
   410.74         80.6433
   410.88         84.5938
   411.02         88.7118
   411.16         92.6628
   411.30         96.1634
   411.44         99.0216
   411.58         101.1644
   411.72         102.6285
   411.86         103.5188
   412.00         103.9597
   412.14         104.0715
   412.28         103.9621
   412.42         103.7200
   412.56         103.4236
   412.70         103.1509
   412.84         102.9669
   412.98         102.9038
   413.12         102.9640
   413.26         103.1366
   413.40         103.4027
   413.54         103.7337
   413.68         104.0979
   413.82         104.4691
   413.96         104.8235
   414.10         105.1386
   414.24         105.4028
   414.38         105.6128
   414.52         105.7707
   414.66         105.8854
   414.80         105.9661
   414.94         106.0080
   415.08         105.9970
   415.22         105.9251
   415.36         105.7911
   415.50         105.5943
   415.64         105.3356
   415.78         105.0228
   415.92         104.6679
   416.06         104.2788
   416.20         103.8601
   416.34         103.4164
   416.48         102.9463
   416.62         102.4405
   416.76         101.8976
   416.90         101.3361
   417.04         100.7906
   417.18         100.2986
   417.32         99.8897
   417.46         99.5810
   417.60         99.3763
   417.74         99.2739
   417.88         99.2767
   418.02         99.3876
   418.16         99.5972
   418.30         99.8799
   418.44         100.1972
   418.58         100.5058
   418.72         100.7649
   418.86         100.9430
   419.00         101.0265
   419.14         101.0169
   419.28         100.9272
   419.42         100.7850
   419.56         100.6287
   419.70         100.4957
   419.84         100.4095
   419.98         100.3798
   420.12         100.4090
   420.26         100.4904
   420.40         100.6087
   420.54         100.7428
   420.68         100.8640
   420.82         100.9416
   420.96         100.9499
   421.10         100.8685
   421.24         100.6913
   421.38         100.4296
   421.52         100.1089
   421.66         99.7604
   421.80         99.4091
   421.94         99.0706
   422.08         98.7590
   422.22         98.4863
   422.36         98.2535
   422.50         98.0481
   422.64         97.8577
   422.78         97.6773
   422.92         97.5047
   423.06         97.3416
   423.20         97.1992
   423.34         97.0942
   423.48         97.0418
   423.62         97.0502
   423.76         97.1192
   423.90         97.2406
   424.04         97.3957
   424.18         97.5583
   424.32         97.7021
   424.46         97.8037
   424.60         97.8493
   424.74         97.8389
   424.88         97.7798
   425.02         97.6814
   425.16         97.5589
   425.30         97.4352
   425.44         97.3289
   425.58         97.2452
   425.72         97.1864
   425.86         97.1551
   426.00         97.1449
   426.14         97.1379
   426.28         97.1113
   426.42         97.0465
   426.56         96.9349
   426.70         96.7804
   426.84         96.5994
   426.98         96.4106
   427.12         96.2312
   427.26         96.0813
   427.40         95.9780
   427.54         95.9279
   427.68         95.9204
   427.82         95.9315
   427.96         95.9327
   428.10         95.8958
   428.24         95.7996
   428.38         95.6348
   428.52         95.3972
   428.66         95.0858
   428.80         94.7083
   428.94         94.2851
   429.08         93.8472
   429.22         93.4260
   429.36         93.0476
   429.50         92.7267
   429.64         92.4636
   429.78         92.2592
   429.92         92.1121
   430.06         92.0078
   430.20         91.9217
   430.34         91.8305
   430.48         91.7270
   430.62         91.6184
   430.76         91.5130
   430.90         91.4185
   431.04         91.3438
   431.18         91.2988
   431.32         91.2927
   431.46         91.3350
   431.60         91.4292
   431.74         91.5621
   431.88         91.6991
   432.02         91.7890
   432.16         91.7664
   432.30         91.5544
   432.44         91.0617
   432.58         90.1714
   432.72         88.7615
   432.86         86.7490
   433.00         84.1289
   433.14         80.9947
   433.28         77.5316
   433.42         73.9929
   433.56         70.6688
   433.70         67.8444
   433.84         65.7612
   433.98         64.5938
   434.12         64.4358
   434.26         65.2912
   434.40         67.0763
   434.54         69.6333
   434.68         72.7486
   434.82         76.1744
   434.96         79.6486
   435.10         82.9259
   435.24         85.8157
   435.38         88.2114
   435.52         90.0937
   435.66         91.5055
   435.80         92.5177
   435.94         93.2002
   436.08         93.6132
   436.22         93.8085
   436.36         93.8297
   436.50         93.7226
   436.64         93.5391
   436.78         93.3342
   436.92         93.1547
   437.06         93.0268
   437.20         92.9540
   437.34         92.9194
   437.48         92.8960
   437.62         92.8526
   437.76         92.7607
   437.90         92.6001
   438.04         92.3555
   438.18         92.0195
   438.32         91.6002
   438.46         91.1262
   438.60         90.6406
   438.74         90.1898
   438.88         89.8083
   439.02         89.5173
   439.16         89.3343
   439.30         89.2729
   439.44         89.3310
   439.58         89.4830
   439.72         89.6884
   439.86         89.9104
   440.00         90.1226
   440.14         90.3041
   440.28         90.4279
   440.42         90.4598
   440.56         90.3696
   440.70         90.1445
   440.84         89.7971
   440.98         89.3611
   441.12         88.8774
   441.26         88.3845
   441.40         87.9147
   441.54         87.4941
   441.68         87.1434
   441.82         86.8743
   441.96         86.6800
   442.10         86.5347
   442.24         86.4079
   442.38         86.2798
   442.52         86.1454
   442.66         86.0067
   442.80         85.8624
   442.94         85.7085
   443.08         85.5451
   443.22         85.3792
   443.36         85.2287
   443.50         85.1123
   443.64         85.0356
   443.78         84.9938
   443.92         84.9806
   444.06         84.9932
   444.20         85.0339
   444.34         85.1097
   444.48         85.2279
   444.62         85.3929
   444.76         85.6097
   444.90         85.8857
   445.04         86.2213
   445.18         86.5975
   445.32         86.9757
   445.46         87.3082
   445.60         87.5574
   445.74         87.7048
   445.88         87.7475
   446.02         87.6914
   446.16         87.5435
   446.30         87.3165
   446.44         87.0368
   446.58         86.7370
   446.72         86.4421
   446.86         86.1635
   447.00         85.9041
   447.14         85.6679
   447.28         85.4599
   447.42         85.2820
   447.56         85.1278
   447.70         84.9790
   447.84         84.8165
   447.98         84.6351
   448.12         84.4436
   448.26         84.2593
   448.40         84.1008
   448.54         83.9805
   448.68         83.9040
   448.82         83.8728
   448.96         83.8830
   449.10         83.9248
   449.24         83.9831
   449.38         84.0406
   449.52         84.0832
   449.66         84.1058
   449.80         84.1143
   449.94         84.1167
   450.08         84.1161
   450.22         84.1106
   450.36         84.0973
   450.50         84.0760
   450.64         84.0457
   450.78         84.0003
   450.92         83.9316
   451.06         83.8325
   451.20         83.7013
   451.34         83.5450
   451.48         83.3759
   451.62         83.2073
   451.76         83.0519
   451.90         82.9171
   452.04         82.8019
   452.18         82.7046
   452.32         82.6317
   452.46         82.5939
   452.60         82.5921
   452.74         82.6150
   452.88         82.6515
   453.02         82.6925
   453.16         82.7288
   453.30         82.7539
   453.44         82.7623
   453.58         82.7456
   453.72         82.6907
   453.86         82.5842
   454.00         82.4211
   454.14         82.2044
   454.28         81.9408
   454.42         81.6395
   454.56         81.3147
   454.70         80.9892
   454.84         80.6960
   454.98         80.4674
   455.12         80.3214
   455.26         80.2614
   455.40         80.2849
   455.54         80.3845
   455.68         80.5444
   455.82         80.7467
   455.96         80.9733
   456.10         81.2022
   456.24         81.4143
   456.38         81.5983
   456.52         81.7531
   456.66         81.8787
   456.80         81.9628
   456.94         81.9854
   457.08         81.9334
   457.22         81.8087
   457.36         81.6213
   457.50         81.3806
   457.64         81.0952
   457.78         80.7789
   457.92         80.4610
   458.06         80.1772
   458.20         79.9513
   458.34         79.7940
   458.48         79.7080
   458.62         79.6882
   458.76         79.7242
   458.90         79.8032
   459.04         79.9108
   459.18         80.0311
   459.32         80.1532
   459.46         80.2753
   459.60         80.4002
   459.74         80.5311
   459.88         80.6712
   460.02         80.8216
   460.16         80.9815
   460.30         81.1508
   460.44         81.3284
   460.58         81.5072
   460.72         81.6697
   460.86         81.7973
   461.00         81.8835
   461.14         81.9334
   461.28         81.9524
   461.42         81.9403
   461.56         81.8916
   461.70         81.7973
   461.84         81.6499
   461.98         81.4445
   462.12         81.1727
   462.26         80.8261
   462.40         80.4140
   462.54         79.9689
   462.68         79.5322
   462.82         79.1429
   462.96         78.8373
   463.10         78.6497
   463.24         78.6073
   463.38         78.7228
   463.52         78.9892
   463.66         79.3798
   463.80         79.8486
   463.94         80.3375
   464.08         80.7914
   464.22         81.1668
   464.36         81.4345
   464.50         81.5813
   464.64         81.6068
   464.78         81.5224
   464.92         81.3527
   465.06         81.1292
   465.20         80.8765
   465.34         80.6090
   465.48         80.3432
   465.62         80.0993
   465.76         79.8919
   465.90         79.7242
   466.04         79.5921
   466.18         79.4900
   466.32         79.4148
   466.46         79.3687
   466.60         79.3561
   466.74         79.3766
   466.88         79.4177
   467.02         79.4618
   467.16         79.4988
   467.30         79.5246
   467.44         79.5361
   467.58         79.5314
   467.72         79.5108
   467.86         79.4756
   468.00         79.4310
   468.14         79.3882
   468.28         79.3549
   468.42         79.3350
   468.56         79.3338
   468.70         79.3536
   468.84         79.3903
   468.98         79.4390
   469.12         79.4955
   469.26         79.5590
   469.40         79.6313
   469.54         79.7134
   469.68         79.8100
   469.82         79.9258
   469.96         80.0544
   470.10         80.1786
   470.24         80.2802
   470.38         80.3434
   470.52         80.3551
   470.66         80.3114
   470.80         80.2150
   470.94         80.0648
   471.08         79.8572
   471.22         79.5918
   471.36         79.2721
   471.50         78.9067
   471.64         78.5105
   471.78         78.1042
   471.92         77.7109
   472.06         77.3455
   472.20         77.0143
   472.34         76.7228
   472.48         76.4702
   472.62         76.2513
   472.76         76.0672
   472.90         75.9275
   473.04         75.8449
   473.18         75.8270
   473.32         75.8719
   473.46         75.9642
   473.60         76.0818
   473.74         76.2091
   473.88         76.3381
   474.02         76.4672
   474.16         76.5956
   474.30         76.7206
   474.44         76.8398
   474.58         76.9497
   474.72         77.0398
   474.86         77.0933
   475.00         77.0915
   475.14         77.0170
   475.28         76.8618
   475.42         76.6282
   475.56         76.3250
   475.70         75.9686
   475.84         75.5832
   475.98         75.1987
   476.12         74.8448
   476.26         74.5468
   476.40         74.3196
   476.54         74.1603
   476.68         74.0527
   476.82         73.9763
   476.96         73.9120
   477.10         73.8467
   477.24         73.7745
   477.38         73.6944
   477.52         73.6085
   477.66         73.5223
   477.80         73.4447
   477.94         73.3866
   478.08         73.3637
   478.22         73.3932
   478.36         73.4845
   478.50         73.6325
   478.64         73.8177
   478.78         74.0127
   478.92         74.1927
   479.06         74.3390
   479.20         74.4375
   479.34         74.4840
   479.48         74.4862
   479.62         74.4519
   479.76         74.3819
   479.90         74.2724
   480.04         74.1160
   480.18         73.9070
   480.32         73.6465
   480.46         73.3436
   480.60         73.0154
   480.74         72.6802
   480.88         72.3473
   481.02         72.0166
   481.16         71.6873
   481.30         71.3635
   481.44         71.0514
   481.58         70.7574
   481.72         70.4874
   481.86         70.2471
   482.00         70.0462
   482.14         69.8940
   482.28         69.7923
   482.42         69.7375
   482.56         69.7270
   482.70         69.7595
   482.84         69.8291
   482.98         69.9246
   483.12         70.0326
   483.26         70.1376
   483.40         70.2200
   483.54         70.2585
   483.68         70.2336
   483.82         70.1284
   483.96         69.9283
   484.10         69.6191
   484.24         69.1848
   484.38         68.6024
   484.52         67.8374
   484.66         66.8439
   484.80         65.5692
   484.94         63.9677
   485.08         62.0281
   485.22         59.7957
   485.36         57.3724
   485.50         54.9006
   485.64         52.5453
   485.78         50.4754
   485.92         48.8465
   486.06         47.7817
   486.20         47.3563
   486.34         47.5892
   486.48         48.4417
   486.62         49.8249
   486.76         51.6097
   486.90         53.6344
   487.04         55.7227
   487.18         57.7131
   487.32         59.4840
   487.46         60.9677
   487.60         62.1533
   487.74         63.0767
   487.88         63.7942
   488.02         64.3578
   488.16         64.8096
   488.30         65.1854
   488.44         65.5143
   488.58         65.8138
   488.72         66.0872
   488.86         66.3299
   489.00         66.5409
   489.14         66.7262
   489.28         66.8952
   489.42         67.0542
   489.56         67.2041
   489.70         67.3461
   489.84         67.4862
   489.98         67.6301
   490.12         67.7765
   490.26         67.9159
   490.40         68.0390
   490.54         68.1413
   490.68         68.2235
   490.82         68.2903
   490.96         68.3416
   491.10         68.3680
   491.24         68.3582
   491.38         68.3076
   491.52         68.2215
   491.66         68.1137
   491.80         68.0006
   491.94         67.8942
   492.08         67.8018
   492.22         67.7331
   492.36         67.6999
   492.50         67.7105
   492.64         67.7651
   492.78         67.8587
   492.92         67.9876
   493.06         68.1502
   493.20         68.3413
   493.34         68.5519
   493.48         68.7685
   493.62         68.9716
   493.76         69.1413
   493.90         69.2654
   494.04         69.3397
   494.18         69.3676
   494.32         69.3567
   494.46         69.3107
   494.60         69.2261
   494.74         69.1023
   494.88         68.9505
   495.02         68.7839
   495.16         68.6127
   495.30         68.4508
   495.44         68.3131
   495.58         68.2079
   495.72         68.1397
   495.86         68.1107
   496.00         68.1165
   496.14         68.1448
   496.28         68.1815
   496.42         68.2165
   496.56         68.2418
   496.70         68.2521
   496.84         68.2427
   496.98         68.2012
   497.12         68.1116
   497.26         67.9674
   497.40         67.7752
   497.54         67.5480
   497.68         67.2991
   497.82         67.0429
   497.96         66.7945
   498.10         66.5678
   498.24         66.3775
   498.38         66.2359
   498.52         66.1471
   498.66         66.1085
   498.80         66.1156
   498.94         66.1588
   499.08         66.2206
   499.22         66.2786
   499.36         66.3141
   499.50         66.3155
   499.64         66.2793
   499.78         66.2090
   499.92         66.1090
   500.06         65.9808
   500.20         65.8224
   500.34         65.6289
   500.48         65.3933
   500.62         65.1145
   500.76         64.8043
   500.90         64.4846
   501.04         64.1818
   501.18         63.9217
   501.32         63.7235
   501.46         63.5954
   501.60         63.5368
   501.74         63.5416
   501.88         63.5990
   502.02         63.6955
   502.16         63.8163
   502.30         63.9434
   502.44         64.0556
   502.58         64.1367
   502.72         64.1790
   502.86         64.1798
   503.00         64.1419
   503.14         64.0781
   503.28         64.0132
   503.42         63.9732
   503.56         63.9689
   503.70         63.9949
   503.84         64.0399
   503.98         64.0942
   504.12         64.1511
   504.26         64.2031
   504.40         64.2426
   504.54         64.2673
   504.68         64.2839
   504.82         64.3036
   504.96         64.3313
   505.10         64.3621
   505.24         64.3872
   505.38         64.3985
   505.52         64.3912
   505.66         64.3631
   505.80         64.3121
   505.94         64.2371
   506.08         64.1366
   506.22         64.0088
   506.36         63.8572
   506.50         63.6916
   506.64         63.5226
   506.78         63.3605
   506.92         63.2168
   507.06         63.1045
   507.20         63.0348
   507.34         63.0117
   507.48         63.0303
   507.62         63.0792
   507.76         63.1456
   507.90         63.2194
   508.04         63.2929
   508.18         63.3583
   508.32         63.4068
   508.46         63.4315
   508.60         63.4280
   508.74         63.3929
   508.88         63.3257
   509.02         63.2318
   509.16         63.1165
   509.30         62.9841
   509.44         62.8432
   509.58         62.7064
   509.72         62.5830
   509.86         62.4762
   510.00         62.3885
   510.14         62.3209
   510.28         62.2700
   510.42         62.2299
   510.56         62.1961
   510.70         62.1654
   510.84         62.1374
   510.98         62.1138
   511.12         62.0961
   511.26         62.0831
   511.40         62.0721
   511.54         62.0610
   511.68         62.0424
   511.82         62.0051
   511.96         61.9433
   512.10         61.8570
   512.24         61.7437
   512.38         61.6001
   512.52         61.4305
   512.66         61.2475
   512.80         61.0662
   512.94         60.9033
   513.08         60.7741
   513.22         60.6862
   513.36         60.6401
   513.50         60.6327
   513.64         60.6561
   513.78         60.6968
   513.92         60.7392
   514.06         60.7679
   514.20         60.7703
   514.34         60.7422
   514.48         60.6894
   514.62         60.6211
   514.76         60.5479
   514.90         60.4826
   515.04         60.4360
   515.18         60.4108
   515.32         60.3995
   515.46         60.3856
   515.60         60.3444
   515.74         60.2494
   515.88         60.0842
   516.02         59.8507
   516.16         59.5670
   516.30         59.2573
   516.44         58.9453
   516.58         58.6552
   516.72         58.4093
   516.86         58.2259
   517.00         58.1184
   517.14         58.0872
   517.28         58.1237
   517.42         58.2167
   517.56         58.3496
   517.70         58.5012
   517.84         58.6521
   517.98         58.7890
   518.12         58.9069
   518.26         59.0075
   518.40         59.0971
   518.54         59.1850
   518.68         59.2785
   518.82         59.3792
   518.96         59.4845
   519.10         59.5915
   519.24         59.6966
   519.38         59.7948
   519.52         59.8831
   519.66         59.9567
   519.80         60.0098
   519.94         60.0401
   520.08         60.0449
   520.22         60.0189
   520.36         59.9585
   520.50         59.8658
   520.64         59.7479
   520.78         59.6141
   520.92         59.4721
   521.06         59.3299
   521.20         59.1970
   521.34         59.0771
   521.48         58.9681
   521.62         58.8658
   521.76         58.7621
   521.90         58.6469
   522.04         58.5147
   522.18         58.3613
   522.32         58.1836
   522.46         57.9855
   522.60         57.7776
   522.74         57.5727
   522.88         57.3824
   523.02         57.2186
   523.16         57.0921
   523.30         57.0072
   523.44         56.9609
   523.58         56.9448
   523.72         56.9494
   523.86         56.9630
   524.00         56.9759
   524.14         56.9847
   524.28         56.9888
   524.42         56.9854
   524.56         56.9709
   524.70         56.9423
   524.84         56.8951
   524.98         56.8243
   525.12         56.7288
   525.26         56.6135
   525.40         56.4894
   525.54         56.3701
   525.68         56.2713
   525.82         56.2056
   525.96         56.1762
   526.10         56.1764
   526.24         56.1943
   526.38         56.2165
   526.52         56.2295
   526.66         56.2235
   526.80         56.1942
   526.94         56.1415
   527.08         56.0690
   527.22         55.9841
   527.36         55.8972
   527.50         55.8187
   527.64         55.7579
   527.78         55.7256
   527.92         55.7309
   528.06         55.7757
   528.20         55.8529
   528.34         55.9477
   528.48         56.0403
   528.62         56.1092
   528.76         56.1350
   528.90         56.1104
   529.04         56.0404
   529.18         55.9346
   529.32         55.8039
   529.46         55.6596
   529.60         55.5093
   529.74         55.3591
   529.88         55.2192
   530.02         55.1013
   530.16         55.0112
   530.30         54.9454
   530.44         54.8924
   530.58         54.8355
   530.72         54.7612
   530.86         54.6676
   531.00         54.5593
   531.14         54.4401
   531.28         54.3159
   531.42         54.1995
   531.56         54.1088
   531.70         54.0563
   531.84         54.0427
   531.98         54.0672
   532.12         54.1287
   532.26         54.2194
   532.40         54.3268
   532.54         54.4357
   532.68         54.5273
   532.82         54.5834
   532.96         54.5954
   533.10         54.5699
   533.24         54.5215
   533.38         54.4648
   533.52         54.4089
   533.66         54.3536
   533.80         54.2980
   533.94         54.2480
   534.08         54.2118
   534.22         54.1929
   534.36         54.1882
   534.50         54.1898
   534.64         54.1894
   534.78         54.1753
   534.92         54.1345
   535.06         54.0568
   535.20         53.9357
   535.34         53.7728
   535.48         53.5778
   535.62         53.3638
   535.76         53.1418
   535.90         52.9209
   536.04         52.7149
   536.18         52.5418
   536.32         52.4176
   536.46         52.3544
   536.60         52.3540
   536.74         52.4062
   536.88         52.4952
   537.02         52.6037
   537.16         52.7161
   537.30         52.8191
   537.44         52.9021
   537.58         52.9589
   537.72         52.9880
   537.86         52.9933
   538.00         52.9841
   538.14         52.9680
   538.28         52.9511
   538.42         52.9414
   538.56         52.9466
   538.70         52.9673
   538.84         52.9937
   538.98         53.0102
   539.12         53.0009
   539.26         52.9529
   539.40         52.8628
   539.54         52.7347
   539.68         52.5755
   539.82         52.3951
   539.96         52.2086
   540.10         52.0354
   540.24         51.8924
   540.38         51.7914
   540.52         51.7415
   540.66         51.7465
   540.80         51.8006
   540.94         51.8884
   541.08         51.9876
   541.22         52.0738
   541.36         52.1272
   541.50         52.1377
   541.64         52.1081
   541.78         52.0493
   541.92         51.9736
   542.06         51.8883
   542.20         51.7953
   542.34         51.6972
   542.48         51.6030
   542.62         51.5246
   542.76         51.4700
   542.90         51.4403
   543.04         51.4318
   543.18         51.4376
   543.32         51.4468
   543.46         51.4494
   543.60         51.4411
   543.74         51.4219
   543.88         51.3953
   544.02         51.3653
   544.16         51.3353
   544.30         51.3043
   544.44         51.2661
   544.58         51.2129
   544.72         51.1426
   544.86         51.0615
   545.00         50.9803
   545.14         50.9080
   545.28         50.8475
   545.42         50.7961
   545.56         50.7479
   545.70         50.6983
   545.84         50.6479
   545.98         50.6004
   546.12         50.5576
   546.26         50.5179
   546.40         50.4781
   546.54         50.4360
   546.68         50.3888
   546.82         50.3299
   546.96         50.2519
   547.10         50.1518
   547.24         50.0337
   547.38         49.9060
   547.52         49.7752
   547.66         49.6452
   547.80         49.5193
   547.94         49.4032
   548.08         49.3049
   548.22         49.2331
   548.36         49.1944
   548.50         49.1921
   548.64         49.2242
   548.78         49.2835
   548.92         49.3587
   549.06         49.4373
   549.20         49.5087
   549.34         49.5636
   549.48         49.5942
   549.62         49.5954
   549.76         49.5646
   549.90         49.5028
   550.04         49.4168
   550.18         49.3182
   550.32         49.2207
   550.46         49.1379
   550.60         49.0796
   550.74         49.0487
   550.88         49.0443
   551.02         49.0612
   551.16         49.0911
   551.30         49.1243
   551.44         49.1495
   551.58         49.1550
   551.72         49.1340
   551.86         49.0864
   552.00         49.0135
   552.14         48.9145
   552.28         48.7904
   552.42         48.6479
   552.56         48.4999
   552.70         48.3593
   552.84         48.2342
   552.98         48.1290
   553.12         48.0468
   553.26         47.9898
   553.40         47.9599
   553.54         47.9584
   553.68         47.9827
   553.82         48.0241
   553.96         48.0720
   554.10         48.1184
   554.24         48.1567
   554.38         48.1826
   554.52         48.1938
   554.66         48.1899
   554.80         48.1736
   554.94         48.1531
   555.08         48.1401
   555.22         48.1423
   555.36         48.1604
   555.50         48.1929
   555.64         48.2375
   555.78         48.2884
   555.92         48.3377
   556.06         48.3758
   556.20         48.3940
   556.34         48.3883
   556.48         48.3591
   556.62         48.3119
   556.76         48.2545
   556.90         48.1955
   557.04         48.1451
   557.18         48.1125
   557.32         48.1033
   557.46         48.1181
   557.60         48.1533
   557.74         48.2011
   557.88         48.2524
   558.02         48.3005
   558.16         48.3403
   558.30         48.3648
   558.44         48.3651
   558.58         48.3354
   558.72         48.2770
   558.86         48.1996
   559.00         48.1158
   559.14         48.0352
   559.28         47.9632
   559.42         47.9025
   559.56         47.8554
   559.70         47.8237
   559.84         47.8065
   559.98         47.8025
   560.12         47.8085
   560.26         47.8184
   560.40         47.8280
   560.54         47.8347
   560.68         47.8362
   560.82         47.8308
   560.96         47.8184
   561.10         47.8018
   561.24         47.7843
   561.38         47.7680
   561.52         47.7500
   561.66         47.7237
   561.80         47.6828
   561.94         47.6227
   562.08         47.5414
   562.22         47.4418
   562.36         47.3288
   562.50         47.2055
   562.64         47.0744
   562.78         46.9397
   562.92         46.8104
   563.06         46.6972
   563.20         46.6073
   563.34         46.5439
   563.48         46.5083
   563.62         46.5001
   563.76         46.5148
   563.90         46.5426
   564.04         46.5722
   564.18         46.5938
   564.32         46.5971
   564.46         46.5738
   564.60         46.5193
   564.74         46.4341
   564.88         46.3240
   565.02         46.1989
   565.16         46.0701
   565.30         45.9480
   565.44         45.8407
   565.58         45.7541
   565.72         45.6905
   565.86         45.6474
   566.00         45.6204
   566.14         45.6052
   566.28         45.5966
   566.42         45.5863
   566.56         45.5661
   566.70         45.5337
   566.84         45.4880
   566.98         45.4270
   567.12         45.3552
   567.26         45.2811
   567.40         45.2139
   567.54         45.1618
   567.68         45.1289
   567.82         45.1123
   567.96         45.1053
   568.10         45.1016
   568.24         45.0983
   568.38         45.0936
   568.52         45.0845
   568.66         45.0705
   568.80         45.0557
   568.94         45.0449
   569.08         45.0386
   569.22         45.0319
   569.36         45.0168
   569.50         44.9846
   569.64         44.9324
   569.78         44.8608
   569.92         44.7695
   570.06         44.6592
   570.20         44.5335
   570.34         44.3984
   570.48         44.2628
   570.62         44.1387
   570.76         44.0376
   570.90         43.9678
   571.04         43.9338
   571.18         43.9359
   571.32         43.9696
   571.46         44.0251
   571.60         44.0873
   571.74         44.1398
   571.88         44.1714
   572.02         44.1819
   572.16         44.1792
   572.30         44.1713
   572.44         44.1606
   572.58         44.1493
   572.72         44.1425
   572.86         44.1416
   573.00         44.1448
   573.14         44.1480
   573.28         44.1449
   573.42         44.1284
   573.56         44.0921
   573.70         44.0329
   573.84         43.9502
   573.98         43.8449
   574.12         43.7205
   574.26         43.5840
   574.40         43.4434
   574.54         43.3062
   574.68         43.1789
   574.82         43.0672
   574.96         42.9720
   575.10         42.8926
   575.24         42.8314
   575.38         42.7906
   575.52         42.7710
   575.66         42.7721
   575.80         42.7898
   575.94         42.8181
   576.08         42.8499
   576.22         42.8787
   576.36         42.8985
   576.50         42.9019
   576.64         42.8777
   576.78         42.8116
   576.92         42.6924
   577.06         42.5158
   577.20         42.2859
   577.34         42.0154
   577.48         41.7209
   577.62         41.4193
   577.76         41.1309
   577.90         40.8777
   578.04         40.6766
   578.18         40.5361
   578.32         40.4554
   578.46         40.4278
   578.60         40.4437
   578.74         40.4914
   578.88         40.5590
   579.02         40.6353
   579.16         40.7112
   579.30         40.7806
   579.44         40.8422
   579.58         40.9016
   579.72         40.9661
   579.86         41.0385
   580.00         41.1167
   580.14         41.1948
   580.28         41.2681
   580.42         41.3362
   580.56         41.3980
   580.70         41.4497
   580.84         41.4867
   580.98         41.5065
   581.12         41.5107
   581.26         41.5042
   581.40         41.4919
   581.54         41.4757
   581.68         41.4552
   581.82         41.4286
   581.96         41.3932
   582.10         41.3465
   582.24         41.2879
   582.38         41.2199
   582.52         41.1490
   582.66         41.0857
   582.80         41.0418
   582.94         41.0263
   583.08         41.0401
   583.22         41.0757
   583.36         41.1239
   583.50         41.1789
   583.64         41.2358
   583.78         41.2884
   583.92         41.3287
   584.06         41.3489
   584.20         41.3458
   584.34         41.3211
   584.48         41.2754
   584.62         41.2085
   584.76         41.1237
   584.90         41.0303
   585.04         40.9408
   585.18         40.8662
   585.32         40.8148
   585.46         40.7910
   585.60         40.7943
   585.74         40.8211
   585.88         40.8673
   586.02         40.9295
   586.16         40.9987
   586.30         41.0590
   586.44         41.0952
   586.58         41.1018
   586.72         41.0836
   586.86         41.0492
   587.00         41.0047
   587.14         40.9539
   587.28         40.9018
   587.42         40.8511
   587.56         40.7920
   587.70         40.6951
   587.84         40.5177
   587.98         40.2256
   588.12         39.8035
   588.26         39.2473
   588.40         38.5614
   588.54         37.7686
   588.68         36.9152
   588.82         36.0646
   588.96         35.2887
   589.10         34.6594
   589.24         34.2393
   589.38         34.0682
   589.52         34.1540
   589.66         34.4747
   589.80         34.9862
   589.94         35.6298
   590.08         36.3389
   590.22         37.0467
   590.36         37.6967
   590.50         38.2534
   590.64         38.7018
   590.78         39.0347
   590.92         39.2488
   591.06         39.3541
   591.20         39.3755
   591.34         39.3415
   591.48         39.2737
   591.62         39.1850
   591.76         39.0820
   591.90         38.9704
   592.04         38.8561
   592.18         38.7463
   592.32         38.6529
   592.46         38.5886
   592.60         38.5607
   592.74         38.5671
   592.88         38.5983
   593.02         38.6411
   593.16         38.6816
   593.30         38.7074
   593.44         38.7096
   593.58         38.6835
   593.72         38.6261
   593.86         38.5379
   594.00         38.4236
   594.14         38.2908
   594.28         38.1480
   594.42         38.0055
   594.56         37.8750
   594.70         37.7660
   594.84         37.6827
   594.98         37.6236
   595.12         37.5814
   595.26         37.5473
   595.40         37.5151
   595.54         37.4830
   595.68         37.4511
   595.82         37.4193
   595.96         37.3877
   596.10         37.3562
   596.24         37.3248
   596.38         37.2936
   596.52         37.2626
   596.66         37.2318
   596.80         37.2012
   596.94         37.1707
   597.08         37.1403
   597.22         37.1101
   597.36         37.0800
   597.50         37.0500
   597.64         37.0200
   597.78         36.9901
   597.92         36.9603
   598.06         36.9307
   598.20         36.9012
   598.34         36.8719
   598.48         36.8433
   598.62         36.8165
   598.76         36.7909
   598.90         36.7648
   599.04         36.7381
   599.18         36.7102
   599.32         36.6803
   599.46         36.6485
   599.60         36.6168
   599.74         36.5864
   599.88         36.5553
   600.02         36.5214
   600.16         36.4835
   600.30         36.4400
   600.44         36.3888
   600.58         36.3283
   600.72         36.2602
   600.86         36.1897
   601.00         36.1219
   601.14         36.0610
   601.28         36.0108
   601.42         35.9721
   601.56         35.9445
   601.70         35.9282
   601.84         35.9216
   601.98         35.9229
   602.12         35.9322
   602.26         35.9483
   602.40         35.9649
   602.54         35.9758
   602.68         35.9780
   602.82         35.9672
   602.96         35.9346
   603.10         35.8748
   603.24         35.7914
   603.38         35.6940
   603.52         35.5920
   603.66         35.4923
   603.80         35.4054
   603.94         35.3465
   604.08         35.3269
   604.22         35.3558
   604.36         35.4403
   604.50         35.5824
   604.64         35.7791
   604.78         36.0213
   604.92         36.2931
   605.06         36.5751
   605.20         36.8491
   605.34         37.0985
   605.48         37.3092
   605.62         37.4724
   605.76         37.5886
   605.90         37.6619
   606.04         37.6961
   606.18         37.6964
   606.32         37.6709
   606.46         37.6310
   606.60         37.5851
   606.74         37.5375
   606.88         37.4923
   607.02         37.4507
   607.16         37.4108
   607.30         37.3691
   607.44         37.3214
   607.58         37.2654
   607.72         37.2029
   607.86         37.1389
   608.00         37.0802
   608.14         37.0311
   608.28         36.9931
   608.42         36.9674
   608.56         36.9563
   608.70         36.9597
   608.84         36.9729
   608.98         36.9887
   609.12         37.0005
   609.26         37.0047
   609.40         36.9985
   609.54         36.9787
   609.68         36.9441
   609.82         36.8985
   609.96         36.8503
   610.10         36.8087
   610.24         36.7816
   610.38         36.7743
   610.52         36.7882
   610.66         36.8213
   610.80         36.8691
   610.94         36.9283
   611.08         36.9964
   611.22         37.0687
   611.36         37.1378
   611.50         37.1960
   611.64         37.2376
   611.78         37.2592
   611.92         37.2588
   612.06         37.2350
   612.20         37.1889
   612.34         37.1255
   612.48         37.0508
   612.62         36.9691
   612.76         36.8837
   612.90         36.7987
   613.04         36.7189
   613.18         36.6476
   613.32         36.5841
   613.46         36.5248
   613.60         36.4657
   613.74         36.4043
   613.88         36.3411
   614.02         36.2785
   614.16         36.2199
   614.30         36.1676
   614.44         36.1242
   614.58         36.0918
   614.72         36.0702
   614.86         36.0565
   615.00         36.0471
   615.14         36.0389
   615.28         36.0294
   615.42         36.0190
   615.56         36.0090
   615.70         35.9975
   615.84         35.9808
   615.98         35.9550
   616.12         35.9191
   616.26         35.8744
   616.40         35.8219
   616.54         35.7594
   616.68         35.6840
   616.82         35.5944
   616.96         35.4918
   617.10         35.3800
   617.24         35.2633
   617.38         35.1462
   617.52         35.0347
   617.66         34.9361
   617.80         34.8575
   617.94         34.8042
   618.08         34.7779
   618.22         34.7748
   618.36         34.7875
   618.50         34.8101
   618.64         34.8399
   618.78         34.8775
   618.92         34.9229
   619.06         34.9722
   619.20         35.0196
   619.34         35.0624
   619.48         35.1021
   619.62         35.1416
   619.76         35.1841
   619.90         35.2330
   620.04         35.2919
   620.18         35.3618
   620.32         35.4407
   620.46         35.5251
   620.60         35.6072
   620.74         35.6769
   620.88         35.7260
   621.02         35.7493
   621.16         35.7450
   621.30         35.7139
   621.44         35.6571
   621.58         35.5749
   621.72         35.4710
   621.86         35.3544
   622.00         35.2386
   622.14         35.1353
   622.28         35.0484
   622.42         34.9755
   622.56         34.9104
   622.70         34.8454
   622.84         34.7752
   622.98         34.6995
   623.12         34.6211
   623.26         34.5422
   623.40         34.4637
   623.54         34.3868
   623.68         34.3138
   623.82         34.2491
   623.96         34.1984
   624.10         34.1674
   624.24         34.1617
   624.38         34.1866
   624.52         34.2440
   624.66         34.3312
   624.80         34.4412
   624.94         34.5642
   625.08         34.6917
   625.22         34.8171
   625.36         34.9342
   625.50         35.0368
   625.64         35.1163
   625.78         35.1613
   625.92         35.1624
   626.06         35.1184
   626.20         35.0364
   626.34         34.9262
   626.48         34.7951
   626.62         34.6459
   626.76         34.4764
   626.90         34.2803
   627.04         34.0496
   627.18         33.7758
   627.32         33.4547
   627.46         33.0927
   627.60         32.7070
   627.74         32.3220
   627.88         31.9634
   628.02         31.6545
   628.16         31.4156
   628.30         31.2624
   628.44         31.2048
   628.58         31.2449
   628.72         31.3764
   628.86         31.5839
   629.00         31.8454
   629.14         32.1361
   629.28         32.4310
   629.42         32.7065
   629.56         32.9459
   629.70         33.1410
   629.84         33.2908
   629.98         33.4006
   630.12         33.4790
   630.26         33.5327
   630.40         33.5635
   630.54         33.5700
   630.68         33.5507
   630.82         33.5073
   630.96         33.4433
   631.10         33.3634
   631.24         33.2756
   631.38         33.1904
   631.52         33.1175
   631.66         33.0637
   631.80         33.0341
   631.94         33.0310
   632.08         33.0552
   632.22         33.1064
   632.36         33.1811
   632.50         33.2697
   632.64         33.3590
   632.78         33.4375
   632.92         33.4952
   633.06         33.5221
   633.20         33.5076
   633.34         33.4447
   633.48         33.3331
   633.62         33.1809
   633.76         33.0050
   633.90         32.8268
   634.04         32.6657
   634.18         32.5375
   634.32         32.4545
   634.46         32.4220
   634.60         32.4363
   634.74         32.4889
   634.88         32.5700
   635.02         32.6668
   635.16         32.7630
   635.30         32.8452
   635.44         32.9052
   635.58         32.9344
   635.72         32.9238
   635.86         32.8708
   636.00         32.7834
   636.14         32.6785
   636.28         32.5739
   636.42         32.4820
   636.56         32.4083
   636.70         32.3542
   636.84         32.3197
   636.98         32.3033
   637.12         32.3031
   637.26         32.3184
   637.40         32.3503
   637.54         32.3984
   637.68         32.4578
   637.82         32.5238
   637.96         32.5957
   638.10         32.6730
   638.24         32.7515
   638.38         32.8277
   638.52         32.9011
   638.66         32.9713
   638.80         33.0346
   638.94         33.0844
   639.08         33.1146
   639.22         33.1233
   639.36         33.1114
   639.50         33.0819
   639.64         33.0403
   639.78         32.9934
   639.92         32.9462
   640.06         32.9017
   640.20         32.8615
   640.34         32.8265
   640.48         32.7962
   640.62         32.7690
   640.76         32.7422
   640.90         32.7140
   641.04         32.6845
   641.18         32.6554
   641.32         32.6298
   641.46         32.6123
   641.60         32.6072
   641.74         32.6161
   641.88         32.6384
   642.02         32.6707
   642.16         32.7091
   642.30         32.7493
   642.44         32.7871
   642.58         32.8161
   642.72         32.8280
   642.86         32.8163
   643.00         32.7770
   643.14         32.7100
   643.28         32.6193
   643.42         32.5105
   643.56         32.3894
   643.70         32.2604
   643.84         32.1278
   643.98         31.9964
   644.12         31.8682
   644.26         31.7419
   644.40         31.6157
   644.54         31.4904
   644.68         31.3714
   644.82         31.2669
   644.96         31.1848
   645.10         31.1294
   645.24         31.1009
   645.38         31.0985
   645.52         31.1225
   645.66         31.1723
   645.80         31.2440
   645.94         31.3302
   646.08         31.4229
   646.22         31.5153
   646.36         31.6022
   646.50         31.6814
   646.64         31.7519
   646.78         31.8126
   646.92         31.8619
   647.06         31.8985
   647.20         31.9216
   647.34         31.9305
   647.48         31.9234
   647.62         31.8988
   647.76         31.8561
   647.90         31.7970
   648.04         31.7260
   648.18         31.6506
   648.32         31.5789
   648.46         31.5192
   648.60         31.4794
   648.74         31.4657
   648.88         31.4812
   649.02         31.5257
   649.16         31.5963
   649.30         31.6866
   649.44         31.7859
   649.58         31.8817
   649.72         31.9648
   649.86         32.0309
   650.00         32.0793
   650.14         32.1112
   650.28         32.1277
   650.42         32.1295
   650.56         32.1203
   650.70         32.1073
   650.84         32.0983
   650.98         32.0991
   651.12         32.1124
   651.26         32.1388
   651.40         32.1780
   651.54         32.2284
   651.68         32.2859
   651.82         32.3452
   651.96         32.3991
   652.10         32.4404
   652.24         32.4645
   652.38         32.4697
   652.52         32.4556
   652.66         32.4217
   652.80         32.3692
   652.94         32.3008
   653.08         32.2198
   653.22         32.1282
   653.36         32.0262
   653.50         31.9133
   653.64         31.7884
   653.78         31.6492
   653.92         31.4939
   654.06         31.3192
   654.20         31.1198
   654.34         30.8884
   654.48         30.6157
   654.62         30.2893
   654.76         29.8921
   654.90         29.4040
   655.04         28.8103
   655.18         28.1106
   655.32         27.3258
   655.46         26.4963
   655.60         25.6754
   655.74         24.9236
   655.88         24.3015
   656.02         23.8618
   656.16         23.6429
   656.30         23.6623
   656.44         23.9163
   656.58         24.3820
   656.72         25.0193
   656.86         25.7752
   657.00         26.5905
   657.14         27.4056
   657.28         28.1668
   657.42         28.8333
   657.56         29.3844
   657.70         29.8221
   657.84         30.1631
   657.98         30.4300
   658.12         30.6424
   658.26         30.8146
   658.40         30.9560
   658.54         31.0723
   658.68         31.1673
   658.82         31.2439
   658.96         31.3028
   659.10         31.3424
   659.24         31.3605
   659.38         31.3564
   659.52         31.3307
   659.66         31.2847
   659.80         31.2196
   659.94         31.1365
   660.08         31.0363
   660.22         30.9216
   660.36         30.7984
   660.50         30.6759
   660.64         30.5640
   660.78         30.4710
   660.92         30.4011
   661.06         30.3549
   661.20         30.3295
   661.34         30.3199
   661.48         30.3208
   661.62         30.3272
   661.76         30.3350
   661.90         30.3420
   662.04         30.3480
   662.18         30.3541
   662.32         30.3596
   662.46         30.3630
   662.60         30.3637
   662.74         30.3629
   662.88         30.3632
   663.02         30.3672
   663.16         30.3742
   663.30         30.3801
   663.44         30.3795
   663.58         30.3689
   663.72         30.3487
   663.86         30.3222
   664.00         30.2927
   664.14         30.2629
   664.28         30.2357
   664.42         30.2135
   664.56         30.1963
   664.70         30.1834
   664.84         30.1721
   664.98         30.1566
   665.12         30.1326
   665.26         30.0982
   665.40         30.0517
   665.54         29.9927
   665.68         29.9229
   665.82         29.8457
   665.96         29.7633
   666.10         29.6770
   666.24         29.5876
   666.38         29.4949
   666.52         29.3979
   666.66         29.2964
   666.80         29.1945
   666.94         29.0989
   667.08         29.0146
   667.22         28.9446
   667.36         28.8917
   667.50         28.8580
   667.64         28.8432
   667.78         28.8465
   667.92         28.8649
   668.06         28.8947
   668.20         28.9318
   668.34         28.9704
   668.48         29.0040
   668.62         29.0272
   668.76         29.0375
   668.90         29.0350
   669.04         29.0225
   669.18         29.0041
   669.32         28.9837
   669.46         28.9639
   669.60         28.9452
   669.74         28.9259
   669.88         28.9046
   670.02         28.8823
   670.16         28.8608
   670.30         28.8419
   670.44         28.8271
   670.58         28.8160
   670.72         28.8064
   670.86         28.7972
   671.00         28.7893
   671.14         28.7851
   671.28         28.7870
   671.42         28.7965
   671.56         28.8146
   671.70         28.8405
   671.84         28.8702
   671.98         28.8968
   672.12         28.9139
   672.26         28.9168
   672.40         28.9039
   672.54         28.8769
   672.68         28.8387
   672.82         28.7916
   672.96         28.7373
   673.10         28.6788
   673.24         28.6207
   673.38         28.5706
   673.52         28.5362
   673.66         28.5209
   673.80         28.5234
   673.94         28.5403
   674.08         28.5664
   674.22         28.5950
   674.36         28.6186
   674.50         28.6323
   674.64         28.6345
   674.78         28.6274
   674.92         28.6173
   675.06         28.6119
   675.20         28.6164
   675.34         28.6315
   675.48         28.6535
   675.62         28.6768
   675.76         28.6966
   675.90         28.7095
   676.04         28.7124
   676.18         28.7016
   676.32         28.6735
   676.46         28.6270
   676.60         28.5635
   676.74         28.4874
   676.88         28.4052
   677.02         28.3241
   677.16         28.2504
   677.30         28.1878
   677.44         28.1389
   677.58         28.1053
   677.72         28.0851
   677.86         28.0754
   678.00         28.0733
   678.14         28.0765
   678.28         28.0838
   678.42         28.0938
   678.56         28.1051
   678.70         28.1163
   678.84         28.1256
   678.98         28.1318
   679.12         28.1347
   679.26         28.1353
   679.40         28.1360
   679.54         28.1367
   679.68         28.1357
   679.82         28.1313
   679.96         28.1235
   680.10         28.1127
   680.24         28.0992
   680.38         28.0834
   680.52         28.0670
   680.66         28.0512
   680.80         28.0369
   680.94         28.0243
   681.08         28.0130
   681.22         28.0016
   681.36         27.9871
   681.50         27.9654
   681.64         27.9340
   681.78         27.8930
   681.92         27.8449
   682.06         27.7920
   682.20         27.7359
   682.34         27.6781
   682.48         27.6197
   682.62         27.5611
   682.76         27.5024
   682.90         27.4439
   683.04         27.3860
   683.18         27.3304
   683.32         27.2790
   683.46         27.2319
   683.60         27.1868
   683.74         27.1419
   683.88         27.0973
   684.02         27.0560
   684.16         27.0223
   684.30         27.0001
   684.44         26.9912
   684.58         26.9948
   684.72         27.0069
   684.86         27.0210
   685.00         27.0313
   685.14         27.0330
   685.28         27.0211
   685.42         26.9862
   685.56         26.9096
   685.70         26.7671
   685.84         26.5364
   685.98         26.2033
   686.12         25.7640
   686.26         25.2273
   686.40         24.6162
   686.54         23.9650
   686.68         23.3145
   686.82         22.7087
   686.96         22.1903
   687.10         21.7947
   687.24         21.5445
   687.38         21.4466
   687.52         21.4935
   687.66         21.6627
   687.80         21.9170
   687.94         22.2121
   688.08         22.5045
   688.22         22.7595
   688.36         22.9577
   688.50         23.0957
   688.64         23.1810
   688.78         23.2261
   688.92         23.2451
   689.06         23.2535
   689.20         23.2669
   689.34         23.2977
   689.48         23.3531
   689.62         23.4335
   689.76         23.5337
   689.90         23.6468
   690.04         23.7661
   690.18         23.8866
   690.32         24.0051
   690.46         24.1209
   690.60         24.2350
   690.74         24.3484
   690.88         24.4607
   691.02         24.5705
   691.16         24.6765
   691.30         24.7791
   691.44         24.8797
   691.58         24.9794
   691.72         25.0779
   691.86         25.1721
   692.00         25.2585
   692.14         25.3340
   692.28         25.3946
   692.42         25.4362
   692.56         25.4556
   692.70         25.4503
   692.84         25.4196
   692.98         25.3652
   693.12         25.2914
   693.26         25.2045
   693.40         25.1126
   693.54         25.0256
   693.68         24.9531
   693.82         24.9028
   693.96         24.8808
   694.10         24.8895
   694.24         24.9265
   694.38         24.9851
   694.52         25.0585
   694.66         25.1408
   694.80         25.2237
   694.94         25.2981
   695.08         25.3573
   695.22         25.3985
   695.36         25.4229
   695.50         25.4341
   695.64         25.4389
   695.78         25.4457
   695.92         25.4610
   696.06         25.4884
   696.20         25.5304
   696.34         25.5878
   696.48         25.6593
   696.62         25.7402
   696.76         25.8242
   696.90         25.9043
   697.04         25.9737
   697.18         26.0277
   697.32         26.0628
   697.46         26.0752
   697.60         26.0611
   697.74         26.0193
   697.88         25.9517
   698.02         25.8641
   698.16         25.7647
   698.30         25.6624
   698.44         25.5640
   698.58         25.4737
   698.72         25.3938
   698.86         25.3253
   699.00         25.2668
   699.14         25.2145
   699.28         25.1650
   699.42         25.1179
   699.56         25.0731
   699.70         25.0294
   699.84         24.9863
   699.98         24.9452
   700.12         24.9085
   700.26         24.8788
   700.40         24.8592
   700.54         24.8533
   700.68         24.8625
   700.82         24.8851
   700.96         24.9170
   701.10         24.9530
   701.24         24.9877
   701.38         25.0169
   701.52         25.0383
   701.66         25.0510
   701.80         25.0560
   701.94         25.0569
   702.08         25.0576
   702.22         25.0601
   702.36         25.0655
   702.50         25.0755
   702.64         25.0902
   702.78         25.1082
   702.92         25.1278
   703.06         25.1493
   703.20         25.1750
   703.34         25.2075
   703.48         25.2488
   703.62         25.2997
   703.76         25.3597
   703.90         25.4260
   704.04         25.4950
   704.18         25.5613
   704.32         25.6204
   704.46         25.6683
   704.60         25.7015
   704.74         25.7179
   704.88         25.7158
   705.02         25.6949
   705.16         25.6562
   705.30         25.6010
   705.44         25.5324
   705.58         25.4548
   705.72         25.3733
   705.86         25.2930
   706.00         25.2183
   706.14         25.1519
   706.28         25.0945
   706.42         25.0452
   706.56         25.0042
   706.70         24.9738
   706.84         24.9587
   706.98         24.9634
   707.12         24.9870
   707.26         25.0251
   707.40         25.0741
   707.54         25.1299
   707.68         25.1883
   707.82         25.2450
   707.96         25.2961
   708.10         25.3389
   708.24         25.3715
   708.38         25.3915
   708.52         25.3957
   708.66         25.3805
   708.80         25.3433
   708.94         25.2851
   709.08         25.2124
   709.22         25.1335
   709.36         25.0547
   709.50         24.9800
   709.64         24.9109
   709.78         24.8470
   709.92         24.7910
   710.06         24.7493
   710.20         24.7262
   710.34         24.7227
   710.48         24.7389
   710.62         24.7742
   710.76         24.8264
   710.90         24.8920
   711.04         24.9673
   711.18         25.0481
   711.32         25.1309
   711.46         25.2140
   711.60         25.2967
   711.74         25.3754
   711.88         25.4429
   712.02         25.4919
   712.16         25.5174
   712.30         25.5169
   712.44         25.4903
   712.58         25.4415
   712.72         25.3783
   712.86         25.3073
   713.00         25.2347
   713.14         25.1673
   713.28         25.1109
   713.42         25.0681
   713.56         25.0404
   713.70         25.0303
   713.84         25.0394
   713.98         25.0655
   714.12         25.1027
   714.26         25.1439
   714.40         25.1824
   714.54         25.2153
   714.68         25.2423
   714.82         25.2623
   714.96         25.2723
   715.10         25.2700
   715.24         25.2548
   715.38         25.2270
   715.52         25.1844
   715.66         25.1262
   715.80         25.0543
   715.94         24.9705
   716.08         24.8755
   716.22         24.7706
   716.36         24.6577
   716.50         24.5396
   716.64         24.4209
   716.78         24.3082
   716.92         24.2089
   717.06         24.1277
   717.20         24.0638
   717.34         24.0072
   717.48         23.9454
   717.62         23.8714
   717.76         23.7844
   717.90         23.6845
   718.04         23.5704
   718.18         23.4431
   718.32         23.3109
   718.46         23.1858
   718.60         23.0779
   718.74         22.9927
   718.88         22.9319
   719.02         22.8972
   719.16         22.8899
   719.30         22.9066
   719.44         22.9404
   719.58         22.9831
   719.72         23.0277
   719.86         23.0707
   720.00         23.1149
   720.14         23.1694
   720.28         23.2422
   720.42         23.3347
   720.56         23.4433
   720.70         23.5643
   720.84         23.6946
   720.98         23.8272
   721.12         23.9468
   721.26         24.0362
   721.40         24.0858
   721.54         24.0945
   721.68         24.0649
   721.82         24.0018
   721.96         23.9129
   722.10         23.8075
   722.24         23.6934
   722.38         23.5765
   722.52         23.4627
   722.66         23.3566
   722.80         23.2586
   722.94         23.1672
   723.08         23.0806
   723.22         22.9986
   723.36         22.9212
   723.50         22.8484
   723.64         22.7799
   723.78         22.7147
   723.92         22.6547
   724.06         22.6017
   724.20         22.5522
   724.34         22.5044
   724.48         22.4635
   724.62         22.4354
   724.76         22.4196
   724.90         22.4120
   725.04         22.4089
   725.18         22.4077
   725.32         22.4057
   725.46         22.4007
   725.60         22.3922
   725.74         22.3832
   725.88         22.3779
   726.02         22.3786
   726.16         22.3854
   726.30         22.3965
   726.44         22.4076
   726.58         22.4145
   726.72         22.4167
   726.86         22.4172
   727.00         22.4203
   727.14         22.4279
   727.28         22.4368
   727.42         22.4419
   727.56         22.4417
   727.70         22.4370
   727.84         22.4289
   727.98         22.4192
   728.12         22.4090
   728.26         22.3979
   728.40         22.3834
   728.54         22.3610
   728.68         22.3268
   728.82         22.2805
   728.96         22.2237
   729.10         22.1585
   729.24         22.0899
   729.38         22.0255
   729.52         21.9708
   729.66         21.9259
   729.80         21.8867
   729.94         21.8481
   730.08         21.8066
   730.22         21.7614
   730.36         21.7118
   730.50         21.6590
   730.64         21.6058
   730.78         21.5569
   730.92         21.5173
   731.06         21.4933
   731.20         21.4893
   731.34         21.5044
   731.48         21.5340
   731.62         21.5716
   731.76         21.6085
   731.90         21.6374
   732.04         21.6532
   732.18         21.6515
   732.32         21.6307
   732.46         21.5937
   732.60         21.5471
   732.74         21.4989
   732.88         21.4553
   733.02         21.4197
   733.16         21.3939
   733.30         21.3790
   733.44         21.3751
   733.58         21.3805
   733.72         21.3908
   733.86         21.3993
   734.00         21.4022
   734.14         21.4014
   734.28         21.3992
   734.42         21.3968
   734.56         21.3971
   734.70         21.4051
   734.84         21.4261
   734.98         21.4625
   735.12         21.5118
   735.26         21.5683
   735.40         21.6233
   735.54         21.6676
   735.68         21.6941
   735.82         21.6987
   735.96         21.6783
   736.10         21.6305
   736.24         21.5560
   736.38         21.4603
   736.52         21.3543
   736.66         21.2514
   736.80         21.1622
   736.94         21.0914
   737.08         21.0404
   737.22         21.0102
   737.36         20.9998
   737.50         21.0051
   737.64         21.0198
   737.78         21.0384
   737.92         21.0558
   738.06         21.0673
   738.20         21.0683
   738.34         21.0535
   738.48         21.0181
   738.62         20.9607
   738.76         20.8878
   738.90         20.8112
   739.04         20.7439
   739.18         20.6979
   739.32         20.6805
   739.46         20.6931
   739.60         20.7324
   739.74         20.7916
   739.88         20.8617
   740.02         20.9325
   740.16         20.9950
   740.30         21.0421
   740.44         21.0704
   740.58         21.0803
   740.72         21.0762
   740.86         21.0664
   741.00         21.0613
   741.14         21.0725
   741.28         21.1076
   741.42         21.1663
   741.56         21.2411
   741.70         21.3199
   741.84         21.3893
   741.98         21.4365
   742.12         21.4545
   742.26         21.4433
   742.40         21.4089
   742.54         21.3629
   742.68         21.3201
   742.82         21.2945
   742.96         21.2945
   743.10         21.3201
   743.24         21.3629
   743.38         21.4089
   743.52         21.4433
   743.66         21.4545
   743.80         21.4365
   743.94         21.3893
   744.08         21.3199
   744.22         21.2411
