# File HD20023
# Wavelength [nm]    Normalized Amplitude
   349.70         45.5338
   349.84         45.3216
   349.98         45.1151
   350.12         44.9351
   350.26         44.7967
   350.40         44.7022
   350.54         44.6427
   350.68         44.6098
   350.82         44.5985
   350.96         44.5994
   351.10         44.6014
   351.24         44.5994
   351.38         44.5985
   351.52         44.6098
   351.66         44.6427
   351.80         44.7022
   351.94         44.7967
   352.08         44.9351
   352.22         45.1151
   352.36         45.3216
   352.50         45.5338
   352.64         45.7345
   352.78         45.9080
   352.92         46.0351
   353.06         46.0953
   353.20         46.0716
   353.34         45.9581
   353.48         45.7594
   353.62         45.4896
   353.76         45.1703
   353.90         44.8280
   354.04         44.4882
   354.18         44.1722
   354.32         43.8979
   354.46         43.6834
   354.60         43.5448
   354.74         43.4860
   354.88         43.4983
   355.02         43.5707
   355.16         43.6909
   355.30         43.8416
   355.44         44.0024
   355.58         44.1585
   355.72         44.3013
   355.86         44.4288
   356.00         44.5446
   356.14         44.6502
   356.28         44.7417
   356.42         44.8134
   356.56         44.8643
   356.70         44.9068
   356.84         44.9560
   356.98         45.0125
   357.12         45.0639
   357.26         45.0934
   357.40         45.0823
   357.54         45.0161
   357.68         44.8875
   357.82         44.6968
   357.96         44.4551
   358.10         44.1854
   358.24         43.9150
   358.38         43.6627
   358.52         43.4386
   358.66         43.2507
   358.80         43.1028
   358.94         42.9969
   359.08         42.9377
   359.22         42.9284
   359.36         42.9624
   359.50         43.0208
   359.64         43.0834
   359.78         43.1384
   359.92         43.1803
   360.06         43.2100
   360.20         43.2355
   360.34         43.2681
   360.48         43.3179
   360.62         43.3921
   360.76         43.4895
   360.90         43.6008
   361.04         43.7112
   361.18         43.8068
   361.32         43.8802
   361.46         43.9305
   361.60         43.9621
   361.74         43.9823
   361.88         43.9942
   362.02         43.9960
   362.16         43.9836
   362.30         43.9528
   362.44         43.9021
   362.58         43.8351
   362.72         43.7593
   362.86         43.6833
   363.00         43.6122
   363.14         43.5430
   363.28         43.4669
   363.42         43.3773
   363.56         43.2719
   363.70         43.1500
   363.84         43.0147
   363.98         42.8739
   364.12         42.7362
   364.26         42.6046
   364.40         42.4766
   364.54         42.3501
   364.68         42.2289
   364.82         42.1241
   364.96         42.0480
   365.10         42.0033
   365.24         41.9836
   365.38         41.9823
   365.52         41.9951
   365.66         42.0137
   365.80         42.0229
   365.94         42.0126
   366.08         41.9832
   366.22         41.9401
   366.36         41.8909
   366.50         41.8431
   366.64         41.8008
   366.78         41.7624
   366.92         41.7227
   367.06         41.6779
   367.20         41.6256
   367.34         41.5627
   367.48         41.4870
   367.62         41.3982
   367.76         41.3003
   367.90         41.2024
   368.04         41.1156
   368.18         41.0478
   368.32         41.0025
   368.46         40.9799
   368.60         40.9830
   368.74         41.0163
   368.88         41.0829
   369.02         41.1835
   369.16         41.3144
   369.30         41.4688
   369.44         41.6404
   369.58         41.8255
   369.72         42.0199
   369.86         42.2158
   370.00         42.4017
   370.14         42.5655
   370.28         42.6992
   370.42         42.8028
   370.56         42.8840
   370.70         42.9513
   370.84         43.0046
   370.98         43.0338
   371.12         43.0291
   371.26         42.9924
   371.40         42.9413
   371.54         42.9104
   371.68         42.9461
   371.82         43.0882
   371.96         43.3550
   372.10         43.7367
   372.24         44.1930
   372.38         44.6615
   372.52         45.0823
   372.66         45.4241
   372.80         45.6957
   372.94         45.9408
   373.08         46.2213
   373.22         46.5930
   373.36         47.0851
   373.50         47.6937
   373.64         48.3867
   373.78         49.1068
   373.92         49.7789
   374.06         50.3316
   374.20         50.7156
   374.34         50.9090
   374.48         50.9190
   374.62         50.7899
   374.76         50.6100
   374.90         50.5031
   375.04         50.6103
   375.18         51.0585
   375.32         51.9203
   375.46         53.1836
   375.60         54.7421
   375.74         56.4015
   375.88         57.9090
   376.02         59.0088
   376.16         59.5077
   376.30         59.3289
   376.44         58.5367
   376.58         57.3230
   376.72         55.9656
   376.86         54.7729
   377.00         54.0351
   377.14         53.9835
   377.28         54.7581
   377.42         56.3917
   377.56         58.8086
   377.70         61.8317
   377.84         65.2015
   377.98         68.6078
   378.12         71.7240
   378.26         74.2395
   378.40         75.8953
   378.54         76.5169
   378.68         76.0362
   378.82         74.5040
   378.96         72.0853
   379.10         69.0322
   379.24         65.6524
   379.38         62.2909
   379.52         59.2969
   379.66         56.9819
   379.80         55.5891
   379.94         55.2762
   380.08         56.1147
   380.22         58.0835
   380.36         61.0590
   380.50         64.8266
   380.64         69.1088
   380.78         73.5908
   380.92         77.9546
   381.06         81.9235
   381.20         85.2884
   381.34         87.9161
   381.48         89.7442
   381.62         90.7685
   381.76         91.0185
   381.90         90.5309
   382.04         89.3331
   382.18         87.4403
   382.32         84.8694
   382.46         81.6677
   382.60         77.9336
   382.74         73.8230
   382.88         69.5403
   383.02         65.3250
   383.16         61.4427
   383.30         58.1619
   383.44         55.7240
   383.58         54.3224
   383.72         54.0808
   383.86         55.0278
   384.00         57.0912
   384.14         60.1153
   384.28         63.8800
   384.42         68.1185
   384.56         72.5450
   384.70         76.8914
   384.84         80.9356
   384.98         84.5215
   385.12         87.5690
   385.26         90.0675
   385.40         92.0561
   385.54         93.6034
   385.68         94.7851
   385.82         95.6698
   385.96         96.3162
   386.10         96.7704
   386.24         97.0579
   386.38         97.1783
   386.52         97.1163
   386.66         96.8550
   386.80         96.3705
   386.94         95.6241
   387.08         94.5645
   387.22         93.1341
   387.36         91.2737
   387.50         88.9299
   387.64         86.0690
   387.78         82.6912
   387.92         78.8478
   388.06         74.6536
   388.20         70.2834
   388.34         65.9588
   388.48         61.9332
   388.62         58.4683
   388.76         55.8003
   388.90         54.1139
   389.04         53.5321
   389.18         54.1083
   389.32         55.8081
   389.46         58.5042
   389.60         61.9964
   389.74         66.0373
   389.88         70.3589
   390.02         74.7013
   390.16         78.8378
   390.30         82.5974
   390.44         85.8780
   390.58         88.6468
   390.72         90.9252
   390.86         92.7644
   391.00         94.2270
   391.14         95.3774
   391.28         96.2769
   391.42         96.9799
   391.56         97.5329
   391.70         97.9730
   391.84         98.3242
   391.98         98.5902
   392.12         98.7575
   392.26         98.8041
   392.40         98.7118
   392.54         98.4764
   392.68         98.1109
   392.82         97.6457
   392.96         97.1255
   393.10         96.5983
   393.24         96.1043
   393.38         95.6704
   393.52         95.3085
   393.66         95.0204
   393.80         94.8003
   393.94         94.6337
   394.08         94.4949
   394.22         94.3466
   394.36         94.1422
   394.50         93.8265
   394.64         93.3450
   394.78         92.6589
   394.92         91.7484
   395.06         90.6020
   395.20         89.2024
   395.34         87.5203
   395.48         85.5132
   395.62         83.1255
   395.76         80.3022
   395.90         77.0189
   396.04         73.3089
   396.18         69.2770
   396.32         65.0981
   396.46         60.9982
   396.60         57.2311
   396.74         54.0497
   396.88         51.6763
   397.02         50.2784
   397.16         49.9535
   397.30         50.7221
   397.44         52.5242
   397.58         55.2180
   397.72         58.5931
   397.86         62.3988
   398.00         66.3778
   398.14         70.2942
   398.28         73.9578
   398.42         77.2455
   398.56         80.1058
   398.70         82.5398
   398.84         84.5771
   398.98         86.2583
   399.12         87.6237
   399.26         88.7105
   399.40         89.5512
   399.54         90.1740
   399.68         90.6061
   399.82         90.8781
   399.96         91.0268
   400.10         91.0887
   400.24         91.0938
   400.38         91.0669
   400.52         91.0305
   400.66         91.0029
   400.80         90.9945
   400.94         91.0069
   401.08         91.0321
   401.22         91.0467
   401.36         91.0165
   401.50         90.9127
   401.64         90.7235
   401.78         90.4586
   401.92         90.1431
   402.06         89.8057
   402.20         89.4719
   402.34         89.1609
   402.48         88.8871
   402.62         88.6627
   402.76         88.4948
   402.90         88.3867
   403.04         88.3365
   403.18         88.3345
   403.32         88.3647
   403.46         88.4060
   403.60         88.4350
   403.74         88.4322
   403.88         88.3872
   404.02         88.3047
   404.16         88.1988
   404.30         88.0824
   404.44         87.9623
   404.58         87.8365
   404.72         87.6965
   404.86         87.5344
   405.00         87.3468
   405.14         87.1383
   405.28         86.9163
   405.42         86.6829
   405.56         86.4362
   405.70         86.1751
   405.84         85.8993
   405.98         85.6128
   406.12         85.3243
   406.26         85.0444
   406.40         84.7834
   406.54         84.5468
   406.68         84.3321
   406.82         84.1293
   406.96         83.9286
   407.10         83.7217
   407.24         83.4964
   407.38         83.2347
   407.52         82.9144
   407.66         82.5118
   407.80         81.9998
   407.94         81.3476
   408.08         80.5249
   408.22         79.5032
   408.36         78.2537
   408.50         76.7408
   408.64         74.9249
   408.78         72.7656
   408.92         70.2307
   409.06         67.3185
   409.20         64.0752
   409.34         60.6024
   409.48         57.0534
   409.62         53.6171
   409.76         50.4976
   409.90         47.8942
   410.04         45.9834
   410.18         44.9001
   410.32         44.7203
   410.46         45.4504
   410.60         47.0277
   410.74         49.3273
   410.88         52.1768
   411.02         55.3729
   411.16         58.7031
   411.30         61.9707
   411.44         65.0190
   411.58         67.7428
   411.72         70.0885
   411.86         72.0437
   412.00         73.6279
   412.14         74.8834
   412.28         75.8643
   412.42         76.6254
   412.56         77.2181
   412.70         77.6914
   412.84         78.0885
   412.98         78.4411
   413.12         78.7691
   413.26         79.0830
   413.40         79.3868
   413.54         79.6791
   413.68         79.9536
   413.82         80.2018
   413.96         80.4162
   414.10         80.5909
   414.24         80.7207
   414.38         80.8025
   414.52         80.8417
   414.66         80.8528
   414.80         80.8501
   414.94         80.8390
   415.08         80.8194
   415.22         80.7921
   415.36         80.7595
   415.50         80.7245
   415.64         80.6901
   415.78         80.6606
   415.92         80.6417
   416.06         80.6368
   416.20         80.6433
   416.34         80.6524
   416.48         80.6529
   416.62         80.6328
   416.76         80.5812
   416.90         80.4886
   417.04         80.3473
   417.18         80.1585
   417.32         79.9332
   417.46         79.6872
   417.60         79.4379
   417.74         79.2027
   417.88         78.9963
   418.02         78.8284
   418.16         78.7042
   418.30         78.6240
   418.44         78.5802
   418.58         78.5581
   418.72         78.5392
   418.86         78.5055
   419.00         78.4445
   419.14         78.3519
   419.28         78.2297
   419.42         78.0844
   419.56         77.9248
   419.70         77.7605
   419.84         77.6032
   419.98         77.4648
   420.12         77.3524
   420.26         77.2677
   420.40         77.2096
   420.54         77.1750
   420.68         77.1596
   420.82         77.1582
   420.96         77.1634
   421.10         77.1635
   421.24         77.1470
   421.38         77.1058
   421.52         77.0344
   421.66         76.9312
   421.80         76.8000
   421.94         76.6466
   422.08         76.4750
   422.22         76.2867
   422.36         76.0854
   422.50         75.8795
   422.64         75.6786
   422.78         75.4906
   422.92         75.3220
   423.06         75.1769
   423.20         75.0557
   423.34         74.9563
   423.48         74.8749
   423.62         74.8050
   423.76         74.7384
   423.90         74.6668
   424.04         74.5831
   424.18         74.4837
   424.32         74.3725
   424.46         74.2589
   424.60         74.1509
   424.74         74.0509
   424.88         73.9564
   425.02         73.8637
   425.16         73.7692
   425.30         73.6696
   425.44         73.5614
   425.58         73.4389
   425.72         73.2965
   425.86         73.1328
   426.00         72.9511
   426.14         72.7585
   426.28         72.5672
   426.42         72.3927
   426.56         72.2516
   426.70         72.1587
   426.84         72.1232
   426.98         72.1461
   427.12         72.2170
   427.26         72.3159
   427.40         72.4187
   427.54         72.5064
   427.68         72.5680
   427.82         72.5982
   427.96         72.5949
   428.10         72.5584
   428.24         72.4943
   428.38         72.4137
   428.52         72.3274
   428.66         72.2429
   428.80         72.1648
   428.94         72.0944
   429.08         72.0305
   429.22         71.9728
   429.36         71.9191
   429.50         71.8650
   429.64         71.8063
   429.78         71.7401
   429.92         71.6620
   430.06         71.5650
   430.20         71.4429
   430.34         71.2888
   430.48         71.0952
   430.62         70.8564
   430.76         70.5683
   430.90         70.2290
   431.04         69.8378
   431.18         69.3948
   431.32         68.9000
   431.46         68.3555
   431.60         67.7649
   431.74         67.1307
   431.88         66.4472
   432.02         65.6950
   432.16         64.8442
   432.30         63.8573
   432.44         62.6917
   432.58         61.3020
   432.72         59.6462
   432.86         57.6952
   433.00         55.4429
   433.14         52.9211
   433.28         50.2094
   433.42         47.4310
   433.56         44.7398
   433.70         42.3038
   433.84         40.2873
   433.98         38.8313
   434.12         38.0394
   434.26         37.9658
   434.40         38.6082
   434.54         39.9108
   434.68         41.7742
   434.82         44.0651
   434.96         46.6273
   435.10         49.3001
   435.24         51.9376
   435.38         54.4247
   435.52         56.6841
   435.66         58.6763
   435.80         60.3970
   435.94         61.8628
   436.08         63.0980
   436.22         64.1279
   436.36         64.9777
   436.50         65.6720
   436.64         66.2353
   436.78         66.6900
   436.92         67.0531
   437.06         67.3373
   437.20         67.5509
   437.34         67.6954
   437.48         67.7686
   437.62         67.7710
   437.76         67.7101
   437.90         67.6000
   438.04         67.4561
   438.18         67.2916
   438.32         67.1193
   438.46         66.9552
   438.60         66.8160
   438.74         66.7150
   438.88         66.6606
   439.02         66.6528
   439.16         66.6813
   439.30         66.7244
   439.44         66.7543
   439.58         66.7484
   439.72         66.6942
   439.86         66.5859
   440.00         66.4263
   440.14         66.2315
   440.28         66.0247
   440.42         65.8279
   440.56         65.6572
   440.70         65.5245
   440.84         65.4382
   440.98         65.4018
   441.12         65.4124
   441.26         65.4597
   441.40         65.5257
   441.54         65.5879
   441.68         65.6250
   441.82         65.6244
   441.96         65.5819
   442.10         65.4979
   442.24         65.3762
   442.38         65.2234
   442.52         65.0507
   442.66         64.8757
   442.80         64.7172
   442.94         64.5893
   443.08         64.5007
   443.22         64.4570
   443.36         64.4590
   443.50         64.4981
   443.64         64.5580
   443.78         64.6212
   443.92         64.6766
   444.06         64.7188
   444.20         64.7454
   444.34         64.7577
   444.48         64.7575
   444.62         64.7455
   444.76         64.7244
   444.90         64.7024
   445.04         64.6899
   445.18         64.6924
   445.32         64.7070
   445.46         64.7242
   445.60         64.7318
   445.74         64.7176
   445.88         64.6665
   446.02         64.5619
   446.16         64.3957
   446.30         64.1757
   446.44         63.9225
   446.58         63.6576
   446.72         63.3922
   446.86         63.1279
   447.00         62.8623
   447.14         62.5960
   447.28         62.3370
   447.42         62.1002
   447.56         61.9027
   447.70         61.7571
   447.84         61.6690
   447.98         61.6389
   448.12         61.6650
   448.26         61.7436
   448.40         61.8698
   448.54         62.0362
   448.68         62.2359
   448.82         62.4629
   448.96         62.7064
   449.10         62.9501
   449.24         63.1752
   449.38         63.3667
   449.52         63.5165
   449.66         63.6233
   449.80         63.6902
   449.94         63.7223
   450.08         63.7215
   450.22         63.6831
   450.36         63.6016
   450.50         63.4782
   450.64         63.3211
   450.78         63.1408
   450.92         62.9463
   451.06         62.7443
   451.20         62.5411
   451.34         62.3441
   451.48         62.1615
   451.62         62.0016
   451.76         61.8728
   451.90         61.7765
   452.04         61.7059
   452.18         61.6524
   452.32         61.6080
   452.46         61.5663
   452.60         61.5234
   452.74         61.4752
   452.88         61.4158
   453.02         61.3406
   453.16         61.2456
   453.30         61.1272
   453.44         60.9832
   453.58         60.8139
   453.72         60.6242
   453.86         60.4239
   454.00         60.2258
   454.14         60.0400
   454.28         59.8732
   454.42         59.7313
   454.56         59.6173
   454.70         59.5337
   454.84         59.4828
   454.98         59.4633
   455.12         59.4713
   455.26         59.5037
   455.40         59.5572
   455.54         59.6267
   455.68         59.7095
   455.82         59.8043
   455.96         59.9084
   456.10         60.0130
   456.24         60.1049
   456.38         60.1744
   456.52         60.2198
   456.66         60.2410
   456.80         60.2351
   456.94         60.2015
   457.08         60.1414
   457.22         60.0553
   457.36         59.9444
   457.50         59.8125
   457.64         59.6630
   457.78         59.5010
   457.92         59.3351
   458.06         59.1742
   458.20         59.0246
   458.34         58.8900
   458.48         58.7707
   458.62         58.6653
   458.76         58.5722
   458.90         58.4945
   459.04         58.4373
   459.18         58.4012
   459.32         58.3818
   459.46         58.3727
   459.60         58.3639
   459.74         58.3417
   459.88         58.2964
   460.02         58.2252
   460.16         58.1293
   460.30         58.0121
   460.44         57.8797
   460.58         57.7415
   460.72         57.6055
   460.86         57.4778
   461.00         57.3650
   461.14         57.2754
   461.28         57.2187
   461.42         57.2020
   461.56         57.2246
   461.70         57.2776
   461.84         57.3481
   461.98         57.4220
   462.12         57.4814
   462.26         57.5110
   462.40         57.5039
   462.54         57.4607
   462.68         57.3850
   462.82         57.2850
   462.96         57.1711
   463.10         57.0534
   463.24         56.9431
   463.38         56.8523
   463.52         56.7951
   463.66         56.7828
   463.80         56.8156
   463.94         56.8806
   464.08         56.9564
   464.22         57.0208
   464.36         57.0588
   464.50         57.0627
   464.64         57.0299
   464.78         56.9656
   464.92         56.8817
   465.06         56.7934
   465.20         56.7142
   465.34         56.6568
   465.48         56.6325
   465.62         56.6457
   465.76         56.6923
   465.90         56.7620
   466.04         56.8416
   466.18         56.9158
   466.32         56.9677
   466.46         56.9843
   466.60         56.9617
   466.74         56.9040
   466.88         56.8195
   467.02         56.7175
   467.16         56.6065
   467.30         56.4952
   467.44         56.3925
   467.58         56.3020
   467.72         56.2215
   467.86         56.1466
   468.00         56.0709
   468.14         55.9857
   468.28         55.8825
   468.42         55.7538
   468.56         55.5972
   468.70         55.4181
   468.84         55.2244
   468.98         55.0211
   469.12         54.8097
   469.26         54.5913
   469.40         54.3707
   469.54         54.1565
   469.68         53.9603
   469.82         53.7918
   469.96         53.6557
   470.10         53.5524
   470.24         53.4788
   470.38         53.4310
   470.52         53.4061
   470.66         53.3980
   470.80         53.3997
   470.94         53.4066
   471.08         53.4128
   471.22         53.4127
   471.36         53.4017
   471.50         53.3744
   471.64         53.3279
   471.78         53.2649
   471.92         53.1886
   472.06         53.0970
   472.20         52.9879
   472.34         52.8640
   472.48         52.7295
   472.62         52.5883
   472.76         52.4459
   472.90         52.3093
   473.04         52.1873
   473.18         52.0869
   473.32         52.0095
   473.46         51.9531
   473.60         51.9159
   473.74         51.8960
   473.88         51.8909
   474.02         51.8977
   474.16         51.9121
   474.30         51.9278
   474.44         51.9346
   474.58         51.9216
   474.72         51.8861
   474.86         51.8361
   475.00         51.7815
   475.14         51.7262
   475.28         51.6699
   475.42         51.6113
   475.56         51.5488
   475.70         51.4798
   475.84         51.3992
   475.98         51.3027
   476.12         51.1920
   476.26         51.0726
   476.40         50.9498
   476.54         50.8262
   476.68         50.7026
   476.82         50.5810
   476.96         50.4660
   477.10         50.3646
   477.24         50.2834
   477.38         50.2258
   477.52         50.1911
   477.66         50.1734
   477.80         50.1635
   477.94         50.1529
   478.08         50.1368
   478.22         50.1127
   478.36         50.0790
   478.50         50.0332
   478.64         49.9770
   478.78         49.9153
   478.92         49.8530
   479.06         49.7919
   479.20         49.7303
   479.34         49.6682
   479.48         49.6110
   479.62         49.5637
   479.76         49.5271
   479.90         49.4997
   480.04         49.4782
   480.18         49.4578
   480.32         49.4312
   480.46         49.3939
   480.60         49.3477
   480.74         49.2956
   480.88         49.2357
   481.02         49.1637
   481.16         49.0784
   481.30         48.9825
   481.44         48.8766
   481.58         48.7584
   481.72         48.6247
   481.86         48.4754
   482.00         48.3163
   482.14         48.1524
   482.28         47.9843
   482.42         47.8111
   482.56         47.6328
   482.70         47.4511
   482.84         47.2719
   482.98         47.1039
   483.12         46.9566
   483.26         46.8338
   483.40         46.7270
   483.54         46.6197
   483.68         46.4952
   483.82         46.3401
   483.96         46.1375
   484.10         45.8662
   484.24         45.5096
   484.38         45.0534
   484.52         44.4857
   484.66         43.7969
   484.80         42.9784
   484.94         42.0231
   485.08         40.9254
   485.22         39.6826
   485.36         38.2985
   485.50         36.7908
   485.64         35.1962
   485.78         33.5712
   485.92         31.9881
   486.06         30.5284
   486.20         29.2767
   486.34         28.3152
   486.48         27.7101
   486.62         27.5010
   486.76         27.6997
   486.90         28.2902
   487.04         29.2300
   487.18         30.4582
   487.32         31.8995
   487.46         33.4658
   487.60         35.0676
   487.74         36.6272
   487.88         38.0854
   488.02         39.4078
   488.16         40.5840
   488.30         41.6205
   488.44         42.5294
   488.58         43.3199
   488.72         43.9974
   488.86         44.5711
   489.00         45.0524
   489.14         45.4490
   489.28         45.7667
   489.42         46.0143
   489.56         46.2060
   489.70         46.3594
   489.84         46.4903
   489.98         46.6078
   490.12         46.7171
   490.26         46.8236
   490.40         46.9314
   490.54         47.0411
   490.68         47.1533
   490.82         47.2676
   490.96         47.3796
   491.10         47.4814
   491.24         47.5655
   491.38         47.6286
   491.52         47.6689
   491.66         47.6816
   491.80         47.6610
   491.94         47.6059
   492.08         47.5205
   492.22         47.4121
   492.36         47.2903
   492.50         47.1652
   492.64         47.0472
   492.78         46.9473
   492.92         46.8744
   493.06         46.8320
   493.20         46.8192
   493.34         46.8311
   493.48         46.8601
   493.62         46.8975
   493.76         46.9337
   493.90         46.9596
   494.04         46.9662
   494.18         46.9452
   494.32         46.8939
   494.46         46.8182
   494.60         46.7303
   494.74         46.6441
   494.88         46.5716
   495.02         46.5198
   495.16         46.4889
   495.30         46.4739
   495.44         46.4667
   495.58         46.4557
   495.72         46.4303
   495.86         46.3878
   496.00         46.3329
   496.14         46.2710
   496.28         46.2062
   496.42         46.1423
   496.56         46.0825
   496.70         46.0277
   496.84         45.9808
   496.98         45.9476
   497.12         45.9316
   497.26         45.9271
   497.40         45.9219
   497.54         45.9043
   497.68         45.8668
   497.82         45.8066
   497.96         45.7249
   498.10         45.6254
   498.24         45.5155
   498.38         45.4059
   498.52         45.3066
   498.66         45.2223
   498.80         45.1514
   498.94         45.0865
   499.08         45.0130
   499.22         44.9089
   499.36         44.7596
   499.50         44.5669
   499.64         44.3400
   499.78         44.0891
   499.92         43.8271
   500.06         43.5722
   500.20         43.3455
   500.34         43.1658
   500.48         43.0475
   500.62         42.9997
   500.76         43.0239
   500.90         43.1107
   501.04         43.2414
   501.18         43.3915
   501.32         43.5350
   501.46         43.6503
   501.60         43.7238
   501.74         43.7527
   501.88         43.7468
   502.02         43.7251
   502.16         43.7049
   502.30         43.6940
   502.44         43.6957
   502.58         43.7105
   502.72         43.7350
   502.86         43.7617
   503.00         43.7801
   503.14         43.7794
   503.28         43.7503
   503.42         43.6845
   503.56         43.5795
   503.70         43.4402
   503.84         43.2755
   503.98         43.0973
   504.12         42.9206
   504.26         42.7599
   504.40         42.6262
   504.54         42.5244
   504.68         42.4525
   504.82         42.4034
   504.96         42.3670
   505.10         42.3326
   505.24         42.2920
   505.38         42.2423
   505.52         42.1860
   505.66         42.1283
   505.80         42.0738
   505.94         42.0238
   506.08         41.9792
   506.22         41.9432
   506.36         41.9172
   506.50         41.9003
   506.64         41.8902
   506.78         41.8856
   506.92         41.8857
   507.06         41.8901
   507.20         41.8994
   507.34         41.9153
   507.48         41.9410
   507.62         41.9804
   507.76         42.0364
   507.90         42.1097
   508.04         42.1981
   508.18         42.2956
   508.32         42.3916
   508.46         42.4722
   508.60         42.5275
   508.74         42.5531
   508.88         42.5463
   509.02         42.5050
   509.16         42.4311
   509.30         42.3306
   509.44         42.2121
   509.58         42.0848
   509.72         41.9590
   509.86         41.8443
   510.00         41.7478
   510.14         41.6736
   510.28         41.6234
   510.42         41.5979
   510.56         41.5972
   510.70         41.6186
   510.84         41.6542
   510.98         41.6939
   511.12         41.7288
   511.26         41.7550
   511.40         41.7717
   511.54         41.7786
   511.68         41.7760
   511.82         41.7644
   511.96         41.7444
   512.10         41.7176
   512.24         41.6868
   512.38         41.6546
   512.52         41.6244
   512.66         41.5988
   512.80         41.5793
   512.94         41.5668
   513.08         41.5613
   513.22         41.5602
   513.36         41.5584
   513.50         41.5514
   513.64         41.5368
   513.78         41.5140
   513.92         41.4849
   514.06         41.4547
   514.20         41.4284
   514.34         41.4063
   514.48         41.3841
   514.62         41.3551
   514.76         41.3132
   514.90         41.2557
   515.04         41.1840
   515.18         41.0994
   515.32         41.0024
   515.46         40.8939
   515.60         40.7771
   515.74         40.6570
   515.88         40.5387
   516.02         40.4270
   516.16         40.3259
   516.30         40.2369
   516.44         40.1579
   516.58         40.0853
   516.72         40.0153
   516.86         39.9431
   517.00         39.8649
   517.14         39.7810
   517.28         39.6964
   517.42         39.6208
   517.56         39.5648
   517.70         39.5358
   517.84         39.5369
   517.98         39.5681
   518.12         39.6259
   518.26         39.7033
   518.40         39.7891
   518.54         39.8703
   518.68         39.9348
   518.82         39.9718
   518.96         39.9735
   519.10         39.9372
   519.24         39.8668
   519.38         39.7704
   519.52         39.6573
   519.66         39.5375
   519.80         39.4198
   519.94         39.3128
   520.08         39.2253
   520.22         39.1618
   520.36         39.1234
   520.50         39.1072
   520.64         39.1068
   520.78         39.1163
   520.92         39.1312
   521.06         39.1478
   521.20         39.1633
   521.34         39.1753
   521.48         39.1828
   521.62         39.1869
   521.76         39.1884
   521.90         39.1852
   522.04         39.1736
   522.18         39.1508
   522.32         39.1177
   522.46         39.0769
   522.60         39.0310
   522.74         38.9804
   522.88         38.9238
   523.02         38.8624
   523.16         38.7993
   523.30         38.7369
   523.44         38.6773
   523.58         38.6217
   523.72         38.5703
   523.86         38.5234
   524.00         38.4823
   524.14         38.4485
   524.28         38.4216
   524.42         38.3987
   524.56         38.3768
   524.70         38.3562
   524.84         38.3401
   524.98         38.3315
   525.12         38.3296
   525.26         38.3305
   525.40         38.3317
   525.54         38.3340
   525.68         38.3382
   525.82         38.3414
   525.96         38.3387
   526.10         38.3273
   526.24         38.3071
   526.38         38.2796
   526.52         38.2458
   526.66         38.2056
   526.80         38.1586
   526.94         38.1027
   527.08         38.0359
   527.22         37.9602
   527.36         37.8813
   527.50         37.8052
   527.64         37.7351
   527.78         37.6730
   527.92         37.6203
   528.06         37.5774
   528.20         37.5426
   528.34         37.5126
   528.48         37.4853
   528.62         37.4611
   528.76         37.4414
   528.90         37.4269
   529.04         37.4173
   529.18         37.4107
   529.32         37.4029
   529.46         37.3881
   529.60         37.3625
   529.74         37.3265
   529.88         37.2839
   530.02         37.2391
   530.16         37.1943
   530.30         37.1495
   530.44         37.1043
   530.58         37.0611
   530.72         37.0232
   530.86         36.9916
   531.00         36.9643
   531.14         36.9393
   531.28         36.9156
   531.42         36.8919
   531.56         36.8667
   531.70         36.8377
   531.84         36.8023
   531.98         36.7589
   532.12         36.7080
   532.26         36.6535
   532.40         36.5996
   532.54         36.5502
   532.68         36.5097
   532.82         36.4817
   532.96         36.4675
   533.10         36.4675
   533.24         36.4823
   533.38         36.5095
   533.52         36.5447
   533.66         36.5842
   533.80         36.6250
   533.94         36.6632
   534.08         36.6943
   534.22         36.7143
   534.36         36.7195
   534.50         36.7078
   534.64         36.6798
   534.78         36.6382
   534.92         36.5850
   535.06         36.5222
   535.20         36.4534
   535.34         36.3832
   535.48         36.3133
   535.62         36.2433
   535.76         36.1719
   535.90         36.0983
   536.04         36.0247
   536.18         35.9558
   536.32         35.8957
   536.46         35.8477
   536.60         35.8149
   536.74         35.7985
   536.88         35.7964
   537.02         35.8044
   537.16         35.8186
   537.30         35.8361
   537.44         35.8565
   537.58         35.8820
   537.72         35.9162
   537.86         35.9605
   538.00         36.0117
   538.14         36.0623
   538.28         36.1049
   538.42         36.1362
   538.56         36.1580
   538.70         36.1732
   538.84         36.1808
   538.98         36.1768
   539.12         36.1580
   539.26         36.1226
   539.40         36.0708
   539.54         36.0033
   539.68         35.9228
   539.82         35.8337
   539.96         35.7404
   540.10         35.6466
   540.24         35.5532
   540.38         35.4607
   540.52         35.3706
   540.66         35.2849
   540.80         35.2031
   540.94         35.1243
   541.08         35.0493
   541.22         34.9793
   541.36         34.9146
   541.50         34.8552
   541.64         34.8005
   541.78         34.7474
   541.92         34.6931
   542.06         34.6382
   542.20         34.5842
   542.34         34.5334
   542.48         34.4907
   542.62         34.4612
   542.76         34.4475
   542.90         34.4498
   543.04         34.4666
   543.18         34.4924
   543.32         34.5187
   543.46         34.5385
   543.60         34.5485
   543.74         34.5484
   543.88         34.5373
   544.02         34.5130
   544.16         34.4748
   544.30         34.4255
   544.44         34.3705
   544.58         34.3165
   544.72         34.2687
   544.86         34.2301
   545.00         34.2042
   545.14         34.1942
   545.28         34.2009
   545.42         34.2223
   545.56         34.2549
   545.70         34.2920
   545.84         34.3265
   545.98         34.3515
   546.12         34.3607
   546.26         34.3510
   546.40         34.3247
   546.54         34.2875
   546.68         34.2465
   546.82         34.2093
   546.96         34.1809
   547.10         34.1632
   547.24         34.1566
   547.38         34.1628
   547.52         34.1847
   547.66         34.2226
   547.80         34.2730
   547.94         34.3302
   548.08         34.3849
   548.22         34.4246
   548.36         34.4398
   548.50         34.4275
   548.64         34.3896
   548.78         34.3315
   548.92         34.2604
   549.06         34.1810
   549.20         34.0953
   549.34         34.0053
   549.48         33.9155
   549.62         33.8314
   549.76         33.7584
   549.90         33.7013
   550.04         33.6642
   550.18         33.6469
   550.32         33.6451
   550.46         33.6520
   550.60         33.6601
   550.74         33.6617
   550.88         33.6516
   551.02         33.6298
   551.16         33.6013
   551.30         33.5733
   551.44         33.5504
   551.58         33.5334
   551.72         33.5229
   551.86         33.5201
   552.00         33.5252
   552.14         33.5363
   552.28         33.5495
   552.42         33.5603
   552.56         33.5650
   552.70         33.5598
   552.84         33.5425
   552.98         33.5116
   553.12         33.4653
   553.26         33.4025
   553.40         33.3253
   553.54         33.2382
   553.68         33.1477
   553.82         33.0600
   553.96         32.9793
   554.10         32.9067
   554.24         32.8426
   554.38         32.7883
   554.52         32.7453
   554.66         32.7134
   554.80         32.6922
   554.94         32.6795
   555.08         32.6713
   555.22         32.6627
   555.36         32.6489
   555.50         32.6275
   555.64         32.5978
   555.78         32.5591
   555.92         32.5113
   556.06         32.4571
   556.20         32.4004
   556.34         32.3447
   556.48         32.2933
   556.62         32.2487
   556.76         32.2133
   556.90         32.1889
   557.04         32.1747
   557.18         32.1683
   557.32         32.1676
   557.46         32.1705
   557.60         32.1743
   557.74         32.1761
   557.88         32.1739
   558.02         32.1676
   558.16         32.1580
   558.30         32.1442
   558.44         32.1242
   558.58         32.0986
   558.72         32.0701
   558.86         32.0415
   559.00         32.0146
   559.14         31.9900
   559.28         31.9668
   559.42         31.9425
   559.56         31.9121
   559.70         31.8708
   559.84         31.8179
   559.98         31.7559
   560.12         31.6872
   560.26         31.6140
   560.40         31.5406
   560.54         31.4731
   560.68         31.4159
   560.82         31.3691
   560.96         31.3306
   561.10         31.2992
   561.24         31.2736
   561.38         31.2511
   561.52         31.2292
   561.66         31.2061
   561.80         31.1806
   561.94         31.1523
   562.08         31.1216
   562.22         31.0896
   562.36         31.0569
   562.50         31.0233
   562.64         30.9873
   562.78         30.9471
   562.92         30.9022
   563.06         30.8539
   563.20         30.8034
   563.34         30.7504
   563.48         30.6941
   563.62         30.6359
   563.76         30.5779
   563.90         30.5193
   564.04         30.4582
   564.18         30.3945
   564.32         30.3308
   564.46         30.2705
   564.60         30.2163
   564.74         30.1710
   564.88         30.1375
   565.02         30.1162
   565.16         30.1056
   565.30         30.1025
   565.44         30.1023
   565.58         30.0997
   565.72         30.0908
   565.86         30.0715
   566.00         30.0361
   566.14         29.9805
   566.28         29.9049
   566.42         29.8144
   566.56         29.7177
   566.70         29.6271
   566.84         29.5545
   566.98         29.5075
   567.12         29.4890
   567.26         29.5001
   567.40         29.5404
   567.54         29.6054
   567.68         29.6861
   567.82         29.7719
   567.96         29.8538
   568.10         29.9253
   568.24         29.9830
   568.38         30.0243
   568.52         30.0449
   568.66         30.0410
   568.80         30.0143
   568.94         29.9710
   569.08         29.9176
   569.22         29.8586
   569.36         29.7960
   569.50         29.7304
   569.64         29.6635
   569.78         29.5979
   569.92         29.5342
   570.06         29.4702
   570.20         29.4036
   570.34         29.3342
   570.48         29.2652
   570.62         29.2019
   570.76         29.1505
   570.90         29.1151
   571.04         29.0970
   571.18         29.0943
   571.32         29.1054
   571.46         29.1296
   571.60         29.1659
   571.74         29.2113
   571.88         29.2603
   572.02         29.3045
   572.16         29.3359
   572.30         29.3491
   572.44         29.3412
   572.58         29.3132
   572.72         29.2700
   572.86         29.2172
   573.00         29.1578
   573.14         29.0944
   573.28         29.0323
   573.42         28.9769
   573.56         28.9301
   573.70         28.8910
   573.84         28.8599
   573.98         28.8371
   574.12         28.8208
   574.26         28.8068
   574.40         28.7911
   574.54         28.7723
   574.68         28.7521
   574.82         28.7352
   574.96         28.7248
   575.10         28.7214
   575.24         28.7228
   575.38         28.7258
   575.52         28.7290
   575.66         28.7330
   575.80         28.7393
   575.94         28.7473
   576.08         28.7540
   576.22         28.7551
   576.36         28.7479
   576.50         28.7304
   576.64         28.7007
   576.78         28.6596
   576.92         28.6131
   577.06         28.5681
   577.20         28.5276
   577.34         28.4891
   577.48         28.4462
   577.62         28.3942
   577.76         28.3330
   577.90         28.2648
   578.04         28.1921
   578.18         28.1171
   578.32         28.0414
   578.46         27.9662
   578.60         27.8933
   578.74         27.8262
   578.88         27.7676
   579.02         27.7192
   579.16         27.6825
   579.30         27.6578
   579.44         27.6445
   579.58         27.6412
   579.72         27.6458
   579.86         27.6549
   580.00         27.6652
   580.14         27.6750
   580.28         27.6844
   580.42         27.6925
   580.56         27.6985
   580.70         27.7050
   580.84         27.7166
   580.98         27.7358
   581.12         27.7620
   581.26         27.7935
   581.40         27.8269
   581.54         27.8564
   581.68         27.8769
   581.82         27.8852
   581.96         27.8798
   582.10         27.8614
   582.24         27.8318
   582.38         27.7929
   582.52         27.7466
   582.66         27.6961
   582.80         27.6465
   582.94         27.6044
   583.08         27.5772
   583.22         27.5712
   583.36         27.5871
   583.50         27.6188
   583.64         27.6567
   583.78         27.6934
   583.92         27.7244
   584.06         27.7474
   584.20         27.7621
   584.34         27.7707
   584.48         27.7753
   584.62         27.7775
   584.76         27.7794
   584.90         27.7826
   585.04         27.7869
   585.18         27.7899
   585.32         27.7884
   585.46         27.7811
   585.60         27.7661
   585.74         27.7409
   585.88         27.7039
   586.02         27.6553
   586.16         27.5977
   586.30         27.5365
   586.44         27.4784
   586.58         27.4283
   586.72         27.3875
   586.86         27.3549
   587.00         27.3288
   587.14         27.3062
   587.28         27.2834
   587.42         27.2566
   587.56         27.2217
   587.70         27.1746
   587.84         27.1137
   587.98         27.0387
   588.12         26.9463
   588.26         26.8301
   588.40         26.6881
   588.54         26.5268
   588.68         26.3548
   588.82         26.1775
   588.96         25.9999
   589.10         25.8313
   589.24         25.6825
   589.38         25.5628
   589.52         25.4807
   589.66         25.4433
   589.80         25.4534
   589.94         25.5088
   590.08         25.6023
   590.22         25.7228
   590.36         25.8574
   590.50         25.9954
   590.64         26.1284
   590.78         26.2512
   590.92         26.3636
   591.06         26.4672
   591.20         26.5607
   591.34         26.6386
   591.48         26.6944
   591.62         26.7260
   591.76         26.7350
   591.90         26.7225
   592.04         26.6900
   592.18         26.6412
   592.32         26.5801
   592.46         26.5102
   592.60         26.4365
   592.74         26.3659
   592.88         26.3061
   593.02         26.2642
   593.16         26.2435
   593.30         26.2420
   593.44         26.2536
   593.58         26.2689
   593.72         26.2787
   593.86         26.2770
   594.00         26.2609
   594.14         26.2295
   594.28         26.1831
   594.42         26.1232
   594.56         26.0526
   594.70         25.9750
   594.84         25.8941
   594.98         25.8123
   595.12         25.7318
   595.26         25.6542
   595.40         25.5795
   595.54         25.5081
   595.68         25.4412
   595.82         25.3780
   595.96         25.3184
   596.10         25.2653
   596.24         25.2228
   596.38         25.1942
   596.52         25.1792
   596.66         25.1758
   596.80         25.1794
   596.94         25.1839
   597.08         25.1856
   597.22         25.1845
   597.36         25.1811
   597.50         25.1744
   597.64         25.1641
   597.78         25.1514
   597.92         25.1363
   598.06         25.1178
   598.20         25.0954
   598.34         25.0685
   598.48         25.0371
   598.62         25.0027
   598.76         24.9668
   598.90         24.9292
   599.04         24.8892
   599.18         24.8486
   599.32         24.8107
   599.46         24.7793
   599.60         24.7576
   599.74         24.7472
   599.88         24.7484
   600.02         24.7588
   600.16         24.7743
   600.30         24.7919
   600.44         24.8094
   600.58         24.8226
   600.72         24.8280
   600.86         24.8239
   601.00         24.8086
   601.14         24.7835
   601.28         24.7524
   601.42         24.7197
   601.56         24.6902
   601.70         24.6690
   601.84         24.6586
   601.98         24.6587
   602.12         24.6680
   602.26         24.6832
   602.40         24.7004
   602.54         24.7183
   602.68         24.7363
   602.82         24.7528
   602.96         24.7647
   603.10         24.7662
   603.24         24.7517
   603.38         24.7207
   603.52         24.6761
   603.66         24.6232
   603.80         24.5690
   603.94         24.5176
   604.08         24.4695
   604.22         24.4250
   604.36         24.3843
   604.50         24.3470
   604.64         24.3134
   604.78         24.2831
   604.92         24.2558
   605.06         24.2321
   605.20         24.2130
   605.34         24.1969
   605.48         24.1805
   605.62         24.1613
   605.76         24.1398
   605.90         24.1184
   606.04         24.0992
   606.18         24.0827
   606.32         24.0685
   606.46         24.0549
   606.60         24.0398
   606.74         24.0212
   606.88         23.9986
   607.02         23.9724
   607.16         23.9437
   607.30         23.9144
   607.44         23.8867
   607.58         23.8620
   607.72         23.8412
   607.86         23.8244
   608.00         23.8117
   608.14         23.8032
   608.28         23.7989
   608.42         23.7980
   608.56         23.7981
   608.70         23.7961
   608.84         23.7885
   608.98         23.7735
   609.12         23.7506
   609.26         23.7210
   609.40         23.6859
   609.54         23.6473
   609.68         23.6072
   609.82         23.5680
   609.96         23.5320
   610.10         23.5007
   610.24         23.4752
   610.38         23.4559
   610.52         23.4429
   610.66         23.4361
   610.80         23.4349
   610.94         23.4387
   611.08         23.4454
   611.22         23.4524
   611.36         23.4574
   611.50         23.4590
   611.64         23.4555
   611.78         23.4450
   611.92         23.4262
   612.06         23.3990
   612.20         23.3652
   612.34         23.3269
   612.48         23.2858
   612.62         23.2429
   612.76         23.2011
   612.90         23.1641
   613.04         23.1343
   613.18         23.1118
   613.32         23.0954
   613.46         23.0832
   613.60         23.0729
   613.74         23.0624
   613.88         23.0502
   614.02         23.0361
   614.16         23.0198
   614.30         23.0010
   614.44         22.9790
   614.58         22.9543
   614.72         22.9282
   614.86         22.9023
   615.00         22.8788
   615.14         22.8597
   615.28         22.8479
   615.42         22.8452
   615.56         22.8501
   615.70         22.8591
   615.84         22.8683
   615.98         22.8746
   616.12         22.8758
   616.26         22.8708
   616.40         22.8596
   616.54         22.8427
   616.68         22.8203
   616.82         22.7927
   616.96         22.7609
   617.10         22.7267
   617.24         22.6932
   617.38         22.6632
   617.52         22.6380
   617.66         22.6175
   617.80         22.6003
   617.94         22.5847
   618.08         22.5696
   618.22         22.5539
   618.36         22.5362
   618.50         22.5167
   618.64         22.4977
   618.78         22.4833
   618.92         22.4773
   619.06         22.4806
   619.20         22.4914
   619.34         22.5065
   619.48         22.5230
   619.62         22.5387
   619.76         22.5522
   619.90         22.5630
   620.04         22.5709
   620.18         22.5756
   620.32         22.5768
   620.46         22.5737
   620.60         22.5658
   620.74         22.5533
   620.88         22.5373
   621.02         22.5191
   621.16         22.5002
   621.30         22.4816
   621.44         22.4628
   621.58         22.4425
   621.72         22.4190
   621.86         22.3924
   622.00         22.3639
   622.14         22.3356
   622.28         22.3096
   622.42         22.2877
   622.56         22.2708
   622.70         22.2574
   622.84         22.2446
   622.98         22.2303
   623.12         22.2138
   623.26         22.1954
   623.40         22.1758
   623.54         22.1553
   623.68         22.1341
   623.82         22.1135
   623.96         22.0952
   624.10         22.0808
   624.24         22.0711
   624.38         22.0665
   624.52         22.0677
   624.66         22.0751
   624.80         22.0884
   624.94         22.1061
   625.08         22.1244
   625.22         22.1360
   625.36         22.1332
   625.50         22.1115
   625.64         22.0705
   625.78         22.0126
   625.92         21.9418
   626.06         21.8640
   626.20         21.7852
   626.34         21.7108
   626.48         21.6437
   626.62         21.5839
   626.76         21.5289
   626.90         21.4754
   627.04         21.4197
   627.18         21.3585
   627.32         21.2895
   627.46         21.2124
   627.60         21.1296
   627.74         21.0456
   627.88         20.9674
   628.02         20.9040
   628.16         20.8641
   628.30         20.8524
   628.44         20.8696
   628.58         20.9132
   628.72         20.9780
   628.86         21.0570
   629.00         21.1416
   629.14         21.2235
   629.28         21.2959
   629.42         21.3541
   629.56         21.3958
   629.70         21.4208
   629.84         21.4303
   629.98         21.4270
   630.12         21.4141
   630.26         21.3941
   630.40         21.3681
   630.54         21.3373
   630.68         21.3032
   630.82         21.2676
   630.96         21.2323
   631.10         21.1993
   631.24         21.1705
   631.38         21.1470
   631.52         21.1293
   631.66         21.1173
   631.80         21.1100
   631.94         21.1062
   632.08         21.1050
   632.22         21.1058
   632.36         21.1081
   632.50         21.1110
   632.64         21.1134
   632.78         21.1142
   632.92         21.1118
   633.06         21.1055
   633.20         21.0957
   633.34         21.0819
   633.48         21.0618
   633.62         21.0319
   633.76         20.9900
   633.90         20.9361
   634.04         20.8725
   634.18         20.8037
   634.32         20.7343
   634.46         20.6693
   634.60         20.6134
   634.74         20.5711
   634.88         20.5453
   635.02         20.5362
   635.16         20.5425
   635.30         20.5604
   635.44         20.5848
   635.58         20.6101
   635.72         20.6303
   635.86         20.6396
   636.00         20.6322
   636.14         20.6046
   636.28         20.5583
   636.42         20.4993
   636.56         20.4354
   636.70         20.3732
   636.84         20.3175
   636.98         20.2708
   637.12         20.2350
   637.26         20.2111
   637.40         20.1982
   637.54         20.1934
   637.68         20.1937
   637.82         20.1967
   637.96         20.2013
   638.10         20.2067
   638.24         20.2126
   638.38         20.2185
   638.52         20.2240
   638.66         20.2286
   638.80         20.2332
   638.94         20.2381
   639.08         20.2427
   639.22         20.2452
   639.36         20.2441
   639.50         20.2388
   639.64         20.2296
   639.78         20.2173
   639.92         20.2026
   640.06         20.1861
   640.20         20.1688
   640.34         20.1516
   640.48         20.1342
   640.62         20.1150
   640.76         20.0920
   640.90         20.0639
   641.04         20.0306
   641.18         19.9930
   641.32         19.9526
   641.46         19.9111
   641.60         19.8700
   641.74         19.8310
   641.88         19.7957
   642.02         19.7660
   642.16         19.7432
   642.30         19.7281
   642.44         19.7209
   642.58         19.7209
   642.72         19.7264
   642.86         19.7347
   643.00         19.7438
   643.14         19.7526
   643.28         19.7613
   643.42         19.7707
   643.56         19.7800
   643.70         19.7875
   643.84         19.7914
   643.98         19.7900
   644.12         19.7818
   644.26         19.7653
   644.40         19.7398
   644.54         19.7063
   644.68         19.6666
   644.82         19.6232
   644.96         19.5788
   645.10         19.5364
   645.24         19.4988
   645.38         19.4683
   645.52         19.4471
   645.66         19.4362
   645.80         19.4355
   645.94         19.4436
   646.08         19.4573
   646.22         19.4733
   646.36         19.4886
   646.50         19.5013
   646.64         19.5095
   646.78         19.5120
   646.92         19.5090
   647.06         19.5022
   647.20         19.4936
   647.34         19.4846
   647.48         19.4765
   647.62         19.4703
   647.76         19.4666
   647.90         19.4643
   648.04         19.4617
   648.18         19.4572
   648.32         19.4506
   648.46         19.4426
   648.60         19.4349
   648.74         19.4290
   648.88         19.4257
   649.02         19.4256
   649.16         19.4287
   649.30         19.4347
   649.44         19.4420
   649.58         19.4490
   649.72         19.4548
   649.86         19.4580
   650.00         19.4568
   650.14         19.4499
   650.28         19.4361
   650.42         19.4155
   650.56         19.3893
   650.70         19.3609
   650.84         19.3349
   650.98         19.3155
   651.12         19.3050
   651.26         19.3035
   651.40         19.3095
   651.54         19.3203
   651.68         19.3326
   651.82         19.3425
   651.96         19.3460
   652.10         19.3396
   652.24         19.3215
   652.38         19.2905
   652.52         19.2468
   652.66         19.1914
   652.80         19.1265
   652.94         19.0543
   653.08         18.9770
   653.22         18.8964
   653.36         18.8127
   653.50         18.7244
   653.64         18.6280
   653.78         18.5192
   653.92         18.3940
   654.06         18.2484
   654.20         18.0781
   654.34         17.8790
   654.48         17.6473
   654.62         17.3800
   654.76         17.0744
   654.90         16.7274
   655.04         16.3365
   655.18         15.9021
   655.32         15.4321
   655.46         14.9429
   655.60         14.4578
   655.74         14.0042
   655.88         13.6093
   656.02         13.2982
   656.16         13.0919
   656.30         13.0052
   656.44         13.0449
   656.58         13.2084
   656.72         13.4834
   656.86         13.8498
   657.00         14.2825
   657.14         14.7536
   657.28         15.2357
   657.42         15.7036
   657.56         16.1373
   657.70         16.5246
   657.84         16.8615
   657.98         17.1496
   658.12         17.3919
   658.26         17.5915
   658.40         17.7515
   658.54         17.8767
   658.68         17.9733
   658.82         18.0481
   658.96         18.1075
   659.10         18.1571
   659.24         18.2012
   659.38         18.2425
   659.52         18.2825
   659.66         18.3220
   659.80         18.3608
   659.94         18.3976
   660.08         18.4301
   660.22         18.4558
   660.36         18.4729
   660.50         18.4810
   660.64         18.4810
   660.78         18.4741
   660.92         18.4619
   661.06         18.4472
   661.20         18.4333
   661.34         18.4226
   661.48         18.4165
   661.62         18.4152
   661.76         18.4185
   661.90         18.4252
   662.04         18.4340
   662.18         18.4436
   662.32         18.4525
   662.46         18.4586
   662.60         18.4598
   662.74         18.4546
   662.88         18.4432
   663.02         18.4268
   663.16         18.4059
   663.30         18.3799
   663.44         18.3478
   663.58         18.3100
   663.72         18.2681
   663.86         18.2237
   664.00         18.1782
   664.14         18.1333
   664.28         18.0912
   664.42         18.0541
   664.56         18.0233
   664.70         17.9995
   664.84         17.9828
   664.98         17.9724
   665.12         17.9669
   665.26         17.9654
   665.40         17.9669
   665.54         17.9697
   665.68         17.9712
   665.82         17.9686
   665.96         17.9596
   666.10         17.9431
   666.24         17.9198
   666.38         17.8914
   666.52         17.8591
   666.66         17.8235
   666.80         17.7853
   666.94         17.7457
   667.08         17.7053
   667.22         17.6649
   667.36         17.6260
   667.50         17.5909
   667.64         17.5617
   667.78         17.5407
   667.92         17.5294
   668.06         17.5282
   668.20         17.5355
   668.34         17.5487
   668.48         17.5651
   668.62         17.5818
   668.76         17.5965
   668.90         17.6073
   669.04         17.6131
   669.18         17.6134
   669.32         17.6083
   669.46         17.5994
   669.60         17.5885
   669.74         17.5761
   669.88         17.5627
   670.02         17.5484
   670.16         17.5338
   670.30         17.5185
   670.44         17.5019
   670.58         17.4832
   670.72         17.4618
   670.86         17.4382
   671.00         17.4140
   671.14         17.3913
   671.28         17.3716
   671.42         17.3558
   671.56         17.3448
   671.70         17.3379
   671.84         17.3335
   671.98         17.3293
   672.12         17.3229
   672.26         17.3125
   672.40         17.2975
   672.54         17.2791
   672.68         17.2595
   672.82         17.2414
   672.96         17.2266
   673.10         17.2163
   673.24         17.2107
   673.38         17.2093
   673.52         17.2112
   673.66         17.2142
   673.80         17.2152
   673.94         17.2114
   674.08         17.2012
   674.22         17.1842
   674.36         17.1609
   674.50         17.1327
   674.64         17.1015
   674.78         17.0695
   674.92         17.0384
   675.06         17.0098
   675.20         16.9852
   675.34         16.9653
   675.48         16.9500
   675.62         16.9383
   675.76         16.9292
   675.90         16.9218
   676.04         16.9155
   676.18         16.9102
   676.32         16.9051
   676.46         16.8996
   676.60         16.8936
   676.74         16.8867
   676.88         16.8784
   677.02         16.8679
   677.16         16.8546
   677.30         16.8381
   677.44         16.8182
   677.58         16.7956
   677.72         16.7716
   677.86         16.7476
   678.00         16.7250
   678.14         16.7043
   678.28         16.6856
   678.42         16.6694
   678.56         16.6563
   678.70         16.6471
   678.84         16.6423
   678.98         16.6415
   679.12         16.6442
   679.26         16.6492
   679.40         16.6552
   679.54         16.6612
   679.68         16.6670
   679.82         16.6722
   679.96         16.6756
   680.10         16.6771
   680.24         16.6770
   680.38         16.6761
   680.52         16.6740
   680.66         16.6698
   680.80         16.6627
   680.94         16.6524
   681.08         16.6394
   681.22         16.6246
   681.36         16.6085
   681.50         16.5913
   681.64         16.5720
   681.78         16.5503
   681.92         16.5267
   682.06         16.5019
   682.20         16.4768
   682.34         16.4520
   682.48         16.4275
   682.62         16.4033
   682.76         16.3800
   682.90         16.3578
   683.04         16.3366
   683.18         16.3161
   683.32         16.2965
   683.46         16.2777
   683.60         16.2596
   683.74         16.2422
   683.88         16.2252
   684.02         16.2078
   684.16         16.1893
   684.30         16.1696
   684.44         16.1500
   684.58         16.1319
   684.72         16.1164
   684.86         16.1045
   685.00         16.0967
   685.14         16.0923
   685.28         16.0886
   685.42         16.0803
   685.56         16.0562
   685.70         16.0004
   685.84         15.8960
   685.98         15.7307
   686.12         15.5001
   686.26         15.2089
   686.40         14.8694
   686.54         14.5001
   686.68         14.1246
   686.82         13.7694
   686.96         13.4622
   687.10         13.2274
   687.24         13.0827
   687.38         13.0352
   687.52         13.0813
   687.66         13.2071
   687.80         13.3903
   687.94         13.6031
   688.08         13.8160
   688.22         14.0025
   688.36         14.1450
   688.50         14.2369
   688.64         14.2822
   688.78         14.2906
   688.92         14.2740
   689.06         14.2448
   689.20         14.2146
   689.34         14.1934
   689.48         14.1889
   689.62         14.2055
   689.76         14.2422
   689.90         14.2943
   690.04         14.3558
   690.18         14.4215
   690.32         14.4874
   690.46         14.5515
   690.60         14.6123
   690.74         14.6691
   690.88         14.7219
   691.02         14.7720
   691.16         14.8206
   691.30         14.8685
   691.44         14.9155
   691.58         14.9606
   691.72         15.0019
   691.86         15.0377
   692.00         15.0668
   692.14         15.0886
   692.28         15.1029
   692.42         15.1107
   692.56         15.1140
   692.70         15.1154
   692.84         15.1167
   692.98         15.1195
   693.12         15.1252
   693.26         15.1345
   693.40         15.1479
   693.54         15.1657
   693.68         15.1873
   693.82         15.2115
   693.96         15.2366
   694.10         15.2618
   694.24         15.2863
   694.38         15.3091
   694.52         15.3300
   694.66         15.3487
   694.80         15.3654
   694.94         15.3804
   695.08         15.3936
   695.22         15.4049
   695.36         15.4141
   695.50         15.4217
   695.64         15.4283
   695.78         15.4344
   695.92         15.4398
   696.06         15.4443
   696.20         15.4481
   696.34         15.4516
   696.48         15.4550
   696.62         15.4585
   696.76         15.4617
   696.90         15.4640
   697.04         15.4646
   697.18         15.4632
   697.32         15.4600
   697.46         15.4553
   697.60         15.4498
   697.74         15.4437
   697.88         15.4361
   698.02         15.4254
   698.16         15.4098
   698.30         15.3891
   698.44         15.3649
   698.58         15.3401
   698.72         15.3175
   698.86         15.2982
   699.00         15.2819
   699.14         15.2674
   699.28         15.2534
   699.42         15.2388
   699.56         15.2228
   699.70         15.2053
   699.84         15.1861
   699.98         15.1654
   700.12         15.1441
   700.26         15.1236
   700.40         15.1047
   700.54         15.0882
   700.68         15.0754
   700.82         15.0686
   700.96         15.0684
   701.10         15.0735
   701.24         15.0806
   701.38         15.0856
   701.52         15.0857
   701.66         15.0800
   701.80         15.0688
   701.94         15.0537
   702.08         15.0365
   702.22         15.0188
   702.36         15.0016
   702.50         14.9860
   702.64         14.9733
   702.78         14.9642
   702.92         14.9579
   703.06         14.9527
   703.20         14.9473
   703.34         14.9403
   703.48         14.9306
   703.62         14.9172
   703.76         14.9004
   703.90         14.8821
   704.04         14.8638
   704.18         14.8470
   704.32         14.8325
   704.46         14.8202
   704.60         14.8093
   704.74         14.7990
   704.88         14.7891
   705.02         14.7792
   705.16         14.7688
   705.30         14.7576
   705.44         14.7453
   705.58         14.7323
   705.72         14.7197
   705.86         14.7095
   706.00         14.7037
   706.14         14.7034
   706.28         14.7092
   706.42         14.7209
   706.56         14.7373
   706.70         14.7561
   706.84         14.7744
   706.98         14.7892
   707.12         14.7989
   707.26         14.8035
   707.40         14.8033
   707.54         14.7981
   707.68         14.7874
   707.82         14.7719
   707.96         14.7534
   708.10         14.7337
   708.24         14.7142
   708.38         14.6954
   708.52         14.6779
   708.66         14.6621
   708.80         14.6487
   708.94         14.6385
   709.08         14.6328
   709.22         14.6324
   709.36         14.6373
   709.50         14.6465
   709.64         14.6582
   709.78         14.6702
   709.92         14.6802
   710.06         14.6860
   710.20         14.6862
   710.34         14.6807
   710.48         14.6693
   710.62         14.6525
   710.76         14.6315
   710.90         14.6080
   711.04         14.5845
   711.18         14.5637
   711.32         14.5482
   711.46         14.5398
   711.60         14.5391
   711.74         14.5454
   711.88         14.5572
   712.02         14.5723
   712.16         14.5875
   712.30         14.5999
   712.44         14.6079
   712.58         14.6110
   712.72         14.6082
   712.86         14.5982
   713.00         14.5800
   713.14         14.5533
   713.28         14.5192
   713.42         14.4799
   713.56         14.4382
   713.70         14.3971
   713.84         14.3595
   713.98         14.3275
   714.12         14.3029
   714.26         14.2873
   714.40         14.2822
   714.54         14.2884
   714.68         14.3054
   714.82         14.3314
   714.96         14.3641
   715.10         14.4003
   715.24         14.4356
   715.38         14.4659
   715.52         14.4875
   715.66         14.4981
   715.80         14.4961
   715.94         14.4806
   716.08         14.4515
   716.22         14.4090
   716.36         14.3541
   716.50         14.2882
   716.64         14.2140
   716.78         14.1351
   716.92         14.0545
   717.06         13.9743
   717.20         13.8957
   717.34         13.8183
   717.48         13.7422
   717.62         13.6691
   717.76         13.6006
   717.90         13.5384
   718.04         13.4839
   718.18         13.4378
   718.32         13.4008
   718.46         13.3733
   718.60         13.3562
   718.74         13.3500
   718.88         13.3541
   719.02         13.3681
   719.16         13.3908
   719.30         13.4200
   719.44         13.4531
   719.58         13.4880
   719.72         13.5236
   719.86         13.5595
   720.00         13.5959
   720.14         13.6339
   720.28         13.6750
   720.42         13.7192
   720.56         13.7667
   720.70         13.8189
   720.84         13.8769
   720.98         13.9405
   721.12         14.0069
   721.26         14.0726
   721.40         14.1331
   721.54         14.1849
   721.68         14.2253
   721.82         14.2512
   721.96         14.2601
   722.10         14.2498
   722.24         14.2194
   722.38         14.1694
   722.52         14.1019
   722.66         14.0211
   722.80         13.9321
   722.94         13.8403
   723.08         13.7507
   723.22         13.6675
   723.36         13.5948
   723.50         13.5355
   723.64         13.4921
   723.78         13.4659
   723.92         13.4559
   724.06         13.4580
   724.20         13.4671
   724.34         13.4788
   724.48         13.4904
   724.62         13.5004
   724.76         13.5093
   724.90         13.5189
   725.04         13.5314
   725.18         13.5471
   725.32         13.5645
   725.46         13.5820
   725.60         13.5981
   725.74         13.6122
   725.88         13.6240
   726.02         13.6328
   726.16         13.6374
   726.30         13.6358
   726.44         13.6247
   726.58         13.6014
   726.72         13.5657
   726.86         13.5211
   727.00         13.4730
   727.14         13.4263
   727.28         13.3844
   727.42         13.3490
   727.56         13.3211
   727.70         13.3003
   727.84         13.2851
   727.98         13.2736
   728.12         13.2639
   728.26         13.2538
   728.40         13.2413
   728.54         13.2251
   728.68         13.2048
   728.82         13.1805
   728.96         13.1530
   729.10         13.1228
   729.24         13.0913
   729.38         13.0616
   729.52         13.0378
   729.66         13.0224
   729.80         13.0157
   729.94         13.0165
   730.08         13.0233
   730.22         13.0336
   730.36         13.0444
   730.50         13.0524
   730.64         13.0554
   730.78         13.0530
   730.92         13.0457
   731.06         13.0346
   731.20         13.0225
   731.34         13.0120
   731.48         13.0048
   731.62         13.0021
   731.76         13.0042
   731.90         13.0112
   732.04         13.0219
   732.18         13.0338
   732.32         13.0437
   732.46         13.0494
   732.60         13.0500
   732.74         13.0456
   732.88         13.0371
   733.02         13.0260
   733.16         13.0148
   733.30         13.0059
   733.44         13.0010
   733.58         13.0003
   733.72         13.0041
   733.86         13.0116
   734.00         13.0202
   734.14         13.0262
   734.28         13.0267
   734.42         13.0200
   734.56         13.0058
   734.70         12.9842
   734.84         12.9573
   734.98         12.9280
   735.12         12.8986
   735.26         12.8709
   735.40         12.8455
   735.54         12.8224
   735.68         12.8011
   735.82         12.7792
   735.96         12.7535
   736.10         12.7224
   736.24         12.6867
   736.38         12.6483
   736.52         12.6089
   736.66         12.5705
   736.80         12.5359
   736.94         12.5074
   737.08         12.4866
   737.22         12.4736
   737.36         12.4679
   737.50         12.4684
   737.64         12.4731
   737.78         12.4793
   737.92         12.4843
   738.06         12.4862
   738.20         12.4844
   738.34         12.4790
   738.48         12.4714
   738.62         12.4637
   738.76         12.4574
   738.90         12.4535
   739.04         12.4516
   739.18         12.4502
   739.32         12.4479
   739.46         12.4437
   739.60         12.4366
   739.74         12.4266
   739.88         12.4142
   740.02         12.4000
   740.16         12.3844
   740.30         12.3676
   740.44         12.3509
   740.58         12.3359
   740.72         12.3241
   740.86         12.3163
   741.00         12.3113
   741.14         12.3072
   741.28         12.3014
   741.42         12.2932
   741.56         12.2828
   741.70         12.2714
   741.84         12.2598
   741.98         12.2490
   742.12         12.2400
   742.26         12.2327
   742.40         12.2273
   742.54         12.2235
   742.68         12.2207
   742.82         12.2193
   742.96         12.2193
   743.10         12.2207
   743.24         12.2235
   743.38         12.2273
   743.52         12.2327
   743.66         12.2400
   743.80         12.2490
   743.94         12.2598
   744.08         12.2714
   744.22         12.2828
