# File HD21110
# Wavelength [nm]    Normalized Amplitude
   349.70         4.1872
   349.84         4.0555
   349.98         3.9490
   350.12         3.8671
   350.26         3.8091
   350.40         3.7745
   350.54         3.7624
   350.68         3.7687
   350.82         3.7845
   350.96         3.7992
   351.10         3.8051
   351.24         3.7992
   351.38         3.7845
   351.52         3.7687
   351.66         3.7624
   351.80         3.7745
   351.94         3.8091
   352.08         3.8671
   352.22         3.9490
   352.36         4.0555
   352.50         4.1872
   352.64         4.3430
   352.78         4.5186
   352.92         4.7075
   353.06         4.9017
   353.20         5.0903
   353.34         5.2605
   353.48         5.4002
   353.62         5.5031
   353.76         5.5679
   353.90         5.5959
   354.04         5.5910
   354.18         5.5587
   354.32         5.5034
   354.46         5.4264
   354.60         5.3282
   354.74         5.2115
   354.88         5.0814
   355.02         4.9425
   355.16         4.7972
   355.30         4.6460
   355.44         4.4906
   355.58         4.3340
   355.72         4.1797
   355.86         4.0317
   356.00         3.8949
   356.14         3.7747
   356.28         3.6743
   356.42         3.5934
   356.56         3.5276
   356.70         3.4701
   356.84         3.4135
   356.98         3.3506
   357.12         3.2749
   357.26         3.1814
   357.40         3.0676
   357.54         2.9353
   357.68         2.7920
   357.82         2.6497
   357.96         2.5220
   358.10         2.4228
   358.24         2.3659
   358.38         2.3659
   358.52         2.4349
   358.66         2.5777
   358.80         2.7909
   358.94         3.0633
   359.08         3.3763
   359.22         3.7052
   359.36         4.0229
   359.50         4.3054
   359.64         4.5331
   359.78         4.6898
   359.92         4.7672
   360.06         4.7687
   360.20         4.7105
   360.34         4.6142
   360.48         4.4996
   360.62         4.3833
   360.76         4.2814
   360.90         4.2115
   361.04         4.1883
   361.18         4.2194
   361.32         4.3062
   361.46         4.4453
   361.60         4.6270
   361.74         4.8346
   361.88         5.0464
   362.02         5.2410
   362.16         5.4031
   362.30         5.5246
   362.44         5.6055
   362.58         5.6553
   362.72         5.6899
   362.86         5.7255
   363.00         5.7725
   363.14         5.8343
   363.28         5.9097
   363.42         5.9962
   363.56         6.0882
   363.70         6.1760
   363.84         6.2498
   363.98         6.3032
   364.12         6.3345
   364.26         6.3455
   364.40         6.3419
   364.54         6.3365
   364.68         6.3484
   364.82         6.3980
   364.96         6.4995
   365.10         6.6575
   365.24         6.8674
   365.38         7.1150
   365.52         7.3770
   365.66         7.6240
   365.80         7.8287
   365.94         7.9741
   366.08         8.0548
   366.22         8.0766
   366.36         8.0545
   366.50         8.0077
   366.64         7.9515
   366.78         7.8932
   366.92         7.8336
   367.06         7.7708
   367.20         7.7018
   367.34         7.6229
   367.48         7.5282
   367.62         7.4124
   367.76         7.2765
   367.90         7.1293
   368.04         6.9844
   368.18         6.8538
   368.32         6.7476
   368.46         6.6784
   368.60         6.6604
   368.74         6.7039
   368.88         6.8117
   369.02         6.9770
   369.16         7.1802
   369.30         7.3907
   369.44         7.5755
   369.58         7.7053
   369.72         7.7581
   369.86         7.7243
   370.00         7.6099
   370.14         7.4361
   370.28         7.2327
   370.42         7.0291
   370.56         6.8435
   370.70         6.6793
   370.84         6.5297
   370.98         6.3872
   371.12         6.2484
   371.26         6.1108
   371.40         5.9691
   371.54         5.8142
   371.68         5.6378
   371.82         5.4352
   371.96         5.2081
   372.10         4.9661
   372.24         4.7216
   372.38         4.4881
   372.52         4.2783
   372.66         4.1018
   372.80         3.9605
   372.94         3.8487
   373.08         3.7560
   373.22         3.6725
   373.36         3.5931
   373.50         3.5198
   373.64         3.4586
   373.78         3.4153
   373.92         3.3934
   374.06         3.3960
   374.20         3.4276
   374.34         3.4934
   374.48         3.5923
   374.62         3.7150
   374.76         3.8503
   374.90         3.9898
   375.04         4.1296
   375.18         4.2680
   375.32         4.4031
   375.46         4.5309
   375.60         4.6478
   375.74         4.7548
   375.88         4.8598
   376.02         4.9778
   376.16         5.1251
   376.30         5.3135
   376.44         5.5496
   376.58         5.8345
   376.72         6.1616
   376.86         6.5140
   377.00         6.8678
   377.14         7.1984
   377.28         7.4860
   377.42         7.7157
   377.56         7.8740
   377.70         7.9498
   377.84         7.9386
   377.98         7.8452
   378.12         7.6822
   378.26         7.4673
   378.40         7.2183
   378.54         6.9494
   378.68         6.6716
   378.82         6.3944
   378.96         6.1300
   379.10         5.8954
   379.24         5.7086
   379.38         5.5834
   379.52         5.5253
   379.66         5.5324
   379.80         5.5948
   379.94         5.6956
   380.08         5.8133
   380.22         5.9262
   380.36         6.0161
   380.50         6.0694
   380.64         6.0742
   380.78         6.0198
   380.92         5.8991
   381.06         5.7131
   381.20         5.4715
   381.34         5.1903
   381.48         4.8887
   381.62         4.5861
   381.76         4.3002
   381.90         4.0447
   382.04         3.8271
   382.18         3.6507
   382.32         3.5181
   382.46         3.4309
   382.60         3.3862
   382.74         3.3773
   382.88         3.3972
   383.02         3.4414
   383.16         3.5073
   383.30         3.5930
   383.44         3.6965
   383.58         3.8160
   383.72         3.9481
   383.86         4.0867
   384.00         4.2253
   384.14         4.3586
   384.28         4.4820
   384.42         4.5892
   384.56         4.6722
   384.70         4.7234
   384.84         4.7392
   384.98         4.7212
   385.12         4.6740
   385.26         4.6043
   385.40         4.5213
   385.54         4.4365
   385.68         4.3601
   385.82         4.2983
   385.96         4.2533
   386.10         4.2250
   386.24         4.2131
   386.38         4.2179
   386.52         4.2387
   386.66         4.2730
   386.80         4.3167
   386.94         4.3654
   387.08         4.4165
   387.22         4.4702
   387.36         4.5282
   387.50         4.5922
   387.64         4.6646
   387.78         4.7489
   387.92         4.8508
   388.06         4.9782
   388.20         5.1380
   388.34         5.3324
   388.48         5.5597
   388.62         5.8149
   388.76         6.0908
   388.90         6.3768
   389.04         6.6580
   389.18         6.9183
   389.32         7.1446
   389.46         7.3288
   389.60         7.4678
   389.74         7.5639
   389.88         7.6242
   390.02         7.6605
   390.16         7.6887
   390.30         7.7245
   390.44         7.7786
   390.58         7.8533
   390.72         7.9409
   390.86         8.0244
   391.00         8.0836
   391.14         8.1002
   391.28         8.0610
   391.42         7.9574
   391.56         7.7838
   391.70         7.5375
   391.84         7.2205
   391.98         6.8396
   392.12         6.4053
   392.26         5.9323
   392.40         5.4400
   392.54         4.9502
   392.68         4.4857
   392.82         4.0677
   392.96         3.7132
   393.10         3.4357
   393.24         3.2467
   393.38         3.1561
   393.52         3.1710
   393.66         3.2945
   393.80         3.5254
   393.94         3.8557
   394.08         4.2703
   394.22         4.7487
   394.36         5.2674
   394.50         5.8006
   394.64         6.3211
   394.78         6.8011
   394.92         7.2126
   395.06         7.5310
   395.20         7.7361
   395.34         7.8126
   395.48         7.7509
   395.62         7.5505
   395.76         7.2240
   395.90         6.7978
   396.04         6.3098
   396.18         5.8054
   396.32         5.3344
   396.46         4.9459
   396.60         4.6837
   396.74         4.5811
   396.88         4.6568
   397.02         4.9136
   397.16         5.3389
   397.30         5.9096
   397.44         6.5956
   397.58         7.3623
   397.72         8.1735
   397.86         8.9930
   398.00         9.7878
   398.14         10.5321
   398.28         11.2083
   398.42         11.8057
   398.56         12.3208
   398.70         12.7592
   398.84         13.1363
   398.98         13.4720
   399.12         13.7830
   399.26         14.0777
   399.40         14.3562
   399.54         14.6164
   399.68         14.8589
   399.82         15.0865
   399.96         15.3032
   400.10         15.5127
   400.24         15.7174
   400.38         15.9192
   400.52         16.1221
   400.66         16.3302
   400.80         16.5453
   400.94         16.7646
   401.08         16.9823
   401.22         17.1927
   401.36         17.3929
   401.50         17.5799
   401.64         17.7451
   401.78         17.8705
   401.92         17.9325
   402.06         17.9123
   402.20         17.8050
   402.34         17.6217
   402.48         17.3876
   402.62         17.1361
   402.76         16.9013
   402.90         16.7087
   403.04         16.5701
   403.18         16.4801
   403.32         16.4201
   403.46         16.3705
   403.60         16.3223
   403.74         16.2793
   403.88         16.2541
   404.02         16.2586
   404.16         16.2955
   404.30         16.3549
   404.44         16.4210
   404.58         16.4840
   404.72         16.5455
   404.86         16.6126
   405.00         16.6840
   405.14         16.7431
   405.28         16.7660
   405.42         16.7322
   405.56         16.6343
   405.70         16.4799
   405.84         16.2881
   405.98         16.0878
   406.12         15.9150
   406.26         15.7986
   406.40         15.7474
   406.54         15.7526
   406.68         15.8013
   406.82         15.8868
   406.96         16.0097
   407.10         16.1735
   407.24         16.3836
   407.38         16.6447
   407.52         16.9608
   407.66         17.3368
   407.80         17.7778
   407.94         18.2847
   408.08         18.8460
   408.22         19.4332
   408.36         19.9997
   408.50         20.4913
   408.64         20.8602
   408.78         21.0727
   408.92         21.1106
   409.06         20.9770
   409.20         20.7017
   409.34         20.3325
   409.48         19.9210
   409.62         19.5106
   409.76         19.1348
   409.90         18.8189
   410.04         18.5818
   410.18         18.4342
   410.32         18.3731
   410.46         18.3801
   410.60         18.4277
   410.74         18.4866
   410.88         18.5309
   411.02         18.5431
   411.16         18.5178
   411.30         18.4618
   411.44         18.3884
   411.58         18.3124
   411.72         18.2438
   411.86         18.1841
   412.00         18.1242
   412.14         18.0504
   412.28         17.9526
   412.42         17.8286
   412.56         17.6858
   412.70         17.5390
   412.84         17.3997
   412.98         17.2669
   413.12         17.1303
   413.26         16.9809
   413.40         16.8198
   413.54         16.6561
   413.68         16.4990
   413.82         16.3526
   413.96         16.2170
   414.10         16.0892
   414.24         15.9656
   414.38         15.8473
   414.52         15.7454
   414.66         15.6807
   414.80         15.6782
   414.94         15.7578
   415.08         15.9266
   415.22         16.1751
   415.36         16.4782
   415.50         16.8004
   415.64         17.1089
   415.78         17.3826
   415.92         17.6104
   416.06         17.7814
   416.20         17.8800
   416.34         17.8921
   416.48         17.8141
   416.62         17.6559
   416.76         17.4406
   416.90         17.1975
   417.04         16.9602
   417.18         16.7649
   417.32         16.6435
   417.46         16.6148
   417.60         16.6810
   417.74         16.8318
   417.88         17.0496
   418.02         17.3145
   418.16         17.6051
   418.30         17.8964
   418.44         18.1585
   418.58         18.3587
   418.72         18.4710
   418.86         18.4836
   419.00         18.3988
   419.14         18.2304
   419.28         18.0039
   419.42         17.7547
   419.56         17.5227
   419.70         17.3479
   419.84         17.2623
   419.98         17.2822
   420.12         17.4044
   420.26         17.6120
   420.40         17.8854
   420.54         18.2096
   420.68         18.5736
   420.82         18.9674
   420.96         19.3758
   421.10         19.7727
   421.24         20.1184
   421.38         20.3632
   421.52         20.4616
   421.66         20.3910
   421.80         20.1611
   421.94         19.8090
   422.08         19.3833
   422.22         18.9316
   422.36         18.4972
   422.50         18.1196
   422.64         17.8361
   422.78         17.6816
   422.92         17.6896
   423.06         17.8889
   423.20         18.2960
   423.34         18.9024
   423.48         19.6659
   423.62         20.5141
   423.76         21.3581
   423.90         22.1136
   424.04         22.7192
   424.18         23.1466
   424.32         23.3957
   424.46         23.4834
   424.60         23.4308
   424.74         23.2550
   424.88         22.9767
   425.02         22.6327
   425.16         22.2798
   425.30         21.9849
   425.44         21.8086
   425.58         21.7886
   425.72         21.9269
   425.86         22.1862
   426.00         22.4963
   426.14         22.7717
   426.28         22.9385
   426.42         22.9542
   426.56         22.8172
   426.70         22.5601
   426.84         22.2326
   426.98         21.8889
   427.12         21.5811
   427.26         21.3485
   427.40         21.2171
   427.54         21.2031
   427.68         21.3076
   427.82         21.5078
   427.96         21.7581
   428.10         22.0029
   428.24         22.1894
   428.38         22.2789
   428.52         22.2527
   428.66         22.1121
   428.80         21.8751
   428.94         21.5702
   429.08         21.2298
   429.22         20.8794
   429.36         20.5278
   429.50         20.1682
   429.64         19.7893
   429.78         19.3892
   429.92         18.9833
   430.06         18.6038
   430.20         18.2960
   430.34         18.1192
   430.48         18.1450
   430.62         18.4421
   430.76         19.0533
   430.90         19.9767
   431.04         21.1627
   431.18         22.5182
   431.32         23.9223
   431.46         25.2531
   431.60         26.4175
   431.74         27.3619
   431.88         28.0653
   432.02         28.5371
   432.16         28.8209
   432.30         28.9883
   432.44         29.1209
   432.58         29.2833
   432.72         29.5081
   432.86         29.8006
   433.00         30.1509
   433.14         30.5371
   433.28         30.9277
   433.42         31.2890
   433.56         31.5942
   433.70         31.8294
   433.84         31.9928
   433.98         32.0930
   434.12         32.1527
   434.26         32.2065
   434.40         32.2843
   434.54         32.4020
   434.68         32.5594
   434.82         32.7419
   434.96         32.9281
   435.10         33.1004
   435.24         33.2567
   435.38         33.4130
   435.52         33.5936
   435.66         33.8178
   435.80         34.0921
   435.94         34.4066
   436.08         34.7298
   436.22         35.0128
   436.36         35.2034
   436.50         35.2662
   436.64         35.1932
   436.78         34.9972
   436.92         34.6937
   437.06         34.2828
   437.20         33.7489
   437.34         33.0812
   437.48         32.2972
   437.62         31.4439
   437.76         30.5793
   437.90         29.7560
   438.04         29.0165
   438.18         28.3953
   438.32         27.9284
   438.46         27.6561
   438.60         27.6094
   438.74         27.7952
   438.88         28.1954
   439.02         28.7718
   439.16         29.4595
   439.30         30.1603
   439.44         30.7603
   439.58         31.1657
   439.72         31.3298
   439.86         31.2678
   440.00         31.0463
   440.14         30.7464
   440.28         30.4317
   440.42         30.1477
   440.56         29.9380
   440.70         29.8491
   440.84         29.9188
   440.98         30.1622
   441.12         30.5667
   441.26         31.0935
   441.40         31.6871
   441.54         32.2881
   441.68         32.8402
   441.82         33.2975
   441.96         33.6375
   442.10         33.8638
   442.24         33.9934
   442.38         34.0470
   442.52         34.0509
   442.66         34.0352
   442.80         34.0253
   442.94         34.0389
   443.08         34.0940
   443.22         34.2116
   443.36         34.4084
   443.50         34.6912
   443.64         35.0552
   443.78         35.4888
   443.92         35.9744
   444.06         36.4841
   444.20         36.9779
   444.34         37.4086
   444.48         37.7330
   444.62         37.9178
   444.76         37.9387
   444.90         37.7857
   445.04         37.4770
   445.18         37.0584
   445.32         36.5830
   445.46         36.0956
   445.60         35.6358
   445.74         35.2509
   445.88         34.9939
   446.02         34.9113
   446.16         35.0315
   446.30         35.3609
   446.44         35.8911
   446.58         36.5994
   446.72         37.4407
   446.86         38.3485
   447.00         39.2541
   447.14         40.1084
   447.28         40.8885
   447.42         41.5904
   447.56         42.2134
   447.70         42.7520
   447.84         43.1953
   447.98         43.5293
   448.12         43.7396
   448.26         43.8139
   448.40         43.7508
   448.54         43.5713
   448.68         43.3191
   448.82         43.0461
   448.96         42.8040
   449.10         42.6463
   449.24         42.6225
   449.38         42.7663
   449.52         43.0958
   449.66         43.6188
   449.80         44.3252
   449.94         45.1718
   450.08         46.0781
   450.22         46.9435
   450.36         47.6794
   450.50         48.2258
   450.64         48.5515
   450.78         48.6524
   450.92         48.5500
   451.06         48.2891
   451.20         47.9246
   451.34         47.4996
   451.48         47.0314
   451.62         46.5199
   451.76         45.9614
   451.90         45.3491
   452.04         44.6768
   452.18         43.9471
   452.32         43.1810
   452.46         42.4203
   452.60         41.7183
   452.74         41.1266
   452.88         40.6876
   453.02         40.4347
   453.16         40.3840
   453.30         40.5284
   453.44         40.8391
   453.58         41.2677
   453.72         41.7553
   453.86         42.2456
   454.00         42.6904
   454.14         43.0544
   454.28         43.3278
   454.42         43.5321
   454.56         43.7115
   454.70         43.9133
   454.84         44.1757
   454.98         44.5216
   455.12         44.9515
   455.26         45.4415
   455.40         45.9582
   455.54         46.4775
   455.68         46.9835
   455.82         47.4548
   455.96         47.8673
   456.10         48.2094
   456.24         48.4822
   456.38         48.6943
   456.52         48.8522
   456.66         48.9520
   456.80         48.9870
   456.94         48.9612
   457.08         48.8856
   457.22         48.7651
   457.36         48.5982
   457.50         48.3902
   457.64         48.1582
   457.78         47.9294
   457.92         47.7342
   458.06         47.5946
   458.20         47.5150
   458.34         47.4817
   458.48         47.4745
   458.62         47.4822
   458.76         47.5006
   458.90         47.5203
   459.04         47.5280
   459.18         47.5113
   459.32         47.4708
   459.46         47.4317
   459.60         47.4428
   459.74         47.5564
   459.88         47.8091
   460.02         48.2164
   460.16         48.7717
   460.30         49.4494
   460.44         50.2117
   460.58         51.0154
   460.72         51.8206
   460.86         52.5955
   461.00         53.3161
   461.14         53.9649
   461.28         54.5294
   461.42         54.9975
   461.56         55.3607
   461.70         55.6191
   461.84         55.7843
   461.98         55.8749
   462.12         55.9049
   462.26         55.8755
   462.40         55.7711
   462.54         55.5696
   462.68         55.2566
   462.82         54.8321
   462.96         54.3111
   463.10         53.7153
   463.24         53.0647
   463.38         52.3721
   463.52         51.6478
   463.66         50.9101
   463.80         50.1894
   463.94         49.5280
   464.08         48.9705
   464.22         48.5509
   464.36         48.2888
   464.50         48.1943
   464.64         48.2771
   464.78         48.5446
   464.92         48.9912
   465.06         49.5898
   465.20         50.2875
   465.34         51.0069
   465.48         51.6563
   465.62         52.1511
   465.76         52.4327
   465.90         52.4768
   466.04         52.2955
   466.18         51.9344
   466.32         51.4643
   466.46         50.9658
   466.60         50.5135
   466.74         50.1586
   466.88         49.9282
   467.02         49.8392
   467.16         49.9046
   467.30         50.1205
   467.44         50.4469
   467.58         50.8130
   467.72         51.1468
   467.86         51.3949
   468.00         51.5293
   468.14         51.5563
   468.28         51.5166
   468.42         51.4638
   468.56         51.4354
   468.70         51.4389
   468.84         51.4616
   468.98         51.4868
   469.12         51.4989
   469.26         51.4810
   469.40         51.4192
   469.54         51.3086
   469.68         51.1565
   469.82         50.9791
   469.96         50.7958
   470.10         50.6253
   470.24         50.4839
   470.38         50.3879
   470.52         50.3557
   470.66         50.4082
   470.80         50.5670
   470.94         50.8420
   471.08         51.2221
   471.22         51.6827
   471.36         52.1936
   471.50         52.7182
   471.64         53.2079
   471.78         53.6042
   471.92         53.8559
   472.06         53.9329
   472.20         53.8316
   472.34         53.5737
   472.48         53.2006
   472.62         52.7659
   472.76         52.3296
   472.90         51.9519
   473.04         51.6891
   473.18         51.5869
   473.32         51.6712
   473.46         51.9419
   473.60         52.3754
   473.74         52.9299
   473.88         53.5529
   474.02         54.1841
   474.16         54.7634
   474.30         55.2463
   474.44         55.6142
   474.58         55.8716
   474.72         56.0357
   474.86         56.1245
   475.00         56.1485
   475.14         56.1092
   475.28         56.0021
   475.42         55.8186
   475.56         55.5517
   475.70         55.2093
   475.84         54.8183
   475.98         54.4135
   476.12         54.0293
   476.26         53.7015
   476.40         53.4659
   476.54         53.3520
   476.68         53.3765
   476.82         53.5411
   476.96         53.8298
   477.10         54.2092
   477.24         54.6335
   477.38         55.0505
   477.52         55.4074
   477.66         55.6588
   477.80         55.7791
   477.94         55.7696
   478.08         55.6620
   478.22         55.5123
   478.36         55.3837
   478.50         55.3244
   478.64         55.3584
   478.78         55.4925
   478.92         55.7239
   479.06         56.0413
   479.20         56.4217
   479.34         56.8300
   479.48         57.2222
   479.62         57.5546
   479.76         57.7977
   479.90         57.9428
   480.04         57.9996
   480.18         57.9881
   480.32         57.9362
   480.46         57.8753
   480.60         57.8343
   480.74         57.8358
   480.88         57.8871
   481.02         57.9776
   481.16         58.0868
   481.30         58.1955
   481.44         58.2924
   481.58         58.3707
   481.72         58.4220
   481.86         58.4335
   482.00         58.3870
   482.14         58.2704
   482.28         58.0943
   482.42         57.8864
   482.56         57.6724
   482.70         57.4674
   482.84         57.2792
   482.98         57.1144
   483.12         56.9788
   483.26         56.8776
   483.40         56.8161
   483.54         56.7953
   483.68         56.8110
   483.82         56.8614
   483.96         56.9437
   484.10         57.0493
   484.24         57.1625
   484.38         57.2618
   484.52         57.3262
   484.66         57.3381
   484.80         57.2821
   484.94         57.1411
   485.08         56.8926
   485.22         56.5204
   485.36         56.0321
   485.50         55.4643
   485.64         54.8701
   485.78         54.3017
   485.92         53.7958
   486.06         53.3682
   486.20         53.0238
   486.34         52.7686
   486.48         52.6130
   486.62         52.5652
   486.76         52.6297
   486.90         52.8029
   487.04         53.0704
   487.18         53.4145
   487.32         53.8093
   487.46         54.2136
   487.60         54.5844
   487.74         54.8929
   487.88         55.1225
   488.02         55.2609
   488.16         55.3049
   488.30         55.2746
   488.44         55.2193
   488.58         55.2058
   488.72         55.3040
   488.86         55.5745
   489.00         56.0492
   489.14         56.7199
   489.28         57.5429
   489.42         58.4537
   489.56         59.3814
   489.70         60.2553
   489.84         61.0067
   489.98         61.5731
   490.12         61.9131
   490.26         62.0210
   490.40         61.9276
   490.54         61.6900
   490.68         61.3766
   490.82         61.0439
   490.96         60.7191
   491.10         60.4016
   491.24         60.0766
   491.38         59.7289
   491.52         59.3542
   491.66         58.9705
   491.80         58.6224
   491.94         58.3705
   492.08         58.2703
   492.22         58.3486
   492.36         58.5932
   492.50         58.9702
   492.64         59.4385
   492.78         59.9465
   492.92         60.4343
   493.06         60.8518
   493.20         61.1671
   493.34         61.3570
   493.48         61.4135
   493.62         61.3658
   493.76         61.2801
   493.90         61.2337
   494.04         61.2898
   494.18         61.4929
   494.32         61.8663
   494.46         62.3999
   494.60         63.0393
   494.74         63.6910
   494.88         64.2572
   495.02         64.6751
   495.16         64.9217
   495.30         64.9965
   495.44         64.9101
   495.58         64.6871
   495.72         64.3649
   495.86         63.9835
   496.00         63.5781
   496.14         63.1859
   496.28         62.8513
   496.42         62.6186
   496.56         62.5159
   496.70         62.5447
   496.84         62.6803
   496.98         62.8740
   497.12         63.0587
   497.26         63.1583
   497.40         63.1111
   497.54         62.8959
   497.68         62.5239
   497.82         62.0177
   497.96         61.4041
   498.10         60.7220
   498.24         60.0292
   498.38         59.3996
   498.52         58.9064
   498.66         58.6025
   498.80         58.5081
   498.94         58.6026
   499.08         58.8207
   499.22         59.0623
   499.36         59.2264
   499.50         59.2387
   499.64         59.0552
   499.78         58.6643
   499.92         58.0979
   500.06         57.4250
   500.20         56.7225
   500.34         56.0498
   500.48         55.4478
   500.62         54.9468
   500.76         54.5697
   500.90         54.3277
   501.04         54.2159
   501.18         54.2132
   501.32         54.2913
   501.46         54.4252
   501.60         54.5972
   501.74         54.7979
   501.88         55.0307
   502.02         55.3158
   502.16         55.6793
   502.30         56.1424
   502.44         56.7156
   502.58         57.3792
   502.72         58.0753
   502.86         58.7231
   503.00         59.2395
   503.14         59.5593
   503.28         59.6528
   503.42         59.5339
   503.56         59.2536
   503.70         58.8790
   503.84         58.4719
   503.98         58.0824
   504.12         57.7508
   504.26         57.5075
   504.40         57.3781
   504.54         57.3922
   504.68         57.5745
   504.82         57.9285
   504.96         58.4330
   505.10         59.0446
   505.24         59.7072
   505.38         60.3642
   505.52         60.9623
   505.66         61.4569
   505.80         61.8263
   505.94         62.0705
   506.08         62.1940
   506.22         62.1892
   506.36         62.0405
   506.50         61.7442
   506.64         61.3219
   506.78         60.8152
   506.92         60.2658
   507.06         59.7037
   507.20         59.1484
   507.34         58.6138
   507.48         58.1127
   507.62         57.6615
   507.76         57.2759
   507.90         56.9634
   508.04         56.7312
   508.18         56.5979
   508.32         56.5929
   508.46         56.7391
   508.60         57.0374
   508.74         57.4614
   508.88         57.9577
   509.02         58.4629
   509.16         58.9203
   509.30         59.2828
   509.44         59.5129
   509.58         59.5878
   509.72         59.5071
   509.86         59.2931
   510.00         58.9801
   510.14         58.6087
   510.28         58.2250
   510.42         57.8774
   510.56         57.6115
   510.70         57.4631
   510.84         57.4484
   510.98         57.5559
   511.12         57.7456
   511.26         57.9609
   511.40         58.1451
   511.54         58.2554
   511.68         58.2694
   511.82         58.1750
   511.96         57.9624
   512.10         57.6346
   512.24         57.2164
   512.38         56.7541
   512.52         56.3104
   512.66         55.9511
   512.80         55.7261
   512.94         55.6597
   513.08         55.7480
   513.22         55.9567
   513.36         56.2306
   513.50         56.5067
   513.64         56.7214
   513.78         56.8229
   513.92         56.7848
   514.06         56.6076
   514.20         56.3118
   514.34         55.9301
   514.48         55.5057
   514.62         55.0996
   514.76         54.7837
   514.90         54.6197
   515.04         54.6434
   515.18         54.8547
   515.32         55.2125
   515.46         55.6376
   515.60         56.0221
   515.74         56.2520
   515.88         56.2370
   516.02         55.9218
   516.16         55.2735
   516.30         54.2861
   516.44         53.0077
   516.58         51.5444
   516.72         50.0397
   516.86         48.6467
   517.00         47.4981
   517.14         46.6782
   517.28         46.2109
   517.42         46.0749
   517.56         46.2355
   517.70         46.6579
   517.84         47.2986
   517.98         48.1009
   518.12         48.9958
   518.26         49.9175
   518.40         50.8307
   518.54         51.7313
   518.68         52.6231
   518.82         53.5081
   518.96         54.3956
   519.10         55.2968
   519.24         56.1954
   519.38         57.0274
   519.52         57.6910
   519.66         58.0802
   519.80         58.1247
   519.94         57.8268
   520.08         57.2712
   520.22         56.5894
   520.36         55.9066
   520.50         55.3127
   520.64         54.8720
   520.78         54.6418
   520.92         54.6783
   521.06         55.0278
   521.20         55.6988
   521.34         56.6358
   521.48         57.7231
   521.62         58.8187
   521.76         59.7965
   521.90         60.5719
   522.04         61.1011
   522.18         61.3794
   522.32         61.4479
   522.46         61.3904
   522.60         61.3183
   522.74         61.3419
   522.88         61.5363
   523.02         61.9328
   523.16         62.5307
   523.30         63.3104
   523.44         64.2299
   523.58         65.2093
   523.72         66.1390
   523.86         66.9031
   524.00         67.4063
   524.14         67.6062
   524.28         67.5199
   524.42         67.2068
   524.56         66.7452
   524.70         66.2173
   524.84         65.7041
   524.98         65.2778
   525.12         64.9806
   525.26         64.8078
   525.40         64.7084
   525.54         64.6052
   525.68         64.4185
   525.82         64.0682
   525.96         63.4829
   526.10         62.6307
   526.24         61.5411
   526.38         60.3026
   526.52         59.0457
   526.66         57.9279
   526.80         57.1112
   526.94         56.7202
   527.08         56.8143
   527.22         57.3896
   527.36         58.3886
   527.50         59.7137
   527.64         61.2434
   527.78         62.8538
   527.92         64.4401
   528.06         65.9298
   528.20         67.2786
   528.34         68.4524
   528.48         69.4203
   528.62         70.1631
   528.76         70.6765
   528.90         70.9654
   529.04         71.0414
   529.18         70.9317
   529.32         70.6860
   529.46         70.3625
   529.60         70.0179
   529.74         69.7161
   529.88         69.5352
   530.02         69.5509
   530.16         69.8098
   530.30         70.3131
   530.44         71.0201
   530.58         71.8635
   530.72         72.7602
   530.86         73.6191
   531.00         74.3522
   531.14         74.8879
   531.28         75.1811
   531.42         75.2165
   531.56         74.9964
   531.70         74.5205
   531.84         73.7924
   531.98         72.8444
   532.12         71.7447
   532.26         70.5841
   532.40         69.4651
   532.54         68.4888
   532.68         67.7386
   532.82         67.2644
   532.96         67.0780
   533.10         67.1638
   533.24         67.4918
   533.38         68.0165
   533.52         68.6758
   533.66         69.3938
   533.80         70.0881
   533.94         70.6873
   534.08         71.1487
   534.22         71.4674
   534.36         71.6837
   534.50         71.8842
   534.64         72.1719
   534.78         72.6227
   534.92         73.2593
   535.06         74.0546
   535.20         74.9475
   535.34         75.8575
   535.48         76.6987
   535.62         77.3973
   535.76         77.8967
   535.90         78.1445
   536.04         78.0962
   536.18         77.7434
   536.32         77.1298
   536.46         76.3422
   536.60         75.4914
   536.74         74.6929
   536.88         74.0477
   537.02         73.6238
   537.16         73.4475
   537.30         73.5081
   537.44         73.7680
   537.58         74.1720
   537.72         74.6527
   537.86         75.1337
   538.00         75.5357
   538.14         75.7866
   538.28         75.8339
   538.42         75.6468
   538.56         75.2215
   538.70         74.5923
   538.84         73.8301
   538.98         73.0171
   539.12         72.2162
   539.26         71.4618
   539.40         70.7635
   539.54         70.1109
   539.68         69.4891
   539.82         68.8952
   539.96         68.3431
   540.10         67.8597
   540.24         67.4786
   540.38         67.2383
   540.52         67.1814
   540.66         67.3475
   540.80         67.7561
   540.94         68.3965
   541.08         69.2335
   541.22         70.2207
   541.36         71.3060
   541.50         72.4293
   541.64         73.5140
   541.78         74.4640
   541.92         75.1828
   542.06         75.6059
   542.20         75.7161
   542.34         75.5330
   542.48         75.1012
   542.62         74.4909
   542.76         73.7973
   542.90         73.1282
   543.04         72.5822
   543.18         72.2310
   543.32         72.1095
   543.46         72.2083
   543.60         72.4807
   543.74         72.8655
   543.88         73.3062
   544.02         73.7556
   544.16         74.1756
   544.30         74.5269
   544.44         74.7636
   544.58         74.8541
   544.72         74.8048
   544.86         74.6563
   545.00         74.4633
   545.14         74.2850
   545.28         74.1748
   545.42         74.1706
   545.56         74.2853
   545.70         74.5009
   545.84         74.7770
   545.98         75.0642
   546.12         75.3122
   546.26         75.4869
   546.40         75.5791
   546.54         75.5883
   546.68         75.5048
   546.82         75.3149
   546.96         75.0111
   547.10         74.6017
   547.24         74.1221
   547.38         73.6349
   547.52         73.2068
   547.66         72.8814
   547.80         72.6784
   547.94         72.6112
   548.08         72.6898
   548.22         72.9062
   548.36         73.2337
   548.50         73.6383
   548.64         74.0856
   548.78         74.5458
   548.92         74.9994
   549.06         75.4298
   549.20         75.8177
   549.34         76.1507
   549.48         76.4265
   549.62         76.6412
   549.76         76.7920
   549.90         76.8933
   550.04         76.9649
   550.18         77.0055
   550.32         76.9905
   550.46         76.8954
   550.60         76.7179
   550.74         76.4771
   550.88         76.2081
   551.02         75.9603
   551.16         75.7869
   551.30         75.7306
   551.44         75.8141
   551.58         76.0331
   551.72         76.3561
   551.86         76.7392
   552.00         77.1441
   552.14         77.5430
   552.28         77.9107
   552.42         78.2262
   552.56         78.4723
   552.70         78.6334
   552.84         78.7063
   552.98         78.7137
   553.12         78.7010
   553.26         78.7152
   553.40         78.7870
   553.54         78.9236
   553.68         79.1147
   553.82         79.3424
   553.96         79.5912
   554.10         79.8502
   554.24         80.1087
   554.38         80.3567
   554.52         80.5898
   554.66         80.8117
   554.80         81.0248
   554.94         81.2236
   555.08         81.3981
   555.22         81.5386
   555.36         81.6355
   555.50         81.6785
   555.64         81.6542
   555.78         81.5444
   555.92         81.3329
   556.06         81.0193
   556.20         80.6265
   556.34         80.1959
   556.48         79.7758
   556.62         79.4078
   556.76         79.1200
   556.90         78.9252
   557.04         78.8272
   557.18         78.8281
   557.32         78.9226
   557.46         79.0883
   557.60         79.2817
   557.74         79.4397
   557.88         79.4939
   558.02         79.3897
   558.16         79.0985
   558.30         78.6179
   558.44         77.9750
   558.58         77.2319
   558.72         76.4759
   558.86         75.7948
   559.00         75.2542
   559.14         74.8883
   559.28         74.7025
   559.42         74.6865
   559.56         74.8277
   559.70         75.1162
   559.84         75.5378
   559.98         76.0658
   560.12         76.6651
   560.26         77.3000
   560.40         77.9377
   560.54         78.5455
   560.68         79.0917
   560.82         79.5479
   560.96         79.8926
   561.10         80.1152
   561.24         80.2163
   561.38         80.1927
   561.52         80.0296
   561.66         79.7194
   561.80         79.2863
   561.94         78.7941
   562.08         78.3348
   562.22         78.0000
   562.36         77.8509
   562.50         77.9041
   562.64         78.1366
   562.78         78.5005
   562.92         78.9305
   563.06         79.3511
   563.20         79.6932
   563.34         79.9128
   563.48         79.9938
   563.62         79.9404
   563.76         79.7693
   563.90         79.4996
   564.04         79.1517
   564.18         78.7610
   564.32         78.3841
   564.46         78.0818
   564.60         77.8973
   564.74         77.8380
   564.88         77.8721
   565.02         77.9445
   565.16         78.0024
   565.30         78.0102
   565.44         77.9536
   565.58         77.8384
   565.72         77.6826
   565.86         77.5069
   566.00         77.3302
   566.14         77.1730
   566.28         77.0598
   566.42         77.0190
   566.56         77.0805
   566.70         77.2726
   566.84         77.6107
   566.98         78.0823
   567.12         78.6483
   567.26         79.2583
   567.40         79.8625
   567.54         80.4186
   567.68         80.8939
   567.82         81.2651
   567.96         81.5178
   568.10         81.6492
   568.24         81.6719
   568.38         81.6089
   568.52         81.4851
   568.66         81.3296
   568.80         81.1756
   568.94         81.0496
   569.08         80.9574
   569.22         80.8784
   569.36         80.7736
   569.50         80.6024
   569.64         80.3334
   569.78         79.9433
   569.92         79.4148
   570.06         78.7415
   570.20         77.9386
   570.34         77.0498
   570.48         76.1492
   570.62         75.3299
   570.76         74.6822
   570.90         74.2785
   571.04         74.1612
   571.18         74.3433
   571.32         74.8183
   571.46         75.5636
   571.60         76.5325
   571.74         77.6527
   571.88         78.8371
   572.02         80.0002
   572.16         81.0645
   572.30         81.9619
   572.44         82.6445
   572.58         83.0992
   572.72         83.3469
   572.86         83.4278
   573.00         83.3865
   573.14         83.2668
   573.28         83.1102
   573.42         82.9549
   573.56         82.8329
   573.70         82.7652
   573.84         82.7605
   573.98         82.8170
   574.12         82.9223
   574.26         83.0496
   574.40         83.1643
   574.54         83.2456
   574.68         83.3001
   574.82         83.3524
   574.96         83.4230
   575.10         83.5119
   575.24         83.6000
   575.38         83.6705
   575.52         83.7276
   575.66         83.7931
   575.80         83.8929
   575.94         84.0450
   576.08         84.2534
   576.22         84.5068
   576.36         84.7826
   576.50         85.0580
   576.64         85.3176
   576.78         85.5489
   576.92         85.7294
   577.06         85.8198
   577.20         85.7732
   577.34         85.5453
   577.48         85.0962
   577.62         84.4040
   577.76         83.4899
   577.90         82.4276
   578.04         81.3225
   578.18         80.2799
   578.32         79.3903
   578.46         78.7248
   578.60         78.3270
   578.74         78.2079
   578.88         78.3558
   579.02         78.7539
   579.16         79.3781
   579.30         80.1762
   579.44         81.0611
   579.58         81.9284
   579.72         82.6900
   579.86         83.3029
   580.00         83.7705
   580.14         84.1251
   580.28         84.4080
   580.42         84.6528
   580.56         84.8787
   580.70         85.1004
   580.84         85.3402
   580.98         85.6204
   581.12         85.9469
   581.26         86.3110
   581.40         86.7017
   581.54         87.1129
   581.68         87.5374
   581.82         87.9529
   581.96         88.3254
   582.10         88.6302
   582.24         88.8591
   582.38         89.0132
   582.52         89.0978
   582.66         89.1210
   582.80         89.0909
   582.94         89.0202
   583.08         88.9357
   583.22         88.8759
   583.36         88.8757
   583.50         88.9448
   583.64         89.0623
   583.78         89.1949
   583.92         89.3152
   584.06         89.4037
   584.20         89.4431
   584.34         89.4206
   584.48         89.3267
   584.62         89.1502
   584.76         88.8815
   584.90         88.5227
   585.04         88.0963
   585.18         87.6412
   585.32         87.1997
   585.46         86.8072
   585.60         86.4900
   585.74         86.2661
   585.88         86.1474
   586.02         86.1393
   586.16         86.2396
   586.30         86.4447
   586.44         86.7542
   586.58         87.1589
   586.72         87.6276
   586.86         88.1087
   587.00         88.5438
   587.14         88.8771
   587.28         89.0629
   587.42         89.0761
   587.56         88.9074
   587.70         88.5293
   587.84         87.8725
   587.98         86.8605
   588.12         85.4685
   588.26         83.7344
   588.40         81.7285
   588.54         79.5374
   588.68         77.2751
   588.82         75.0879
   588.96         73.1396
   589.10         71.5890
   589.24         70.5642
   589.38         70.1461
   589.52         70.3680
   589.66         71.2197
   589.80         72.6452
   589.94         74.5381
   590.08         76.7436
   590.22         79.0681
   590.36         81.3056
   590.50         83.2901
   590.64         84.9383
   590.78         86.2376
   590.92         87.1999
   591.06         87.8469
   591.20         88.2311
   591.34         88.4356
   591.48         88.5400
   591.62         88.5998
   591.76         88.6467
   591.90         88.6955
   592.04         88.7534
   592.18         88.8246
   592.32         88.8982
   592.46         88.9501
   592.60         88.9589
   592.74         88.9107
   592.88         88.7967
   593.02         88.6160
   593.16         88.3794
   593.30         88.1104
   593.44         87.8401
   593.58         87.5975
   593.72         87.3974
   593.86         87.2437
   594.00         87.1387
   594.14         87.0794
   594.28         87.0543
   594.42         87.0488
   594.56         87.0466
   594.70         87.0335
   594.84         87.0047
   594.98         86.9653
   595.12         86.9319
   595.26         86.9222
   595.40         86.9384
   595.54         86.9729
   595.68         87.0244
   595.82         87.1041
   595.96         87.2301
   596.10         87.4173
   596.24         87.6667
   596.38         87.9579
   596.52         88.2552
   596.66         88.5220
   596.80         88.7272
   596.94         88.8504
   597.08         88.8823
   597.22         88.8181
   597.36         88.6598
   597.50         88.4238
   597.64         88.1335
   597.78         87.8108
   597.92         87.4785
   598.06         87.1633
   598.20         86.8994
   598.34         86.7224
   598.48         86.6522
   598.62         86.6829
   598.76         86.7852
   598.90         86.9139
   599.04         87.0217
   599.18         87.0746
   599.32         87.0577
   599.46         86.9706
   599.60         86.8148
   599.74         86.5919
   599.88         86.3156
   600.02         86.0164
   600.16         85.7304
   600.30         85.4851
   600.44         85.2949
   600.58         85.1603
   600.72         85.0733
   600.86         85.0221
   601.00         84.9846
   601.14         84.9411
   601.28         84.8877
   601.42         84.8375
   601.56         84.8153
   601.70         84.8473
   601.84         84.9559
   601.98         85.1592
   602.12         85.4680
   602.26         85.8788
   602.40         86.3804
   602.54         86.9593
   602.68         87.5895
   602.82         88.2304
   602.96         88.8359
   603.10         89.3621
   603.24         89.7757
   603.38         90.0679
   603.52         90.2521
   603.66         90.3541
   603.80         90.4119
   603.94         90.4643
   604.08         90.5369
   604.22         90.6386
   604.36         90.7620
   604.50         90.8930
   604.64         91.0199
   604.78         91.1325
   604.92         91.2181
   605.06         91.2616
   605.20         91.2454
   605.34         91.1539
   605.48         90.9856
   605.62         90.7611
   605.76         90.5203
   605.90         90.3121
   606.04         90.1808
   606.18         90.1561
   606.32         90.2456
   606.46         90.4343
   606.60         90.6859
   606.74         90.9474
   606.88         91.1622
   607.02         91.2829
   607.16         91.2801
   607.30         91.1418
   607.44         90.8684
   607.58         90.4671
   607.72         89.9528
   607.86         89.3532
   608.00         88.7142
   608.14         88.0932
   608.28         87.5423
   608.42         87.0958
   608.56         86.7672
   608.70         86.5536
   608.84         86.4352
   608.98         86.3745
   609.12         86.3301
   609.26         86.2772
   609.40         86.2129
   609.54         86.1484
   609.68         86.1019
   609.82         86.0925
   609.96         86.1349
   610.10         86.2387
   610.24         86.4050
   610.38         86.6258
   610.52         86.8909
   610.66         87.1868
   610.80         87.4859
   610.94         87.7417
   611.08         87.9037
   611.22         87.9384
   611.36         87.8315
   611.50         87.5809
   611.64         87.2010
   611.78         86.7333
   611.92         86.2403
   612.06         85.7839
   612.20         85.4028
   612.34         85.0999
   612.48         84.8432
   612.62         84.5942
   612.76         84.3379
   612.90         84.0751
   613.04         83.8099
   613.18         83.5546
   613.32         83.3280
   613.46         83.1532
   613.60         83.0549
   613.74         83.0587
   613.88         83.1824
   614.02         83.4288
   614.16         83.7899
   614.30         84.2479
   614.44         84.7713
   614.58         85.3164
   614.72         85.8251
   614.86         86.2258
   615.00         86.4469
   615.14         86.4470
   615.28         86.2362
   615.42         85.8595
   615.56         85.3629
   615.70         84.7839
   615.84         84.1548
   615.98         83.5079
   616.12         82.8842
   616.26         82.3316
   616.40         81.8979
   616.54         81.6263
   616.68         81.5489
   616.82         81.6778
   616.96         82.0010
   617.10         82.4892
   617.24         83.1001
   617.38         83.7784
   617.52         84.4584
   617.66         85.0772
   617.80         85.5891
   617.94         85.9621
   618.08         86.1679
   618.22         86.1918
   618.36         86.0475
   618.50         85.7791
   618.64         85.4539
   618.78         85.1397
   618.92         84.8827
   619.06         84.7147
   619.20         84.6634
   619.34         84.7478
   619.48         84.9704
   619.62         85.3198
   619.76         85.7714
   619.90         86.2844
   620.04         86.8004
   620.18         87.2454
   620.32         87.5444
   620.46         87.6399
   620.60         87.5069
   620.74         87.1573
   620.88         86.6296
   621.02         85.9675
   621.16         85.2113
   621.30         84.4053
   621.44         83.6014
   621.58         82.8623
   621.72         82.2513
   621.86         81.8036
   622.00         81.5119
   622.14         81.3486
   622.28         81.2905
   622.42         81.3214
   622.56         81.4232
   622.70         81.5705
   622.84         81.7292
   622.98         81.8678
   623.12         81.9673
   623.26         82.0161
   623.40         82.0053
   623.54         81.9322
   623.68         81.8123
   623.82         81.6771
   623.96         81.5524
   624.10         81.4450
   624.24         81.3424
   624.38         81.2227
   624.52         81.0633
   624.66         80.8464
   624.80         80.5707
   624.94         80.2478
   625.08         79.8844
   625.22         79.4714
   625.36         78.9959
   625.50         78.4675
   625.64         77.9297
   625.78         77.4456
   625.92         77.0803
   626.06         76.8912
   626.20         76.9205
   626.34         77.1834
   626.48         77.6604
   626.62         78.2987
   626.76         79.0285
   626.90         79.7751
   627.04         80.4656
   627.18         81.0363
   627.32         81.4484
   627.46         81.7029
   627.60         81.8335
   627.74         81.8902
   627.88         81.9274
   628.02         81.9942
   628.16         82.1266
   628.30         82.3389
   628.44         82.6237
   628.58         82.9566
   628.72         83.3034
   628.86         83.6300
   629.00         83.9040
   629.14         84.0943
   629.28         84.1776
   629.42         84.1447
   629.56         84.0076
   629.70         83.8056
   629.84         83.5986
   629.98         83.4422
   630.12         83.3698
   630.26         83.3898
   630.40         83.4843
   630.54         83.6147
   630.68         83.7336
   630.82         83.8027
   630.96         83.8047
   631.10         83.7390
   631.24         83.6210
   631.38         83.4841
   631.52         83.3737
   631.66         83.3315
   631.80         83.3879
   631.94         83.5630
   632.08         83.8672
   632.22         84.3013
   632.36         84.8434
   632.50         85.4405
   632.64         86.0242
   632.78         86.5363
   632.92         86.9397
   633.06         87.2134
   633.20         87.3483
   633.34         87.3485
   633.48         87.2379
   633.62         87.0602
   633.76         86.8622
   633.90         86.6853
   634.04         86.5643
   634.18         86.5213
   634.32         86.5598
   634.46         86.6642
   634.60         86.8073
   634.74         86.9524
   634.88         87.0493
   635.02         87.0422
   635.16         86.8874
   635.30         86.5718
   635.44         86.1142
   635.58         85.5574
   635.72         84.9600
   635.86         84.3923
   636.00         83.9312
   636.14         83.6506
   636.28         83.6052
   636.42         83.8155
   636.56         84.2723
   636.70         84.9380
   636.84         85.7468
   636.98         86.6156
   637.12         87.4622
   637.26         88.2191
   637.40         88.8359
   637.54         89.2864
   637.68         89.5748
   637.82         89.7314
   637.96         89.7988
   638.10         89.8117
   638.24         89.7852
   638.38         89.7245
   638.52         89.6409
   638.66         89.5469
   638.80         89.4428
   638.94         89.3130
   639.08         89.1417
   639.22         88.9307
   639.36         88.6971
   639.50         88.4650
   639.64         88.2613
   639.78         88.1081
   639.92         88.0179
   640.06         87.9910
   640.20         88.0171
   640.34         88.0790
   640.48         88.1555
   640.62         88.2208
   640.76         88.2504
   640.90         88.2306
   641.04         88.1667
   641.18         88.0770
   641.32         87.9772
   641.46         87.8843
   641.60         87.8272
   641.74         87.8365
   641.88         87.9217
   642.02         88.0637
   642.16         88.2355
   642.30         88.4179
   642.44         88.5980
   642.58         88.7659
   642.72         88.9086
   642.86         89.0176
   643.00         89.0987
   643.14         89.1665
   643.28         89.2374
   643.42         89.3284
   643.56         89.4534
   643.70         89.6139
   643.84         89.7899
   643.98         89.9428
   644.12         90.0367
   644.26         90.0502
   644.40         89.9719
   644.54         89.8070
   644.68         89.5893
   644.82         89.3738
   644.96         89.2055
   645.10         89.0982
   645.24         89.0460
   645.38         89.0435
   645.52         89.0965
   645.66         89.2139
   645.80         89.3888
   645.94         89.5976
   646.08         89.8111
   646.22         90.0005
   646.36         90.1424
   646.50         90.2328
   646.64         90.2941
   646.78         90.3602
   646.92         90.4509
   647.06         90.5594
   647.20         90.6711
   647.34         90.7782
   647.48         90.8740
   647.62         90.9487
   647.76         90.9936
   647.90         91.0058
   648.04         90.9784
   648.18         90.8867
   648.32         90.6878
   648.46         90.3377
   648.60         89.8146
   648.74         89.1286
   648.88         88.3180
   649.02         87.4455
   649.16         86.5940
   649.30         85.8517
   649.44         85.2956
   649.58         84.9854
   649.72         84.9611
   649.86         85.2468
   650.00         85.8432
   650.14         86.7155
   650.28         87.7925
   650.42         88.9756
   650.56         90.1576
   650.70         91.2438
   650.84         92.1700
   650.98         92.9105
   651.12         93.4749
   651.26         93.8954
   651.40         94.2097
   651.54         94.4479
   651.68         94.6297
   651.82         94.7650
   651.96         94.8540
   652.10         94.8926
   652.24         94.8827
   652.38         94.8363
   652.52         94.7704
   652.66         94.7020
   652.80         94.6465
   652.94         94.6173
   653.08         94.6257
   653.22         94.6772
   653.36         94.7682
   653.50         94.8835
   653.64         95.0032
   653.78         95.1098
   653.92         95.1836
   654.06         95.2011
   654.20         95.1402
   654.34         94.9868
   654.48         94.7381
   654.62         94.4026
   654.76         93.9983
   654.90         93.5340
   655.04         92.9873
   655.18         92.3211
   655.32         91.5286
   655.46         90.6515
   655.60         89.7579
   655.74         88.9152
   655.88         88.1824
   656.02         87.6078
   656.16         87.2253
   656.30         87.0559
   656.44         87.1080
   656.58         87.3757
   656.72         87.8389
   656.86         88.4594
   657.00         89.1852
   657.14         89.9619
   657.28         90.7361
   657.42         91.4546
   657.56         92.0741
   657.70         92.5815
   657.84         93.0029
   657.98         93.3749
   658.12         93.7018
   658.26         93.9526
   658.40         94.0926
   658.54         94.1063
   658.68         94.0002
   658.82         93.8045
   658.96         93.5708
   659.10         93.3567
   659.24         93.2045
   659.38         93.1265
   659.52         93.1099
   659.66         93.1339
   659.80         93.1792
   659.94         93.2312
   660.08         93.2776
   660.22         93.3078
   660.36         93.3157
   660.50         93.3002
   660.64         93.2682
   660.78         93.2429
   660.92         93.2638
   661.06         93.3660
   661.20         93.5561
   661.34         93.8153
   661.48         94.1154
   661.62         94.4245
   661.76         94.7075
   661.90         94.9249
   662.04         95.0349
   662.18         95.0067
   662.32         94.8357
   662.46         94.5489
   662.60         94.1923
   662.74         93.8107
   662.88         93.4442
   663.02         93.1253
   663.16         92.8707
   663.30         92.6817
   663.44         92.5507
   663.58         92.4666
   663.72         92.4183
   663.86         92.3983
   664.00         92.4074
   664.14         92.4525
   664.28         92.5365
   664.42         92.6517
   664.56         92.7813
   664.70         92.9132
   664.84         93.0448
   664.98         93.1734
   665.12         93.2848
   665.26         93.3498
   665.40         93.3369
   665.54         93.2256
   665.68         93.0125
   665.82         92.7165
   665.96         92.3763
   666.10         92.0386
   666.24         91.7488
   666.38         91.5405
   666.52         91.4239
   666.66         91.3867
   666.80         91.4104
   666.94         91.4824
   667.08         91.5904
   667.22         91.7208
   667.36         91.8639
   667.50         92.0109
   667.64         92.1559
   667.78         92.3038
   667.92         92.4719
   668.06         92.6810
   668.20         92.9410
   668.34         93.2457
   668.48         93.5736
   668.62         93.8900
   668.76         94.1580
   668.90         94.3509
   669.04         94.4518
   669.18         94.4526
   669.32         94.3620
   669.46         94.2083
   669.60         94.0248
   669.74         93.8339
   669.88         93.6471
   670.02         93.4700
   670.16         93.3018
   670.30         93.1350
   670.44         92.9555
   670.58         92.7451
   670.72         92.4928
   670.86         92.2042
   671.00         91.9027
   671.14         91.6226
   671.28         91.4002
   671.42         91.2660
   671.56         91.2374
   671.70         91.3129
   671.84         91.4773
   671.98         91.7110
   672.12         91.9943
   672.26         92.3045
   672.40         92.6143
   672.54         92.8941
   672.68         93.1163
   672.82         93.2577
   672.96         93.3042
   673.10         93.2554
   673.24         93.1271
   673.38         92.9491
   673.52         92.7538
   673.66         92.5639
   673.80         92.3898
   673.94         92.2327
   674.08         92.0915
   674.22         91.9658
   674.36         91.8597
   674.50         91.7852
   674.64         91.7624
   674.78         91.8113
   674.92         91.9396
   675.06         92.1385
   675.20         92.3918
   675.34         92.6807
   675.48         92.9823
   675.62         93.2703
   675.76         93.5171
   675.90         93.6976
   676.04         93.7927
   676.18         93.7923
   676.32         93.6994
   676.46         93.5309
   676.60         93.3172
   676.74         93.1020
   676.88         92.9326
   677.02         92.8433
   677.16         92.8434
   677.30         92.9132
   677.44         93.0129
   677.58         93.1025
   677.72         93.1552
   677.86         93.1568
   678.00         93.0980
   678.14         92.9726
   678.28         92.7843
   678.42         92.5512
   678.56         92.3036
   678.70         92.0794
   678.84         91.9169
   678.98         91.8456
   679.12         91.8774
   679.26         92.0063
   679.40         92.2129
   679.54         92.4663
   679.68         92.7316
   679.82         92.9806
   679.96         93.1975
   680.10         93.3812
   680.24         93.5374
   680.38         93.6635
   680.52         93.7489
   680.66         93.7880
   680.80         93.7837
   680.94         93.7470
   681.08         93.6960
   681.22         93.6539
   681.36         93.6411
   681.50         93.6680
   681.64         93.7299
   681.78         93.8106
   681.92         93.8932
   682.06         93.9661
   682.20         94.0204
   682.34         94.0501
   682.48         94.0516
   682.62         94.0201
   682.76         93.9493
   682.90         93.8291
   683.04         93.6504
   683.18         93.4141
   683.32         93.1302
   683.46         92.8127
   683.60         92.4795
   683.74         92.1511
   683.88         91.8482
   684.02         91.5877
   684.16         91.3814
   684.30         91.2335
   684.44         91.1397
   684.58         91.0928
   684.72         91.0817
   684.86         91.0885
   685.00         91.0898
   685.14         91.0611
   685.28         90.9847
   685.42         90.8457
   685.56         90.6129
   685.70         90.2350
   685.84         89.6543
   685.98         88.8231
   686.12         87.7160
   686.26         86.3381
   686.40         84.7283
   686.54         82.9601
   686.68         81.1376
   686.82         79.3846
   686.96         77.8286
   687.10         76.5869
   687.24         75.7543
   687.38         75.3896
   687.52         75.5030
   687.66         76.0561
   687.80         76.9710
   687.94         78.1398
   688.08         79.4286
   688.22         80.6959
   688.36         81.8305
   688.50         82.7710
   688.64         83.5033
   688.78         84.0477
   688.92         84.4401
   689.06         84.7252
   689.20         84.9508
   689.34         85.1575
   689.48         85.3743
   689.62         85.6165
   689.76         85.8859
   689.90         86.1800
   690.04         86.4966
   690.18         86.8241
   690.32         87.1434
   690.46         87.4392
   690.60         87.7045
   690.74         87.9359
   690.88         88.1379
   691.02         88.3239
   691.16         88.5054
   691.30         88.6869
   691.44         88.8635
   691.58         89.0270
   691.72         89.1751
   691.86         89.3074
   692.00         89.4232
   692.14         89.5203
   692.28         89.5933
   692.42         89.6383
   692.56         89.6566
   692.70         89.6504
   692.84         89.6255
   692.98         89.6007
   693.12         89.6016
   693.26         89.6457
   693.40         89.7350
   693.54         89.8605
   693.68         90.0047
   693.82         90.1419
   693.96         90.2491
   694.10         90.3136
   694.24         90.3331
   694.38         90.3088
   694.52         90.2432
   694.66         90.1429
   694.80         90.0223
   694.94         89.9050
   695.08         89.8206
   695.22         89.7978
   695.36         89.8587
   695.50         90.0184
   695.64         90.2825
   695.78         90.6431
   695.92         91.0791
   696.06         91.5635
   696.20         92.0685
   696.34         92.5614
   696.48         92.9991
   696.62         93.3329
   696.76         93.5129
   696.90         93.5037
   697.04         93.3034
   697.18         92.9453
   697.32         92.4876
   697.46         91.9962
   697.60         91.5311
   697.74         91.1421
   697.88         90.8622
   698.02         90.7064
   698.16         90.6781
   698.30         90.7731
   698.44         90.9783
   698.58         91.2706
   698.72         91.6164
   698.86         91.9700
   699.00         92.2785
   699.14         92.4971
   699.28         92.5997
   699.42         92.5806
   699.56         92.4599
   699.70         92.2729
   699.84         92.0505
   699.98         91.8155
   700.12         91.5861
   700.26         91.3767
   700.40         91.1899
   700.54         91.0168
   700.68         90.8540
   700.82         90.7121
   700.96         90.6061
   701.10         90.5388
   701.24         90.4964
   701.38         90.4571
   701.52         90.4053
   701.66         90.3377
   701.80         90.2615
   701.94         90.1881
   702.08         90.1263
   702.22         90.0875
   702.36         90.0854
   702.50         90.1297
   702.64         90.2197
   702.78         90.3421
   702.92         90.4838
   703.06         90.6464
   703.20         90.8476
   703.34         91.1082
   703.48         91.4357
   703.62         91.8214
   703.76         92.2458
   703.90         92.6832
   704.04         93.1024
   704.18         93.4672
   704.32         93.7504
   704.46         93.9441
   704.60         94.0536
   704.74         94.0866
   704.88         94.0532
   705.02         93.9658
   705.16         93.8363
   705.30         93.6752
   705.44         93.4915
   705.58         93.2893
   705.72         93.0608
   705.86         92.7977
   706.00         92.5056
   706.14         92.2076
   706.28         91.9364
   706.42         91.7193
   706.56         91.5766
   706.70         91.5253
   706.84         91.5860
   706.98         91.7780
   707.12         92.0954
   707.26         92.4914
   707.40         92.8947
   707.54         93.2392
   707.68         93.4742
   707.82         93.5618
   707.96         93.4780
   708.10         93.2198
   708.24         92.8129
   708.38         92.3128
   708.52         91.7920
   708.66         91.3166
   708.80         90.9341
   708.94         90.6705
   709.08         90.5311
   709.22         90.5073
   709.36         90.5813
   709.50         90.7246
   709.64         90.8974
   709.78         91.0535
   709.92         91.1533
   710.06         91.1803
   710.20         91.1431
   710.34         91.0625
   710.48         90.9639
   710.62         90.8731
   710.76         90.8121
   710.90         90.7966
   711.04         90.8312
   711.18         90.9109
   711.32         91.0266
   711.46         91.1664
   711.60         91.3136
   711.74         91.4478
   711.88         91.5490
   712.02         91.6011
   712.16         91.5965
   712.30         91.5430
   712.44         91.4597
   712.58         91.3715
   712.72         91.3045
   712.86         91.2784
   713.00         91.3044
   713.14         91.3823
   713.28         91.5033
   713.42         91.6528
   713.56         91.8067
   713.70         91.9368
   713.84         92.0212
   713.98         92.0515
   714.12         92.0292
   714.26         91.9568
   714.40         91.8423
   714.54         91.7084
   714.68         91.5863
   714.82         91.5032
   714.96         91.4744
   715.10         91.5018
   715.24         91.5725
   715.38         91.6664
   715.52         91.7662
   715.66         91.8571
   715.80         91.9187
   715.94         91.9255
   716.08         91.8535
   716.22         91.6875
   716.36         91.4266
   716.50         91.0823
   716.64         90.6740
   716.78         90.2161
   716.92         89.7149
   717.06         89.1806
   717.20         88.6216
   717.34         88.0286
   717.48         87.3812
   717.62         86.6698
   717.76         85.8994
   717.90         85.0805
   718.04         84.2332
   718.18         83.3916
   718.32         82.5992
   718.46         81.9017
   718.60         81.3394
   718.74         80.9409
   718.88         80.7178
   719.02         80.6729
   719.16         80.8016
   719.30         81.0856
   719.44         81.4881
   719.58         81.9649
   719.72         82.4816
   719.86         83.0154
   720.00         83.5588
   720.14         84.1220
   720.28         84.7241
   720.42         85.3833
   720.56         86.1145
   720.70         86.9323
   720.84         87.8383
   720.98         88.8057
   721.12         89.7819
   721.26         90.7086
   721.40         91.5411
   721.54         92.2533
   721.68         92.8293
   721.82         93.2555
   721.96         93.5237
   722.10         93.6339
   722.24         93.5961
   722.38         93.4340
   722.52         93.1807
   722.66         92.8649
   722.80         92.4973
   722.94         92.0863
   723.08         91.6507
   723.22         91.2054
   723.36         90.7503
   723.50         90.2890
   723.64         89.8469
   723.78         89.4619
   723.92         89.1596
   724.06         88.9345
   724.20         88.7597
   724.34         88.6111
   724.48         88.4810
   724.62         88.3729
   724.76         88.2893
   724.90         88.2269
   725.04         88.1781
   725.18         88.1321
   725.32         88.0728
   725.46         87.9899
   725.60         87.8966
   725.74         87.8222
   725.88         87.7913
   726.02         87.8143
   726.16         87.8861
   726.30         87.9825
   726.44         88.0608
   726.58         88.0825
   726.72         88.0380
   726.86         87.9486
   727.00         87.8418
   727.14         87.7326
   727.28         87.6278
   727.42         87.5322
   727.56         87.4501
   727.70         87.3785
   727.84         87.2996
   727.98         87.1871
   728.12         87.0189
   728.26         86.7891
   728.40         86.5120
   728.54         86.2146
   728.68         85.9267
   728.82         85.6798
   728.96         85.5062
   729.10         85.4316
   729.24         85.4732
   729.38         85.6391
   729.52         85.9193
   729.66         86.2843
   729.80         86.6950
   729.94         87.1064
   730.08         87.4719
   730.22         87.7519
   730.36         87.9193
   730.50         87.9706
   730.64         87.9338
   730.78         87.8600
   730.92         87.8051
   731.06         87.8131
   731.20         87.8994
   731.34         88.0507
   731.48         88.2421
   731.62         88.4511
   731.76         88.6620
   731.90         88.8648
   732.04         89.0475
   732.18         89.1958
   732.32         89.3031
   732.46         89.3780
   732.60         89.4402
   732.74         89.5163
   732.88         89.6316
   733.02         89.7989
   733.16         90.0197
   733.30         90.2878
   733.44         90.5945
   733.58         90.9286
   733.72         91.2741
   733.86         91.6063
   734.00         91.8936
   734.14         92.1095
   734.28         92.2374
   734.42         92.2663
   734.56         92.1865
   734.70         91.9965
   734.84         91.7146
   734.98         91.3736
   735.12         91.0023
   735.26         90.6200
   735.40         90.2414
   735.54         89.8798
   735.68         89.5469
   735.82         89.2533
   735.96         89.0117
   736.10         88.8441
   736.24         88.7711
   736.38         88.7991
   736.52         88.9225
   736.66         89.1336
   736.80         89.4315
   736.94         89.8117
   737.08         90.2577
   737.22         90.7434
   737.36         91.2340
   737.50         91.6855
   737.64         92.0457
   737.78         92.2597
   737.92         92.2858
   738.06         92.1128
   738.20         91.7585
   738.34         91.2606
   738.48         90.6706
   738.62         90.0473
   738.76         89.4503
   738.90         88.9273
   739.04         88.5110
   739.18         88.2246
   739.32         88.0826
   739.46         88.0863
   739.60         88.2127
   739.74         88.4164
   739.88         88.6426
   740.02         88.8394
   740.16         88.9690
   740.30         89.0085
   740.44         88.9469
   740.58         88.7851
   740.72         88.5373
   740.86         88.2239
   741.00         87.8651
   741.14         87.4796
   741.28         87.0848
   741.42         86.7021
   741.56         86.3574
   741.70         86.0769
   741.84         85.8801
   741.98         85.7727
   742.12         85.7432
   742.26         85.7695
   742.40         85.8275
   742.54         85.8959
   742.68         85.9550
   742.82         85.9885
   742.96         85.9885
   743.10         85.9550
   743.24         85.8959
   743.38         85.8275
   743.52         85.7695
   743.66         85.7432
   743.80         85.7727
   743.94         85.8801
   744.08         86.0769
   744.22         86.3574
