# File HD21619
# Wavelength [nm]    Normalized Amplitude
   349.70         17.2991
   349.84         17.3267
   349.98         17.3771
   350.12         17.4436
   350.26         17.5206
   350.40         17.6046
   350.54         17.6922
   350.68         17.7770
   350.82         17.8495
   350.96         17.8995
   351.10         17.9175
   351.24         17.8995
   351.38         17.8495
   351.52         17.7770
   351.66         17.6922
   351.80         17.6046
   351.94         17.5206
   352.08         17.4436
   352.22         17.3771
   352.36         17.3267
   352.50         17.2991
   352.64         17.2980
   352.78         17.3253
   352.92         17.3812
   353.06         17.4614
   353.20         17.5585
   353.34         17.6639
   353.48         17.7701
   353.62         17.8721
   353.76         17.9687
   353.90         18.0604
   354.04         18.1467
   354.18         18.2234
   354.32         18.2848
   354.46         18.3265
   354.60         18.3448
   354.74         18.3372
   354.88         18.3036
   355.02         18.2452
   355.16         18.1638
   355.30         18.0618
   355.44         17.9411
   355.58         17.8043
   355.72         17.6543
   355.86         17.4940
   356.00         17.3278
   356.14         17.1637
   356.28         17.0128
   356.42         16.8838
   356.56         16.7820
   356.70         16.7098
   356.84         16.6673
   356.98         16.6525
   357.12         16.6610
   357.26         16.6852
   357.40         16.7166
   357.54         16.7472
   357.68         16.7711
   357.82         16.7844
   357.96         16.7861
   358.10         16.7792
   358.24         16.7719
   358.38         16.7754
   358.52         16.8016
   358.66         16.8605
   358.80         16.9570
   358.94         17.0870
   359.08         17.2375
   359.22         17.3930
   359.36         17.5388
   359.50         17.6616
   359.64         17.7499
   359.78         17.7973
   359.92         17.8017
   360.06         17.7660
   360.20         17.6978
   360.34         17.6070
   360.48         17.5037
   360.62         17.3965
   360.76         17.2924
   360.90         17.1971
   361.04         17.1154
   361.18         17.0497
   361.32         17.0010
   361.46         16.9711
   361.60         16.9619
   361.74         16.9745
   361.88         17.0088
   362.02         17.0631
   362.16         17.1340
   362.30         17.2181
   362.44         17.3121
   362.58         17.4113
   362.72         17.5108
   362.86         17.6049
   363.00         17.6861
   363.14         17.7476
   363.28         17.7861
   363.42         17.8019
   363.56         17.7981
   363.70         17.7769
   363.84         17.7405
   363.98         17.6924
   364.12         17.6376
   364.26         17.5811
   364.40         17.5276
   364.54         17.4822
   364.68         17.4510
   364.82         17.4413
   364.96         17.4569
   365.10         17.4955
   365.24         17.5518
   365.38         17.6193
   365.52         17.6913
   365.66         17.7624
   365.80         17.8294
   365.94         17.8894
   366.08         17.9389
   366.22         17.9755
   366.36         17.9981
   366.50         18.0076
   366.64         18.0060
   366.78         17.9946
   366.92         17.9740
   367.06         17.9454
   367.20         17.9101
   367.34         17.8683
   367.48         17.8201
   367.62         17.7652
   367.76         17.7049
   367.90         17.6432
   368.04         17.5853
   368.18         17.5352
   368.32         17.4941
   368.46         17.4590
   368.60         17.4248
   368.74         17.3889
   368.88         17.3538
   369.02         17.3230
   369.16         17.2970
   369.30         17.2724
   369.44         17.2448
   369.58         17.2127
   369.72         17.1766
   369.86         17.1365
   370.00         17.0918
   370.14         17.0451
   370.28         17.0018
   370.42         16.9708
   370.56         16.9622
   370.70         16.9819
   370.84         17.0278
   370.98         17.0908
   371.12         17.1600
   371.26         17.2293
   371.40         17.2996
   371.54         17.3733
   371.68         17.4514
   371.82         17.5330
   371.96         17.6161
   372.10         17.6950
   372.24         17.7596
   372.38         17.7970
   372.52         17.7985
   372.66         17.7655
   372.80         17.7104
   372.94         17.6539
   373.08         17.6165
   373.22         17.6113
   373.36         17.6406
   373.50         17.6987
   373.64         17.7750
   373.78         17.8562
   373.92         17.9292
   374.06         17.9838
   374.20         18.0162
   374.34         18.0289
   374.48         18.0291
   374.62         18.0273
   374.76         18.0387
   374.90         18.0847
   375.04         18.1904
   375.18         18.3770
   375.32         18.6521
   375.46         19.0023
   375.60         19.3917
   375.74         19.7661
   375.88         20.0661
   376.02         20.2412
   376.16         20.2627
   376.30         20.1313
   376.44         19.8791
   376.58         19.5646
   376.72         19.2613
   376.86         19.0414
   377.00         18.9629
   377.14         19.0625
   377.28         19.3548
   377.42         19.8321
   377.56         20.4644
   377.70         21.2014
   377.84         21.9773
   377.98         22.7179
   378.12         23.3493
   378.26         23.8053
   378.40         24.0349
   378.54         24.0085
   378.68         23.7243
   378.82         23.2104
   378.96         22.5204
   379.10         21.7255
   379.24         20.9063
   379.38         20.1430
   379.52         19.5071
   379.66         19.0570
   379.80         18.8338
   379.94         18.8593
   380.08         19.1325
   380.22         19.6289
   380.36         20.3048
   380.50         21.1042
   380.64         21.9651
   380.78         22.8253
   380.92         23.6283
   381.06         24.3293
   381.20         24.8996
   381.34         25.3255
   381.48         25.6040
   381.62         25.7354
   381.76         25.7207
   381.90         25.5600
   382.04         25.2504
   382.18         24.7882
   382.32         24.1738
   382.46         23.4186
   382.60         22.5487
   382.74         21.6076
   382.88         20.6534
   383.02         19.7558
   383.16         18.9889
   383.30         18.4198
   383.44         18.1002
   383.58         18.0609
   383.72         18.3095
   383.86         18.8307
   384.00         19.5902
   384.14         20.5389
   384.28         21.6175
   384.42         22.7609
   384.56         23.9043
   384.70         24.9909
   384.84         25.9800
   384.98         26.8531
   385.12         27.6108
   385.26         28.2659
   385.40         28.8364
   385.54         29.3394
   385.68         29.7890
   385.82         30.1925
   385.96         30.5478
   386.10         30.8462
   386.24         31.0749
   386.38         31.2194
   386.52         31.2656
   386.66         31.2013
   386.80         31.0170
   386.94         30.7066
   387.08         30.2685
   387.22         29.7053
   387.36         29.0207
   387.50         28.2174
   387.64         27.2992
   387.78         26.2756
   387.92         25.1687
   388.06         24.0158
   388.20         22.8654
   388.34         21.7725
   388.48         20.7938
   388.62         19.9845
   388.76         19.3936
   388.90         19.0582
   389.04         18.9989
   389.18         19.2156
   389.32         19.6888
   389.46         20.3838
   389.60         21.2559
   389.74         22.2536
   389.88         23.3224
   390.02         24.4096
   390.16         25.4721
   390.30         26.4808
   390.44         27.4203
   390.58         28.2834
   390.72         29.0647
   390.86         29.7586
   391.00         30.3614
   391.14         30.8730
   391.28         31.2947
   391.42         31.6263
   391.56         31.8648
   391.70         32.0032
   391.84         32.0266
   391.98         31.9108
   392.12         31.6282
   392.26         31.1602
   392.40         30.5118
   392.54         29.7183
   392.68         28.8421
   392.82         27.9617
   392.96         27.1588
   393.10         26.5074
   393.24         26.0660
   393.38         25.8740
   393.52         25.9476
   393.66         26.2751
   393.80         26.8169
   393.94         27.5086
   394.08         28.2681
   394.22         29.0056
   394.36         29.6348
   394.50         30.0835
   394.64         30.3067
   394.78         30.2943
   394.92         30.0666
   395.06         29.6586
   395.20         29.1021
   395.34         28.4117
   395.48         27.5860
   395.62         26.6178
   395.76         25.5073
   395.90         24.2734
   396.04         22.9569
   396.18         21.6164
   396.32         20.3214
   396.46         19.1477
   396.60         18.1702
   396.74         17.4538
   396.88         17.0456
   397.02         16.9716
   397.16         17.2334
   397.30         17.8076
   397.44         18.6481
   397.58         19.6911
   397.72         20.8637
   397.86         22.0923
   398.00         23.3110
   398.14         24.4697
   398.28         25.5391
   398.42         26.5088
   398.56         27.3822
   398.70         28.1690
   398.84         28.8794
   398.98         29.5222
   399.12         30.1034
   399.26         30.6244
   399.40         31.0830
   399.54         31.4770
   399.68         31.8078
   399.82         32.0816
   399.96         32.3072
   400.10         32.4943
   400.24         32.6527
   400.38         32.7919
   400.52         32.9222
   400.66         33.0525
   400.80         33.1896
   400.94         33.3363
   401.08         33.4910
   401.22         33.6489
   401.36         33.8038
   401.50         33.9490
   401.64         34.0766
   401.78         34.1782
   401.92         34.2472
   402.06         34.2809
   402.20         34.2808
   402.34         34.2532
   402.48         34.2059
   402.62         34.1477
   402.76         34.0883
   402.90         34.0383
   403.04         34.0058
   403.18         33.9941
   403.32         33.9998
   403.46         34.0157
   403.60         34.0347
   403.74         34.0526
   403.88         34.0682
   404.02         34.0820
   404.16         34.0929
   404.30         34.0980
   404.44         34.0939
   404.58         34.0785
   404.72         34.0516
   404.86         34.0138
   405.00         33.9638
   405.14         33.8982
   405.28         33.8125
   405.42         33.7025
   405.56         33.5645
   405.70         33.3975
   405.84         33.2037
   405.98         32.9884
   406.12         32.7588
   406.26         32.5217
   406.40         32.2810
   406.54         32.0368
   406.68         31.7874
   406.82         31.5325
   406.96         31.2734
   407.10         31.0112
   407.24         30.7455
   407.38         30.4735
   407.52         30.1910
   407.66         29.8947
   407.80         29.5816
   407.94         29.2473
   408.08         28.8841
   408.22         28.4807
   408.36         28.0233
   408.50         27.4957
   408.64         26.8808
   408.78         26.1631
   408.92         25.3337
   409.06         24.3971
   409.20         23.3754
   409.34         22.3082
   409.48         21.2487
   409.62         20.2564
   409.76         19.3914
   409.90         18.7094
   410.04         18.2560
   410.18         18.0620
   410.32         18.1384
   410.46         18.4749
   410.60         19.0428
   410.74         19.7999
   410.88         20.6944
   411.02         21.6686
   411.16         22.6652
   411.30         23.6343
   411.44         24.5386
   411.58         25.3567
   411.72         26.0827
   411.86         26.7205
   412.00         27.2784
   412.14         27.7661
   412.28         28.1938
   412.42         28.5717
   412.56         28.9101
   412.70         29.2202
   412.84         29.5123
   412.98         29.7928
   413.12         30.0639
   413.26         30.3252
   413.40         30.5750
   413.54         30.8100
   413.68         31.0263
   413.82         31.2215
   413.96         31.3940
   414.10         31.5415
   414.24         31.6607
   414.38         31.7477
   414.52         31.8003
   414.66         31.8202
   414.80         31.8135
   414.94         31.7885
   415.08         31.7542
   415.22         31.7195
   415.36         31.6922
   415.50         31.6769
   415.64         31.6762
   415.78         31.6916
   415.92         31.7227
   416.06         31.7654
   416.20         31.8113
   416.34         31.8509
   416.48         31.8744
   416.62         31.8725
   416.76         31.8387
   416.90         31.7723
   417.04         31.6790
   417.18         31.5703
   417.32         31.4597
   417.46         31.3590
   417.60         31.2768
   417.74         31.2204
   417.88         31.1955
   418.02         31.2044
   418.16         31.2448
   418.30         31.3103
   418.44         31.3905
   418.58         31.4716
   418.72         31.5401
   418.86         31.5861
   419.00         31.6045
   419.14         31.5938
   419.28         31.5568
   419.42         31.5009
   419.56         31.4359
   419.70         31.3716
   419.84         31.3158
   419.98         31.2742
   420.12         31.2495
   420.26         31.2427
   420.40         31.2534
   420.54         31.2783
   420.68         31.3109
   420.82         31.3430
   420.96         31.3660
   421.10         31.3726
   421.24         31.3572
   421.38         31.3164
   421.52         31.2483
   421.66         31.1548
   421.80         31.0423
   421.94         30.9198
   422.08         30.7956
   422.22         30.6755
   422.36         30.5633
   422.50         30.4628
   422.64         30.3790
   422.78         30.3162
   422.92         30.2770
   423.06         30.2621
   423.20         30.2698
   423.34         30.2953
   423.48         30.3301
   423.62         30.3636
   423.76         30.3848
   423.90         30.3854
   424.04         30.3612
   424.18         30.3137
   424.32         30.2509
   424.46         30.1825
   424.60         30.1161
   424.74         30.0571
   424.88         30.0093
   425.02         29.9773
   425.16         29.9662
   425.30         29.9796
   425.44         30.0180
   425.58         30.0789
   425.72         30.1563
   425.86         30.2401
   426.00         30.3171
   426.14         30.3733
   426.28         30.3986
   426.42         30.3900
   426.56         30.3513
   426.70         30.2912
   426.84         30.2212
   426.98         30.1522
   427.12         30.0921
   427.26         30.0455
   427.40         30.0149
   427.54         30.0007
   427.68         30.0009
   427.82         30.0096
   427.96         30.0176
   428.10         30.0147
   428.24         29.9916
   428.38         29.9416
   428.52         29.8604
   428.66         29.7470
   428.80         29.6038
   428.94         29.4361
   429.08         29.2511
   429.22         29.0561
   429.36         28.8574
   429.50         28.6588
   429.64         28.4617
   429.78         28.2673
   429.92         28.0788
   430.06         27.8996
   430.20         27.7306
   430.34         27.5712
   430.48         27.4213
   430.62         27.2819
   430.76         27.1537
   430.90         27.0341
   431.04         26.9176
   431.18         26.7966
   431.32         26.6636
   431.46         26.5113
   431.60         26.3336
   431.74         26.1271
   431.88         25.8882
   432.02         25.6119
   432.16         25.2914
   432.30         24.9196
   432.44         24.4877
   432.58         23.9843
   432.72         23.3969
   432.86         22.7164
   433.00         21.9447
   433.14         21.0983
   433.28         20.2078
   433.42         19.3145
   433.56         18.4671
   433.70         17.7168
   433.84         17.1105
   433.98         16.6851
   434.12         16.4650
   434.26         16.4618
   434.40         16.6721
   434.54         17.0775
   434.68         17.6472
   434.82         18.3422
   434.96         19.1186
   435.10         19.9322
   435.24         20.7443
   435.38         21.5260
   435.52         22.2601
   435.66         22.9390
   435.80         23.5615
   435.94         24.1276
   436.08         24.6374
   436.22         25.0904
   436.36         25.4853
   436.50         25.8230
   436.64         26.1086
   436.78         26.3509
   436.92         26.5594
   437.06         26.7409
   437.20         26.8987
   437.34         27.0341
   437.48         27.1477
   437.62         27.2412
   437.76         27.3173
   437.90         27.3800
   438.04         27.4332
   438.18         27.4797
   438.32         27.5211
   438.46         27.5595
   438.60         27.5982
   438.74         27.6400
   438.88         27.6851
   439.02         27.7317
   439.16         27.7772
   439.30         27.8177
   439.44         27.8486
   439.58         27.8661
   439.72         27.8693
   439.86         27.8611
   440.00         27.8480
   440.14         27.8372
   440.28         27.8327
   440.42         27.8334
   440.56         27.8350
   440.70         27.8335
   440.84         27.8264
   440.98         27.8134
   441.12         27.7962
   441.26         27.7772
   441.40         27.7574
   441.54         27.7373
   441.68         27.7189
   441.82         27.7055
   441.96         27.6997
   442.10         27.7034
   442.24         27.7170
   442.38         27.7390
   442.52         27.7666
   442.66         27.7975
   442.80         27.8291
   442.94         27.8586
   443.08         27.8833
   443.22         27.9016
   443.36         27.9127
   443.50         27.9165
   443.64         27.9130
   443.78         27.9037
   443.92         27.8902
   444.06         27.8731
   444.20         27.8520
   444.34         27.8269
   444.48         27.7983
   444.62         27.7676
   444.76         27.7374
   444.90         27.7109
   445.04         27.6905
   445.18         27.6779
   445.32         27.6721
   445.46         27.6692
   445.60         27.6634
   445.74         27.6505
   445.88         27.6302
   446.02         27.6057
   446.16         27.5807
   446.30         27.5570
   446.44         27.5351
   446.58         27.5139
   446.72         27.4901
   446.86         27.4574
   447.00         27.4096
   447.14         27.3432
   447.28         27.2596
   447.42         27.1636
   447.56         27.0599
   447.70         26.9527
   447.84         26.8460
   447.98         26.7445
   448.12         26.6543
   448.26         26.5839
   448.40         26.5414
   448.54         26.5317
   448.68         26.5546
   448.82         26.6046
   448.96         26.6727
   449.10         26.7493
   449.24         26.8256
   449.38         26.8944
   449.52         26.9522
   449.66         27.0001
   449.80         27.0427
   449.94         27.0849
   450.08         27.1289
   450.22         27.1737
   450.36         27.2177
   450.50         27.2592
   450.64         27.2960
   450.78         27.3251
   450.92         27.3421
   451.06         27.3409
   451.20         27.3165
   451.34         27.2674
   451.48         27.1958
   451.62         27.1072
   451.76         27.0085
   451.90         26.9058
   452.04         26.8024
   452.18         26.6998
   452.32         26.6017
   452.46         26.5148
   452.60         26.4458
   452.74         26.3983
   452.88         26.3723
   453.02         26.3661
   453.16         26.3781
   453.30         26.4063
   453.44         26.4472
   453.58         26.4941
   453.72         26.5378
   453.86         26.5704
   454.00         26.5861
   454.14         26.5807
   454.28         26.5502
   454.42         26.4932
   454.56         26.4114
   454.70         26.3126
   454.84         26.2092
   454.98         26.1138
   455.12         26.0351
   455.26         25.9769
   455.40         25.9402
   455.54         25.9247
   455.68         25.9296
   455.82         25.9527
   455.96         25.9882
   456.10         26.0285
   456.24         26.0663
   456.38         26.0980
   456.52         26.1235
   456.66         26.1426
   456.80         26.1539
   456.94         26.1553
   457.08         26.1456
   457.22         26.1242
   457.36         26.0928
   457.50         26.0528
   457.64         26.0048
   457.78         25.9513
   457.92         25.8968
   458.06         25.8464
   458.20         25.8040
   458.34         25.7724
   458.48         25.7534
   458.62         25.7476
   458.76         25.7552
   458.90         25.7754
   459.04         25.8054
   459.18         25.8415
   459.32         25.8798
   459.46         25.9173
   459.60         25.9517
   459.74         25.9814
   459.88         26.0053
   460.02         26.0244
   460.16         26.0390
   460.30         26.0490
   460.44         26.0533
   460.58         26.0501
   460.72         26.0373
   460.86         26.0136
   461.00         25.9804
   461.14         25.9410
   461.28         25.8992
   461.42         25.8579
   461.56         25.8184
   461.70         25.7808
   461.84         25.7450
   461.98         25.7106
   462.12         25.6770
   462.26         25.6430
   462.40         25.6061
   462.54         25.5661
   462.68         25.5255
   462.82         25.4875
   462.96         25.4552
   463.10         25.4307
   463.24         25.4161
   463.38         25.4122
   463.52         25.4186
   463.66         25.4333
   463.80         25.4527
   463.94         25.4717
   464.08         25.4854
   464.22         25.4898
   464.36         25.4831
   464.50         25.4657
   464.64         25.4398
   464.78         25.4095
   464.92         25.3792
   465.06         25.3527
   465.20         25.3322
   465.34         25.3175
   465.48         25.3064
   465.62         25.2946
   465.76         25.2782
   465.90         25.2545
   466.04         25.2231
   466.18         25.1860
   466.32         25.1469
   466.46         25.1102
   466.60         25.0798
   466.74         25.0574
   466.88         25.0441
   467.02         25.0402
   467.16         25.0462
   467.30         25.0628
   467.44         25.0900
   467.58         25.1256
   467.72         25.1646
   467.86         25.2011
   468.00         25.2305
   468.14         25.2497
   468.28         25.2574
   468.42         25.2548
   468.56         25.2441
   468.70         25.2267
   468.84         25.2019
   468.98         25.1677
   469.12         25.1210
   469.26         25.0600
   469.40         24.9863
   469.54         24.9052
   469.68         24.8227
   469.82         24.7448
   469.96         24.6765
   470.10         24.6201
   470.24         24.5746
   470.38         24.5373
   470.52         24.5068
   470.66         24.4824
   470.80         24.4642
   470.94         24.4517
   471.08         24.4437
   471.22         24.4377
   471.36         24.4307
   471.50         24.4202
   471.64         24.4059
   471.78         24.3893
   471.92         24.3721
   472.06         24.3550
   472.20         24.3365
   472.34         24.3143
   472.48         24.2874
   472.62         24.2549
   472.76         24.2152
   472.90         24.1677
   473.04         24.1130
   473.18         24.0541
   473.32         23.9954
   473.46         23.9419
   473.60         23.8988
   473.74         23.8703
   473.88         23.8579
   474.02         23.8602
   474.16         23.8737
   474.30         23.8948
   474.44         23.9192
   474.58         23.9427
   474.72         23.9616
   474.86         23.9738
   475.00         23.9776
   475.14         23.9706
   475.28         23.9500
   475.42         23.9144
   475.56         23.8651
   475.70         23.8068
   475.84         23.7453
   475.98         23.6852
   476.12         23.6292
   476.26         23.5790
   476.40         23.5360
   476.54         23.5015
   476.68         23.4765
   476.82         23.4608
   476.96         23.4534
   477.10         23.4524
   477.24         23.4550
   477.38         23.4576
   477.52         23.4560
   477.66         23.4462
   477.80         23.4264
   477.94         23.3967
   478.08         23.3591
   478.22         23.3170
   478.36         23.2742
   478.50         23.2327
   478.64         23.1938
   478.78         23.1581
   478.92         23.1258
   479.06         23.0955
   479.20         23.0646
   479.34         23.0300
   479.48         22.9891
   479.62         22.9403
   479.76         22.8830
   479.90         22.8169
   480.04         22.7411
   480.18         22.6549
   480.32         22.5597
   480.46         22.4591
   480.60         22.3585
   480.74         22.2632
   480.88         22.1770
   481.02         22.1027
   481.16         22.0414
   481.30         21.9920
   481.44         21.9520
   481.58         21.9183
   481.72         21.8871
   481.86         21.8552
   482.00         21.8229
   482.14         21.7914
   482.28         21.7596
   482.42         21.7246
   482.56         21.6826
   482.70         21.6295
   482.84         21.5622
   482.98         21.4795
   483.12         21.3808
   483.26         21.2627
   483.40         21.1190
   483.54         20.9422
   483.68         20.7245
   483.82         20.4586
   483.96         20.1405
   484.10         19.7710
   484.24         19.3536
   484.38         18.8927
   484.52         18.3929
   484.66         17.8576
   484.80         17.2847
   484.94         16.6695
   485.08         16.0136
   485.22         15.3285
   485.36         14.6364
   485.50         13.9673
   485.64         13.3552
   485.78         12.8335
   485.92         12.4304
   486.06         12.1664
   486.20         12.0547
   486.34         12.1014
   486.48         12.3049
   486.62         12.6530
   486.76         13.1227
   486.90         13.6826
   487.04         14.2988
   487.18         14.9382
   487.32         15.5713
   487.46         16.1765
   487.60         16.7428
   487.74         17.2677
   487.88         17.7522
   488.02         18.1987
   488.16         18.6077
   488.30         18.9788
   488.44         19.3121
   488.58         19.6096
   488.72         19.8749
   488.86         20.1132
   489.00         20.3322
   489.14         20.5390
   489.28         20.7391
   489.42         20.9384
   489.56         21.1417
   489.70         21.3484
   489.84         21.5533
   489.98         21.7497
   490.12         21.9309
   490.26         22.0895
   490.40         22.2184
   490.54         22.3121
   490.68         22.3674
   490.82         22.3823
   490.96         22.3567
   491.10         22.2942
   491.24         22.2016
   491.38         22.0876
   491.52         21.9652
   491.66         21.8512
   491.80         21.7622
   491.94         21.7102
   492.08         21.7017
   492.22         21.7360
   492.36         21.8053
   492.50         21.8999
   492.64         22.0108
   492.78         22.1288
   492.92         22.2436
   493.06         22.3463
   493.20         22.4315
   493.34         22.4974
   493.48         22.5466
   493.62         22.5854
   493.76         22.6211
   493.90         22.6599
   494.04         22.7075
   494.18         22.7667
   494.32         22.8358
   494.46         22.9074
   494.60         22.9672
   494.74         23.0006
   494.88         22.9976
   495.02         22.9543
   495.16         22.8749
   495.30         22.7713
   495.44         22.6563
   495.58         22.5407
   495.72         22.4344
   495.86         22.3457
   496.00         22.2810
   496.14         22.2443
   496.28         22.2364
   496.42         22.2539
   496.56         22.2910
   496.70         22.3401
   496.84         22.3906
   496.98         22.4325
   497.12         22.4571
   497.26         22.4597
   497.40         22.4406
   497.54         22.4041
   497.68         22.3566
   497.82         22.3065
   497.96         22.2615
   498.10         22.2245
   498.24         22.1962
   498.38         22.1772
   498.52         22.1679
   498.66         22.1672
   498.80         22.1736
   498.94         22.1859
   499.08         22.2028
   499.22         22.2224
   499.36         22.2407
   499.50         22.2534
   499.64         22.2579
   499.78         22.2541
   499.92         22.2431
   500.06         22.2254
   500.20         22.2020
   500.34         22.1746
   500.48         22.1433
   500.62         22.1059
   500.76         22.0571
   500.90         21.9919
   501.04         21.9089
   501.18         21.8105
   501.32         21.7037
   501.46         21.5979
   501.60         21.5017
   501.74         21.4201
   501.88         21.3533
   502.02         21.3008
   502.16         21.2630
   502.30         21.2419
   502.44         21.2402
   502.58         21.2581
   502.72         21.2922
   502.86         21.3365
   503.00         21.3829
   503.14         21.4226
   503.28         21.4490
   503.42         21.4587
   503.56         21.4529
   503.70         21.4365
   503.84         21.4148
   503.98         21.3910
   504.12         21.3659
   504.26         21.3378
   504.40         21.3047
   504.54         21.2657
   504.68         21.2244
   504.82         21.1880
   504.96         21.1647
   505.10         21.1595
   505.24         21.1708
   505.38         21.1945
   505.52         21.2272
   505.66         21.2670
   505.80         21.3125
   505.94         21.3624
   506.08         21.4134
   506.22         21.4612
   506.36         21.5008
   506.50         21.5273
   506.64         21.5390
   506.78         21.5372
   506.92         21.5234
   507.06         21.4999
   507.20         21.4714
   507.34         21.4435
   507.48         21.4202
   507.62         21.4026
   507.76         21.3898
   507.90         21.3798
   508.04         21.3716
   508.18         21.3645
   508.32         21.3566
   508.46         21.3468
   508.60         21.3348
   508.74         21.3211
   508.88         21.3057
   509.02         21.2884
   509.16         21.2695
   509.30         21.2513
   509.44         21.2361
   509.58         21.2251
   509.72         21.2188
   509.86         21.2180
   510.00         21.2207
   510.14         21.2242
   510.28         21.2265
   510.42         21.2260
   510.56         21.2214
   510.70         21.2134
   510.84         21.2030
   510.98         21.1916
   511.12         21.1819
   511.26         21.1756
   511.40         21.1716
   511.54         21.1674
   511.68         21.1604
   511.82         21.1482
   511.96         21.1298
   512.10         21.1048
   512.24         21.0729
   512.38         21.0347
   512.52         20.9921
   512.66         20.9473
   512.80         20.9013
   512.94         20.8549
   513.08         20.8101
   513.22         20.7703
   513.36         20.7377
   513.50         20.7130
   513.64         20.6962
   513.78         20.6867
   513.92         20.6833
   514.06         20.6846
   514.20         20.6888
   514.34         20.6946
   514.48         20.7031
   514.62         20.7170
   514.76         20.7355
   514.90         20.7531
   515.04         20.7625
   515.18         20.7583
   515.32         20.7370
   515.46         20.6960
   515.60         20.6334
   515.74         20.5480
   515.88         20.4387
   516.02         20.3059
   516.16         20.1540
   516.30         19.9925
   516.44         19.8342
   516.58         19.6921
   516.72         19.5759
   516.86         19.4927
   517.00         19.4464
   517.14         19.4358
   517.28         19.4536
   517.42         19.4895
   517.56         19.5341
   517.70         19.5807
   517.84         19.6231
   517.98         19.6557
   518.12         19.6733
   518.26         19.6720
   518.40         19.6524
   518.54         19.6191
   518.68         19.5787
   518.82         19.5388
   518.96         19.5070
   519.10         19.4876
   519.24         19.4798
   519.38         19.4788
   519.52         19.4783
   519.66         19.4740
   519.80         19.4649
   519.94         19.4531
   520.08         19.4421
   520.22         19.4363
   520.36         19.4384
   520.50         19.4497
   520.64         19.4717
   520.78         19.5037
   520.92         19.5447
   521.06         19.5944
   521.20         19.6522
   521.34         19.7154
   521.48         19.7787
   521.62         19.8333
   521.76         19.8686
   521.90         19.8757
   522.04         19.8517
   522.18         19.8004
   522.32         19.7288
   522.46         19.6436
   522.60         19.5512
   522.74         19.4584
   522.88         19.3720
   523.02         19.2992
   523.16         19.2461
   523.30         19.2163
   523.44         19.2106
   523.58         19.2281
   523.72         19.2650
   523.86         19.3147
   524.00         19.3687
   524.14         19.4182
   524.28         19.4562
   524.42         19.4797
   524.56         19.4887
   524.70         19.4851
   524.84         19.4701
   524.98         19.4439
   525.12         19.4074
   525.26         19.3614
   525.40         19.3063
   525.54         19.2419
   525.68         19.1686
   525.82         19.0861
   525.96         18.9946
   526.10         18.8966
   526.24         18.7954
   526.38         18.6941
   526.52         18.5968
   526.66         18.5090
   526.80         18.4358
   526.94         18.3818
   527.08         18.3513
   527.22         18.3462
   527.36         18.3657
   527.50         18.4063
   527.64         18.4628
   527.78         18.5297
   527.92         18.6020
   528.06         18.6763
   528.20         18.7504
   528.34         18.8232
   528.48         18.8934
   528.62         18.9594
   528.76         19.0195
   528.90         19.0714
   529.04         19.1128
   529.18         19.1416
   529.32         19.1566
   529.46         19.1564
   529.60         19.1401
   529.74         19.1087
   529.88         19.0643
   530.02         19.0095
   530.16         18.9461
   530.30         18.8758
   530.44         18.8012
   530.58         18.7244
   530.72         18.6470
   530.86         18.5709
   531.00         18.5000
   531.14         18.4373
   531.28         18.3847
   531.42         18.3431
   531.56         18.3128
   531.70         18.2920
   531.84         18.2793
   531.98         18.2747
   532.12         18.2782
   532.26         18.2891
   532.40         18.3068
   532.54         18.3287
   532.68         18.3488
   532.82         18.3614
   532.96         18.3649
   533.10         18.3608
   533.24         18.3517
   533.38         18.3413
   533.52         18.3340
   533.66         18.3321
   533.80         18.3357
   533.94         18.3433
   534.08         18.3532
   534.22         18.3637
   534.36         18.3750
   534.50         18.3889
   534.64         18.4059
   534.78         18.4233
   534.92         18.4383
   535.06         18.4490
   535.20         18.4520
   535.34         18.4442
   535.48         18.4246
   535.62         18.3940
   535.76         18.3539
   535.90         18.3074
   536.04         18.2576
   536.18         18.2053
   536.32         18.1514
   536.46         18.0990
   536.60         18.0524
   536.74         18.0162
   536.88         17.9945
   537.02         17.9886
   537.16         17.9966
   537.30         18.0136
   537.44         18.0351
   537.58         18.0574
   537.72         18.0756
   537.86         18.0849
   538.00         18.0828
   538.14         18.0700
   538.28         18.0502
   538.42         18.0284
   538.56         18.0079
   538.70         17.9902
   538.84         17.9772
   538.98         17.9713
   539.12         17.9730
   539.26         17.9800
   539.40         17.9895
   539.54         17.9989
   539.68         18.0069
   539.82         18.0126
   539.96         18.0154
   540.10         18.0163
   540.24         18.0174
   540.38         18.0199
   540.52         18.0242
   540.66         18.0302
   540.80         18.0386
   540.94         18.0498
   541.08         18.0617
   541.22         18.0697
   541.36         18.0692
   541.50         18.0575
   541.64         18.0324
   541.78         17.9943
   541.92         17.9471
   542.06         17.8956
   542.20         17.8441
   542.34         17.7964
   542.48         17.7582
   542.62         17.7349
   542.76         17.7313
   542.90         17.7484
   543.04         17.7837
   543.18         17.8317
   543.32         17.8849
   543.46         17.9363
   543.60         17.9797
   543.74         18.0099
   543.88         18.0243
   544.02         18.0246
   544.16         18.0137
   544.30         17.9937
   544.44         17.9660
   544.58         17.9338
   544.72         17.9018
   544.86         17.8751
   545.00         17.8575
   545.14         17.8506
   545.28         17.8526
   545.42         17.8598
   545.56         17.8663
   545.70         17.8663
   545.84         17.8557
   545.98         17.8340
   546.12         17.8041
   546.26         17.7708
   546.40         17.7375
   546.54         17.7051
   546.68         17.6728
   546.82         17.6388
   546.96         17.6023
   547.10         17.5664
   547.24         17.5362
   547.38         17.5143
   547.52         17.4984
   547.66         17.4856
   547.80         17.4745
   547.94         17.4648
   548.08         17.4554
   548.22         17.4457
   548.36         17.4374
   548.50         17.4333
   548.64         17.4359
   548.78         17.4456
   548.92         17.4605
   549.06         17.4783
   549.20         17.4979
   549.34         17.5182
   549.48         17.5378
   549.62         17.5555
   549.76         17.5703
   549.90         17.5802
   550.04         17.5821
   550.18         17.5745
   550.32         17.5589
   550.46         17.5373
   550.60         17.5110
   550.74         17.4824
   550.88         17.4551
   551.02         17.4324
   551.16         17.4147
   551.30         17.4010
   551.44         17.3899
   551.58         17.3808
   551.72         17.3724
   551.86         17.3620
   552.00         17.3476
   552.14         17.3290
   552.28         17.3073
   552.42         17.2828
   552.56         17.2544
   552.70         17.2215
   552.84         17.1838
   552.98         17.1417
   553.12         17.0959
   553.26         17.0477
   553.40         16.9993
   553.54         16.9534
   553.68         16.9128
   553.82         16.8819
   553.96         16.8653
   554.10         16.8659
   554.24         16.8832
   554.38         16.9153
   554.52         16.9591
   554.66         17.0094
   554.80         17.0585
   554.94         17.0986
   555.08         17.1243
   555.22         17.1336
   555.36         17.1262
   555.50         17.1041
   555.64         17.0713
   555.78         17.0327
   555.92         16.9943
   556.06         16.9615
   556.20         16.9382
   556.34         16.9260
   556.48         16.9245
   556.62         16.9316
   556.76         16.9452
   556.90         16.9618
   557.04         16.9773
   557.18         16.9872
   557.32         16.9882
   557.46         16.9795
   557.60         16.9620
   557.74         16.9371
   557.88         16.9062
   558.02         16.8699
   558.16         16.8298
   558.30         16.7876
   558.44         16.7458
   558.58         16.7071
   558.72         16.6730
   558.86         16.6455
   559.00         16.6270
   559.14         16.6181
   559.28         16.6176
   559.42         16.6217
   559.56         16.6259
   559.70         16.6271
   559.84         16.6239
   559.98         16.6161
   560.12         16.6040
   560.26         16.5878
   560.40         16.5681
   560.54         16.5444
   560.68         16.5158
   560.82         16.4825
   560.96         16.4451
   561.10         16.4048
   561.24         16.3629
   561.38         16.3215
   561.52         16.2830
   561.66         16.2490
   561.80         16.2208
   561.94         16.1999
   562.08         16.1878
   562.22         16.1857
   562.36         16.1937
   562.50         16.2106
   562.64         16.2352
   562.78         16.2661
   562.92         16.3004
   563.06         16.3345
   563.20         16.3645
   563.34         16.3874
   563.48         16.4024
   563.62         16.4112
   563.76         16.4154
   563.90         16.4156
   564.04         16.4121
   564.18         16.4043
   564.32         16.3915
   564.46         16.3738
   564.60         16.3515
   564.74         16.3250
   564.88         16.2944
   565.02         16.2602
   565.16         16.2239
   565.30         16.1879
   565.44         16.1536
   565.58         16.1215
   565.72         16.0920
   565.86         16.0661
   566.00         16.0448
   566.14         16.0305
   566.28         16.0257
   566.42         16.0302
   566.56         16.0415
   566.70         16.0555
   566.84         16.0692
   566.98         16.0805
   567.12         16.0880
   567.26         16.0901
   567.40         16.0848
   567.54         16.0703
   567.68         16.0466
   567.82         16.0160
   567.96         15.9816
   568.10         15.9461
   568.24         15.9121
   568.38         15.8826
   568.52         15.8600
   568.66         15.8455
   568.80         15.8390
   568.94         15.8392
   569.08         15.8424
   569.22         15.8448
   569.36         15.8445
   569.50         15.8410
   569.64         15.8332
   569.78         15.8189
   569.92         15.7962
   570.06         15.7647
   570.20         15.7266
   570.34         15.6850
   570.48         15.6429
   570.62         15.6014
   570.76         15.5603
   570.90         15.5194
   571.04         15.4803
   571.18         15.4464
   571.32         15.4199
   571.46         15.4019
   571.60         15.3938
   571.74         15.3962
   571.88         15.4083
   572.02         15.4282
   572.16         15.4541
   572.30         15.4839
   572.44         15.5148
   572.58         15.5436
   572.72         15.5683
   572.86         15.5879
   573.00         15.6010
   573.14         15.6060
   573.28         15.6022
   573.42         15.5894
   573.56         15.5689
   573.70         15.5436
   573.84         15.5166
   573.98         15.4907
   574.12         15.4686
   574.26         15.4521
   574.40         15.4412
   574.54         15.4346
   574.68         15.4313
   574.82         15.4301
   574.96         15.4304
   575.10         15.4322
   575.24         15.4353
   575.38         15.4392
   575.52         15.4429
   575.66         15.4446
   575.80         15.4430
   575.94         15.4381
   576.08         15.4297
   576.22         15.4177
   576.36         15.4027
   576.50         15.3850
   576.64         15.3644
   576.78         15.3402
   576.92         15.3124
   577.06         15.2823
   577.20         15.2520
   577.34         15.2242
   577.48         15.2018
   577.62         15.1879
   577.76         15.1835
   577.90         15.1863
   578.04         15.1930
   578.18         15.2008
   578.32         15.2061
   578.46         15.2053
   578.60         15.1954
   578.74         15.1748
   578.88         15.1439
   579.02         15.1062
   579.16         15.0670
   579.30         15.0319
   579.44         15.0050
   579.58         14.9883
   579.72         14.9830
   579.86         14.9890
   580.00         15.0047
   580.14         15.0283
   580.28         15.0573
   580.42         15.0878
   580.56         15.1150
   580.70         15.1355
   580.84         15.1472
   580.98         15.1508
   581.12         15.1494
   581.26         15.1472
   581.40         15.1483
   581.54         15.1557
   581.68         15.1703
   581.82         15.1912
   581.96         15.2163
   582.10         15.2427
   582.24         15.2673
   582.38         15.2880
   582.52         15.3031
   582.66         15.3118
   582.80         15.3139
   582.94         15.3089
   583.08         15.2957
   583.22         15.2745
   583.36         15.2468
   583.50         15.2150
   583.64         15.1810
   583.78         15.1463
   583.92         15.1122
   584.06         15.0806
   584.20         15.0536
   584.34         15.0318
   584.48         15.0153
   584.62         15.0055
   584.76         15.0033
   584.90         15.0082
   585.04         15.0191
   585.18         15.0330
   585.32         15.0460
   585.46         15.0543
   585.60         15.0554
   585.74         15.0486
   585.88         15.0357
   586.02         15.0193
   586.16         15.0019
   586.30         14.9864
   586.44         14.9737
   586.58         14.9620
   586.72         14.9489
   586.86         14.9322
   587.00         14.9096
   587.14         14.8798
   587.28         14.8426
   587.42         14.7984
   587.56         14.7471
   587.70         14.6875
   587.84         14.6163
   587.98         14.5321
   588.12         14.4381
   588.26         14.3405
   588.40         14.2448
   588.54         14.1543
   588.68         14.0702
   588.82         13.9947
   588.96         13.9316
   589.10         13.8850
   589.24         13.8587
   589.38         13.8566
   589.52         13.8806
   589.66         13.9299
   589.80         14.0006
   589.94         14.0864
   590.08         14.1794
   590.22         14.2711
   590.36         14.3535
   590.50         14.4219
   590.64         14.4761
   590.78         14.5165
   590.92         14.5418
   591.06         14.5506
   591.20         14.5434
   591.34         14.5219
   591.48         14.4900
   591.62         14.4523
   591.76         14.4124
   591.90         14.3722
   592.04         14.3331
   592.18         14.2974
   592.32         14.2677
   592.46         14.2463
   592.60         14.2347
   592.74         14.2322
   592.88         14.2366
   593.02         14.2441
   593.16         14.2504
   593.30         14.2524
   593.44         14.2481
   593.58         14.2364
   593.72         14.2176
   593.86         14.1924
   594.00         14.1624
   594.14         14.1317
   594.28         14.1036
   594.42         14.0795
   594.56         14.0600
   594.70         14.0472
   594.84         14.0432
   594.98         14.0485
   595.12         14.0620
   595.26         14.0804
   595.40         14.0995
   595.54         14.1157
   595.68         14.1260
   595.82         14.1292
   595.96         14.1248
   596.10         14.1119
   596.24         14.0899
   596.38         14.0609
   596.52         14.0279
   596.66         13.9936
   596.80         13.9609
   596.94         13.9327
   597.08         13.9133
   597.22         13.9057
   597.36         13.9090
   597.50         13.9196
   597.64         13.9330
   597.78         13.9457
   597.92         13.9552
   598.06         13.9597
   598.20         13.9592
   598.34         13.9547
   598.48         13.9483
   598.62         13.9415
   598.76         13.9348
   598.90         13.9290
   599.04         13.9252
   599.18         13.9229
   599.32         13.9200
   599.46         13.9150
   599.60         13.9070
   599.74         13.8941
   599.88         13.8731
   600.02         13.8420
   600.16         13.8012
   600.30         13.7528
   600.44         13.7001
   600.58         13.6464
   600.72         13.5942
   600.86         13.5452
   601.00         13.5013
   601.14         13.4639
   601.28         13.4336
   601.42         13.4111
   601.56         13.3980
   601.70         13.3949
   601.84         13.4004
   601.98         13.4118
   602.12         13.4250
   602.26         13.4351
   602.40         13.4374
   602.54         13.4294
   602.68         13.4123
   602.82         13.3894
   602.96         13.3653
   603.10         13.3449
   603.24         13.3313
   603.38         13.3251
   603.52         13.3251
   603.66         13.3299
   603.80         13.3381
   603.94         13.3483
   604.08         13.3591
   604.22         13.3683
   604.36         13.3730
   604.50         13.3711
   604.64         13.3618
   604.78         13.3462
   604.92         13.3275
   605.06         13.3101
   605.20         13.2972
   605.34         13.2901
   605.48         13.2880
   605.62         13.2891
   605.76         13.2914
   605.90         13.2926
   606.04         13.2914
   606.18         13.2872
   606.32         13.2794
   606.46         13.2680
   606.60         13.2530
   606.74         13.2346
   606.88         13.2137
   607.02         13.1917
   607.16         13.1702
   607.30         13.1505
   607.44         13.1339
   607.58         13.1216
   607.72         13.1137
   607.86         13.1098
   608.00         13.1093
   608.14         13.1121
   608.28         13.1174
   608.42         13.1233
   608.56         13.1272
   608.70         13.1262
   608.84         13.1182
   608.98         13.1020
   609.12         13.0781
   609.26         13.0484
   609.40         13.0152
   609.54         12.9810
   609.68         12.9483
   609.82         12.9198
   609.96         12.8978
   610.10         12.8843
   610.24         12.8800
   610.38         12.8841
   610.52         12.8950
   610.66         12.9105
   610.80         12.9278
   610.94         12.9438
   611.08         12.9554
   611.22         12.9602
   611.36         12.9566
   611.50         12.9445
   611.64         12.9244
   611.78         12.8977
   611.92         12.8660
   612.06         12.8317
   612.20         12.7976
   612.34         12.7665
   612.48         12.7399
   612.62         12.7185
   612.76         12.7025
   612.90         12.6915
   613.04         12.6837
   613.18         12.6768
   613.32         12.6687
   613.46         12.6582
   613.60         12.6453
   613.74         12.6303
   613.88         12.6143
   614.02         12.5991
   614.16         12.5867
   614.30         12.5781
   614.44         12.5738
   614.58         12.5737
   614.72         12.5769
   614.86         12.5816
   615.00         12.5852
   615.14         12.5859
   615.28         12.5839
   615.42         12.5800
   615.56         12.5737
   615.70         12.5633
   615.84         12.5480
   615.98         12.5280
   616.12         12.5043
   616.26         12.4787
   616.40         12.4535
   616.54         12.4308
   616.68         12.4126
   616.82         12.3999
   616.96         12.3930
   617.10         12.3917
   617.24         12.3957
   617.38         12.4044
   617.52         12.4176
   617.66         12.4341
   617.80         12.4527
   617.94         12.4715
   618.08         12.4882
   618.22         12.5003
   618.36         12.5070
   618.50         12.5097
   618.64         12.5109
   618.78         12.5137
   618.92         12.5206
   619.06         12.5324
   619.20         12.5484
   619.34         12.5674
   619.48         12.5875
   619.62         12.6064
   619.76         12.6228
   619.90         12.6363
   620.04         12.6476
   620.18         12.6566
   620.32         12.6624
   620.46         12.6641
   620.60         12.6615
   620.74         12.6552
   620.88         12.6458
   621.02         12.6344
   621.16         12.6219
   621.30         12.6093
   621.44         12.5968
   621.58         12.5842
   621.72         12.5709
   621.86         12.5562
   622.00         12.5389
   622.14         12.5184
   622.28         12.4951
   622.42         12.4696
   622.56         12.4427
   622.70         12.4141
   622.84         12.3827
   622.98         12.3490
   623.12         12.3150
   623.26         12.2838
   623.40         12.2575
   623.54         12.2374
   623.68         12.2237
   623.82         12.2165
   623.96         12.2156
   624.10         12.2201
   624.24         12.2289
   624.38         12.2409
   624.52         12.2550
   624.66         12.2710
   624.80         12.2889
   624.94         12.3083
   625.08         12.3267
   625.22         12.3393
   625.36         12.3413
   625.50         12.3308
   625.64         12.3089
   625.78         12.2778
   625.92         12.2397
   626.06         12.1972
   626.20         12.1531
   626.34         12.1103
   626.48         12.0708
   626.62         12.0350
   626.76         12.0024
   626.90         11.9726
   627.04         11.9451
   627.18         11.9187
   627.32         11.8922
   627.46         11.8652
   627.60         11.8378
   627.74         11.8114
   627.88         11.7886
   628.02         11.7735
   628.16         11.7700
   628.30         11.7794
   628.44         11.8012
   628.58         11.8334
   628.72         11.8735
   628.86         11.9179
   629.00         11.9619
   629.14         12.0011
   629.28         12.0321
   629.42         12.0534
   629.56         12.0649
   629.70         12.0675
   629.84         12.0628
   629.98         12.0530
   630.12         12.0406
   630.26         12.0272
   630.40         12.0135
   630.54         11.9996
   630.68         11.9856
   630.82         11.9718
   630.96         11.9587
   631.10         11.9466
   631.24         11.9356
   631.38         11.9254
   631.52         11.9151
   631.66         11.9044
   631.80         11.8931
   631.94         11.8820
   632.08         11.8719
   632.22         11.8637
   632.36         11.8582
   632.50         11.8555
   632.64         11.8552
   632.78         11.8565
   632.92         11.8587
   633.06         11.8613
   633.20         11.8640
   633.34         11.8664
   633.48         11.8668
   633.62         11.8636
   633.76         11.8559
   633.90         11.8437
   634.04         11.8278
   634.18         11.8097
   634.32         11.7911
   634.46         11.7738
   634.60         11.7598
   634.74         11.7509
   634.88         11.7480
   635.02         11.7510
   635.16         11.7581
   635.30         11.7666
   635.44         11.7737
   635.58         11.7773
   635.72         11.7757
   635.86         11.7672
   636.00         11.7503
   636.14         11.7246
   636.28         11.6924
   636.42         11.6568
   636.56         11.6210
   636.70         11.5875
   636.84         11.5579
   636.98         11.5328
   637.12         11.5121
   637.26         11.4957
   637.40         11.4833
   637.54         11.4743
   637.68         11.4672
   637.82         11.4613
   637.96         11.4561
   638.10         11.4515
   638.24         11.4475
   638.38         11.4441
   638.52         11.4417
   638.66         11.4409
   638.80         11.4432
   638.94         11.4490
   639.08         11.4575
   639.22         11.4678
   639.36         11.4789
   639.50         11.4900
   639.64         11.5001
   639.78         11.5088
   639.92         11.5157
   640.06         11.5204
   640.20         11.5214
   640.34         11.5174
   640.48         11.5068
   640.62         11.4888
   640.76         11.4631
   640.90         11.4306
   641.04         11.3935
   641.18         11.3543
   641.32         11.3153
   641.46         11.2782
   641.60         11.2448
   641.74         11.2172
   641.88         11.1968
   642.02         11.1839
   642.16         11.1775
   642.30         11.1767
   642.44         11.1806
   642.58         11.1875
   642.72         11.1949
   642.86         11.2005
   643.00         11.2028
   643.14         11.2018
   643.28         11.1987
   643.42         11.1950
   643.56         11.1920
   643.70         11.1900
   643.84         11.1885
   643.98         11.1866
   644.12         11.1831
   644.26         11.1766
   644.40         11.1646
   644.54         11.1449
   644.68         11.1164
   644.82         11.0805
   644.96         11.0399
   645.10         10.9972
   645.24         10.9543
   645.38         10.9137
   645.52         10.8788
   645.66         10.8536
   645.80         10.8411
   645.94         10.8426
   646.08         10.8571
   646.22         10.8817
   646.36         10.9132
   646.50         10.9481
   646.64         10.9839
   646.78         11.0178
   646.92         11.0474
   647.06         11.0710
   647.20         11.0883
   647.34         11.1002
   647.48         11.1074
   647.62         11.1101
   647.76         11.1083
   647.90         11.1019
   648.04         11.0911
   648.18         11.0757
   648.32         11.0552
   648.46         11.0285
   648.60         10.9957
   648.74         10.9582
   648.88         10.9192
   649.02         10.8826
   649.16         10.8524
   649.30         10.8315
   649.44         10.8212
   649.58         10.8216
   649.72         10.8322
   649.86         10.8523
   650.00         10.8794
   650.14         10.9097
   650.28         10.9380
   650.42         10.9593
   650.56         10.9699
   650.70         10.9682
   650.84         10.9553
   650.98         10.9335
   651.12         10.9063
   651.26         10.8775
   651.40         10.8513
   651.54         10.8302
   651.68         10.8148
   651.82         10.8042
   651.96         10.7957
   652.10         10.7865
   652.24         10.7735
   652.38         10.7537
   652.52         10.7244
   652.66         10.6834
   652.80         10.6303
   652.94         10.5662
   653.08         10.4933
   653.22         10.4142
   653.36         10.3309
   653.50         10.2442
   653.64         10.1539
   653.78         10.0593
   653.92         9.9593
   654.06         9.8522
   654.20         9.7352
   654.34         9.6055
   654.48         9.4609
   654.62         9.2997
   654.76         9.1199
   654.90         8.9192
   655.04         8.6959
   655.18         8.4510
   655.32         8.1896
   655.46         7.9212
   655.60         7.6580
   655.74         7.4146
   655.88         7.2061
   656.02         7.0469
   656.16         6.9487
   656.30         6.9186
   656.44         6.9591
   656.58         7.0676
   656.72         7.2368
   656.86         7.4552
   657.00         7.7081
   657.14         7.9788
   657.28         8.2510
   657.42         8.5102
   657.56         8.7459
   657.70         8.9523
   657.84         9.1287
   657.98         9.2779
   658.12         9.4041
   658.26         9.5113
   658.40         9.6033
   658.54         9.6837
   658.68         9.7560
   658.82         9.8232
   658.96         9.8874
   659.10         9.9501
   659.24         10.0124
   659.38         10.0745
   659.52         10.1355
   659.66         10.1940
   659.80         10.2484
   659.94         10.2972
   660.08         10.3383
   660.22         10.3704
   660.36         10.3932
   660.50         10.4081
   660.64         10.4172
   660.78         10.4226
   660.92         10.4263
   661.06         10.4300
   661.20         10.4357
   661.34         10.4441
   661.48         10.4549
   661.62         10.4670
   661.76         10.4793
   661.90         10.4915
   662.04         10.5030
   662.18         10.5132
   662.32         10.5214
   662.46         10.5267
   662.60         10.5282
   662.74         10.5255
   662.88         10.5191
   663.02         10.5101
   663.16         10.4995
   663.30         10.4875
   663.44         10.4744
   663.58         10.4607
   663.72         10.4469
   663.86         10.4338
   664.00         10.4214
   664.14         10.4094
   664.28         10.3981
   664.42         10.3878
   664.56         10.3786
   664.70         10.3700
   664.84         10.3613
   664.98         10.3520
   665.12         10.3422
   665.26         10.3325
   665.40         10.3236
   665.54         10.3161
   665.68         10.3107
   665.82         10.3073
   665.96         10.3054
   666.10         10.3043
   666.24         10.3027
   666.38         10.2997
   666.52         10.2942
   666.66         10.2853
   666.80         10.2729
   666.94         10.2575
   667.08         10.2402
   667.22         10.2219
   667.36         10.2039
   667.50         10.1881
   667.64         10.1765
   667.78         10.1708
   667.92         10.1717
   668.06         10.1793
   668.20         10.1923
   668.34         10.2091
   668.48         10.2273
   668.62         10.2453
   668.76         10.2614
   668.90         10.2743
   669.04         10.2829
   669.18         10.2862
   669.32         10.2839
   669.46         10.2767
   669.60         10.2655
   669.74         10.2519
   669.88         10.2373
   670.02         10.2234
   670.16         10.2112
   670.30         10.2008
   670.44         10.1915
   670.58         10.1819
   670.72         10.1711
   670.86         10.1585
   671.00         10.1449
   671.14         10.1317
   671.28         10.1199
   671.42         10.1099
   671.56         10.1013
   671.70         10.0941
   671.84         10.0880
   671.98         10.0827
   672.12         10.0782
   672.26         10.0743
   672.40         10.0713
   672.54         10.0696
   672.68         10.0690
   672.82         10.0695
   672.96         10.0711
   673.10         10.0740
   673.24         10.0781
   673.38         10.0832
   673.52         10.0889
   673.66         10.0942
   673.80         10.0978
   673.94         10.0980
   674.08         10.0938
   674.22         10.0853
   674.36         10.0731
   674.50         10.0576
   674.64         10.0400
   674.78         10.0219
   674.92         10.0053
   675.06         9.9916
   675.20         9.9818
   675.34         9.9768
   675.48         9.9765
   675.62         9.9806
   675.76         9.9874
   675.90         9.9952
   676.04         10.0028
   676.18         10.0094
   676.32         10.0145
   676.46         10.0177
   676.60         10.0192
   676.74         10.0197
   676.88         10.0192
   677.02         10.0175
   677.16         10.0141
   677.30         10.0087
   677.44         10.0010
   677.58         9.9903
   677.72         9.9764
   677.86         9.9597
   678.00         9.9410
   678.14         9.9207
   678.28         9.8995
   678.42         9.8784
   678.56         9.8593
   678.70         9.8443
   678.84         9.8345
   678.98         9.8299
   679.12         9.8299
   679.26         9.8334
   679.40         9.8386
   679.54         9.8441
   679.68         9.8486
   679.82         9.8508
   679.96         9.8497
   680.10         9.8451
   680.24         9.8378
   680.38         9.8294
   680.52         9.8210
   680.66         9.8130
   680.80         9.8056
   680.94         9.7989
   681.08         9.7927
   681.22         9.7869
   681.36         9.7810
   681.50         9.7744
   681.64         9.7666
   681.78         9.7573
   681.92         9.7464
   682.06         9.7339
   682.20         9.7198
   682.34         9.7043
   682.48         9.6882
   682.62         9.6726
   682.76         9.6590
   682.90         9.6482
   683.04         9.6402
   683.18         9.6340
   683.32         9.6285
   683.46         9.6227
   683.60         9.6160
   683.74         9.6082
   683.88         9.5994
   684.02         9.5901
   684.16         9.5811
   684.30         9.5725
   684.44         9.5647
   684.58         9.5583
   684.72         9.5535
   684.86         9.5499
   685.00         9.5469
   685.14         9.5437
   685.28         9.5388
   685.42         9.5291
   685.56         9.5093
   685.70         9.4711
   685.84         9.4056
   685.98         9.3061
   686.12         9.1700
   686.26         8.9991
   686.40         8.8001
   686.54         8.5838
   686.68         8.3635
   686.82         8.1541
   686.96         7.9708
   687.10         7.8276
   687.24         7.7350
   687.38         7.6981
   687.52         7.7162
   687.66         7.7822
   687.80         7.8841
   687.94         8.0066
   688.08         8.1329
   688.22         8.2474
   688.36         8.3394
   688.50         8.4040
   688.64         8.4427
   688.78         8.4604
   688.92         8.4639
   689.06         8.4598
   689.20         8.4542
   689.34         8.4521
   689.48         8.4574
   689.62         8.4721
   689.76         8.4960
   689.90         8.5267
   690.04         8.5612
   690.18         8.5964
   690.32         8.6296
   690.46         8.6597
   690.60         8.6865
   690.74         8.7110
   690.88         8.7340
   691.02         8.7565
   691.16         8.7789
   691.30         8.8015
   691.44         8.8244
   691.58         8.8467
   691.72         8.8674
   691.86         8.8854
   692.00         8.9002
   692.14         8.9119
   692.28         8.9211
   692.42         8.9294
   692.56         8.9388
   692.70         8.9503
   692.84         8.9641
   692.98         8.9802
   693.12         8.9992
   693.26         9.0211
   693.40         9.0446
   693.54         9.0681
   693.68         9.0898
   693.82         9.1090
   693.96         9.1258
   694.10         9.1404
   694.24         9.1531
   694.38         9.1642
   694.52         9.1746
   694.66         9.1849
   694.80         9.1953
   694.94         9.2051
   695.08         9.2131
   695.22         9.2176
   695.36         9.2175
   695.50         9.2129
   695.64         9.2048
   695.78         9.1949
   695.92         9.1850
   696.06         9.1765
   696.20         9.1715
   696.34         9.1719
   696.48         9.1785
   696.62         9.1907
   696.76         9.2072
   696.90         9.2257
   697.04         9.2435
   697.18         9.2582
   697.32         9.2680
   697.46         9.2715
   697.60         9.2687
   697.74         9.2601
   697.88         9.2468
   698.02         9.2303
   698.16         9.2120
   698.30         9.1937
   698.44         9.1772
   698.58         9.1638
   698.72         9.1539
   698.86         9.1473
   699.00         9.1433
   699.14         9.1401
   699.28         9.1359
   699.42         9.1292
   699.56         9.1190
   699.70         9.1054
   699.84         9.0889
   699.98         9.0706
   700.12         9.0513
   700.26         9.0325
   700.40         9.0154
   700.54         9.0010
   700.68         8.9904
   700.82         8.9843
   700.96         8.9825
   701.10         8.9841
   701.24         8.9877
   701.38         8.9913
   701.52         8.9932
   701.66         8.9924
   701.80         8.9884
   701.94         8.9816
   702.08         8.9726
   702.22         8.9620
   702.36         8.9503
   702.50         8.9380
   702.64         8.9264
   702.78         8.9166
   702.92         8.9094
   703.06         8.9049
   703.20         8.9028
   703.34         8.9030
   703.48         8.9051
   703.62         8.9087
   703.76         8.9141
   703.90         8.9210
   704.04         8.9290
   704.18         8.9379
   704.32         8.9478
   704.46         8.9586
   704.60         8.9696
   704.74         8.9797
   704.88         8.9876
   705.02         8.9922
   705.16         8.9927
   705.30         8.9885
   705.44         8.9785
   705.58         8.9623
   705.72         8.9402
   705.86         8.9144
   706.00         8.8878
   706.14         8.8632
   706.28         8.8423
   706.42         8.8256
   706.56         8.8130
   706.70         8.8041
   706.84         8.7986
   706.98         8.7960
   707.12         8.7956
   707.26         8.7968
   707.40         8.7991
   707.54         8.8015
   707.68         8.8034
   707.82         8.8043
   707.96         8.8038
   708.10         8.8021
   708.24         8.7997
   708.38         8.7974
   708.52         8.7956
   708.66         8.7940
   708.80         8.7919
   708.94         8.7890
   709.08         8.7854
   709.22         8.7816
   709.36         8.7783
   709.50         8.7755
   709.64         8.7730
   709.78         8.7700
   709.92         8.7653
   710.06         8.7580
   710.20         8.7478
   710.34         8.7359
   710.48         8.7237
   710.62         8.7128
   710.76         8.7046
   710.90         8.7001
   711.04         8.6999
   711.18         8.7039
   711.32         8.7121
   711.46         8.7239
   711.60         8.7386
   711.74         8.7552
   711.88         8.7730
   712.02         8.7913
   712.16         8.8089
   712.30         8.8247
   712.44         8.8378
   712.58         8.8478
   712.72         8.8548
   712.86         8.8589
   713.00         8.8599
   713.14         8.8567
   713.28         8.8487
   713.42         8.8357
   713.56         8.8184
   713.70         8.7975
   713.84         8.7741
   713.98         8.7499
   714.12         8.7272
   714.26         8.7079
   714.40         8.6929
   714.54         8.6824
   714.68         8.6762
   714.82         8.6738
   714.96         8.6744
   715.10         8.6770
   715.24         8.6804
   715.38         8.6829
   715.52         8.6830
   715.66         8.6795
   715.80         8.6716
   715.94         8.6586
   716.08         8.6401
   716.22         8.6159
   716.36         8.5856
   716.50         8.5498
   716.64         8.5098
   716.78         8.4670
   716.92         8.4222
   717.06         8.3761
   717.20         8.3291
   717.34         8.2817
   717.48         8.2339
   717.62         8.1864
   717.76         8.1406
   717.90         8.0979
   718.04         8.0597
   718.18         8.0277
   718.32         8.0034
   718.46         7.9879
   718.60         7.9816
   718.74         7.9844
   718.88         7.9950
   719.02         8.0120
   719.16         8.0340
   719.30         8.0594
   719.44         8.0856
   719.58         8.1108
   719.72         8.1345
   719.86         8.1575
   720.00         8.1817
   720.14         8.2095
   720.28         8.2432
   720.42         8.2836
   720.56         8.3301
   720.70         8.3818
   720.84         8.4374
   720.98         8.4943
   721.12         8.5481
   721.26         8.5939
   721.40         8.6279
   721.54         8.6488
   721.68         8.6574
   721.82         8.6554
   721.96         8.6441
   722.10         8.6248
   722.24         8.5990
   722.38         8.5682
   722.52         8.5342
   722.66         8.4987
   722.80         8.4627
   722.94         8.4264
   723.08         8.3901
   723.22         8.3544
   723.36         8.3209
   723.50         8.2913
   723.64         8.2668
   723.78         8.2483
   723.92         8.2364
   724.06         8.2311
   724.20         8.2314
   724.34         8.2350
   724.48         8.2392
   724.62         8.2419
   724.76         8.2423
   724.90         8.2412
   725.04         8.2396
   725.18         8.2382
   725.32         8.2369
   725.46         8.2354
   725.60         8.2344
   725.74         8.2354
   725.88         8.2393
   726.02         8.2457
   726.16         8.2523
   726.30         8.2550
   726.44         8.2504
   726.58         8.2366
   726.72         8.2137
   726.86         8.1834
   727.00         8.1480
   727.14         8.1102
   727.28         8.0731
   727.42         8.0397
   727.56         8.0118
   727.70         7.9896
   727.84         7.9726
   727.98         7.9597
   728.12         7.9503
   728.26         7.9438
   728.40         7.9386
   728.54         7.9328
   728.68         7.9259
   728.82         7.9183
   728.96         7.9112
   729.10         7.9064
   729.24         7.9054
   729.38         7.9094
   729.52         7.9181
   729.66         7.9303
   729.80         7.9444
   729.94         7.9580
   730.08         7.9686
   730.22         7.9742
   730.36         7.9742
   730.50         7.9695
   730.64         7.9615
   730.78         7.9514
   730.92         7.9400
   731.06         7.9277
   731.20         7.9158
   731.34         7.9058
   731.48         7.8986
   731.62         7.8942
   731.76         7.8920
   731.90         7.8913
   732.04         7.8912
   732.18         7.8904
   732.32         7.8879
   732.46         7.8835
   732.60         7.8776
   732.74         7.8711
   732.88         7.8646
   733.02         7.8584
   733.16         7.8525
   733.30         7.8469
   733.44         7.8416
   733.58         7.8373
   733.72         7.8345
   733.86         7.8336
   734.00         7.8346
   734.14         7.8367
   734.28         7.8394
   734.42         7.8430
   734.56         7.8485
   734.70         7.8561
   734.84         7.8657
   734.98         7.8768
   735.12         7.8882
   735.26         7.8986
   735.40         7.9064
   735.54         7.9105
   735.68         7.9110
   735.82         7.9081
   735.96         7.9018
   736.10         7.8922
   736.24         7.8796
   736.38         7.8651
   736.52         7.8501
   736.66         7.8364
   736.80         7.8260
   736.94         7.8198
   737.08         7.8175
   737.22         7.8179
   737.36         7.8191
   737.50         7.8193
   737.64         7.8172
   737.78         7.8124
   737.92         7.8051
   738.06         7.7956
   738.20         7.7843
   738.34         7.7706
   738.48         7.7535
   738.62         7.7322
   738.76         7.7073
   738.90         7.6806
   739.04         7.6545
   739.18         7.6318
   739.32         7.6145
   739.46         7.6033
   739.60         7.5972
   739.74         7.5947
   739.88         7.5944
   740.02         7.5954
   740.16         7.5969
   740.30         7.5985
   740.44         7.5996
   740.58         7.5994
   740.72         7.5971
   740.86         7.5927
   741.00         7.5867
   741.14         7.5799
   741.28         7.5737
   741.42         7.5695
   741.56         7.5682
   741.70         7.5694
   741.84         7.5723
   741.98         7.5757
   742.12         7.5785
   742.26         7.5797
   742.40         7.5796
   742.54         7.5788
   742.68         7.5783
   742.82         7.5782
   742.96         7.5782
   743.10         7.5783
   743.24         7.5788
   743.38         7.5796
   743.52         7.5797
   743.66         7.5785
   743.80         7.5757
   743.94         7.5723
   744.08         7.5694
   744.22         7.5682
