# File HD215835
# Wavelength [nm]    Normalized Amplitude
   349.70         514.2261
   349.84         515.7891
   349.98         517.0560
   350.12         517.9188
   350.26         518.3696
   350.40         518.4876
   350.54         518.3763
   350.68         518.1406
   350.82         517.8936
   350.96         517.7242
   351.10         517.6668
   351.24         517.7242
   351.38         517.8936
   351.52         518.1406
   351.66         518.3763
   351.80         518.4876
   351.94         518.3696
   352.08         517.9188
   352.22         517.0560
   352.36         515.7891
   352.50         514.2261
   352.64         512.5478
   352.78         510.9603
   352.92         509.6255
   353.06         508.6068
   353.20         507.8706
   353.34         507.3311
   353.48         506.8757
   353.62         506.3830
   353.76         505.7647
   353.90         505.0004
   354.04         504.0943
   354.18         503.0326
   354.32         501.8097
   354.46         500.4431
   354.60         498.9573
   354.74         497.3751
   354.88         495.7369
   355.02         494.0940
   355.16         492.4909
   355.30         490.9533
   355.44         489.4712
   355.58         488.0090
   355.72         486.5518
   355.86         485.1309
   356.00         483.8061
   356.14         482.6402
   356.28         481.6765
   356.42         480.9196
   356.56         480.3103
   356.70         479.7138
   356.84         478.9783
   356.98         477.9839
   357.12         476.6438
   357.26         474.9321
   357.40         472.8822
   357.54         470.5553
   357.68         468.0402
   357.82         465.4703
   357.96         463.0036
   358.10         460.7744
   358.24         458.8776
   358.38         457.3734
   358.52         456.2831
   358.66         455.5935
   358.80         455.2504
   358.94         455.1305
   359.08         455.0763
   359.22         454.9601
   359.36         454.7005
   359.50         454.2663
   359.64         453.6482
   359.78         452.8612
   359.92         451.9642
   360.06         451.0132
   360.20         450.0357
   360.34         449.0545
   360.48         448.1105
   360.62         447.2550
   360.76         446.5063
   360.90         445.8474
   361.04         445.2530
   361.18         444.6949
   361.32         444.1555
   361.46         443.6270
   361.60         443.1172
   361.74         442.6842
   361.88         442.4212
   362.02         442.3947
   362.16         442.6227
   362.30         443.0837
   362.44         443.7594
   362.58         444.6449
   362.72         445.6968
   362.86         446.8252
   363.00         447.9413
   363.14         448.9748
   363.28         449.8590
   363.42         450.5378
   363.56         450.9655
   363.70         451.1031
   363.84         450.9433
   363.98         450.5266
   364.12         449.9119
   364.26         449.1578
   364.40         448.3459
   364.54         447.5746
   364.68         446.9114
   364.82         446.3969
   364.96         446.0881
   365.10         446.0415
   365.24         446.2421
   365.38         446.6090
   365.52         447.0621
   365.66         447.5329
   365.80         447.9686
   365.94         448.3433
   366.08         448.6095
   366.22         448.6599
   366.36         448.3924
   366.50         447.7618
   366.64         446.7483
   366.78         445.3269
   366.92         443.4965
   367.06         441.3316
   367.20         438.9762
   367.34         436.6156
   367.48         434.4242
   367.62         432.5326
   367.76         431.0089
   367.90         429.8541
   368.04         429.0530
   368.18         428.5648
   368.32         428.2934
   368.46         428.1175
   368.60         427.8991
   368.74         427.5111
   368.88         426.8860
   369.02         426.0068
   369.16         424.8845
   369.30         423.5671
   369.44         422.1443
   369.58         420.7202
   369.72         419.3924
   369.86         418.2415
   370.00         417.3000
   370.14         416.5479
   370.28         415.9749
   370.42         415.5867
   370.56         415.3798
   370.70         415.3502
   370.84         415.4872
   370.98         415.7625
   371.12         416.1234
   371.26         416.4938
   371.40         416.7829
   371.54         416.8996
   371.68         416.7662
   371.82         416.3315
   371.96         415.5787
   372.10         414.5168
   372.24         413.1749
   372.38         411.6476
   372.52         410.1019
   372.66         408.7185
   372.80         407.6625
   372.94         407.0303
   373.08         406.8407
   373.22         407.0786
   373.36         407.6803
   373.50         408.5184
   373.64         409.4107
   373.78         410.1571
   373.92         410.5658
   374.06         410.4730
   374.20         409.7767
   374.34         408.4461
   374.48         406.5181
   374.62         404.0930
   374.76         401.3038
   374.90         398.3100
   375.04         395.3187
   375.18         392.5422
   375.32         390.1339
   375.46         388.1607
   375.60         386.5909
   375.74         385.3504
   375.88         384.3588
   376.02         383.5175
   376.16         382.7555
   376.30         382.0701
   376.44         381.5293
   376.58         381.2665
   376.72         381.4681
   376.86         382.3309
   377.00         383.9925
   377.14         386.4718
   377.28         389.6642
   377.42         393.3836
   377.56         397.3973
   377.70         401.4274
   377.84         405.1616
   377.98         408.3118
   378.12         410.6268
   378.26         411.8924
   378.40         411.9952
   378.54         410.9601
   378.68         408.9190
   378.82         406.0917
   378.96         402.7904
   379.10         399.3895
   379.24         396.2540
   379.38         393.6640
   379.52         391.7999
   379.66         390.7740
   379.80         390.6431
   379.94         391.4071
   380.08         393.0130
   380.22         395.3488
   380.36         398.2366
   380.50         401.4550
   380.64         404.7516
   380.78         407.8321
   380.92         410.4335
   381.06         412.4174
   381.20         413.7685
   381.34         414.5272
   381.48         414.7503
   381.62         414.4959
   381.76         413.7814
   381.90         412.5587
   382.04         410.7351
   382.18         408.2309
   382.32         405.0385
   382.46         401.2300
   382.60         396.9422
   382.74         392.3827
   382.88         387.8144
   383.02         383.5198
   383.16         379.7802
   383.30         376.8486
   383.44         374.9227
   383.58         374.1343
   383.72         374.5291
   383.86         376.0289
   384.00         378.4167
   384.14         381.3882
   384.28         384.6124
   384.42         387.7629
   384.56         390.5515
   384.70         392.7774
   384.84         394.3775
   384.98         395.4022
   385.12         395.9415
   385.26         396.0940
   385.40         395.9546
   385.54         395.5784
   385.68         394.9809
   385.82         394.1863
   385.96         393.2466
   386.10         392.2283
   386.24         391.1918
   386.38         390.1779
   386.52         389.2035
   386.66         388.2683
   386.80         387.3552
   386.94         386.4108
   387.08         385.3324
   387.22         383.9729
   387.36         382.1677
   387.50         379.7690
   387.64         376.6672
   387.78         372.8334
   387.92         368.3478
   388.06         363.3926
   388.20         358.2556
   388.34         353.3297
   388.48         349.0616
   388.62         345.8572
   388.76         344.0156
   388.90         343.7051
   389.04         344.9516
   389.18         347.6241
   389.32         351.4371
   389.46         355.9945
   389.60         360.8550
   389.74         365.5872
   389.88         369.8205
   390.02         373.2938
   390.16         375.8653
   390.30         377.4870
   390.44         378.1845
   390.58         378.0421
   390.72         377.2030
   390.86         375.8549
   391.00         374.1777
   391.14         372.3152
   391.28         370.3875
   391.42         368.5027
   391.56         366.7537
   391.70         365.2055
   391.84         363.8702
   391.98         362.6956
   392.12         361.6022
   392.26         360.5328
   392.40         359.4680
   392.54         358.4213
   392.68         357.4281
   392.82         356.5390
   392.96         355.8287
   393.10         355.3774
   393.24         355.2534
   393.38         355.4970
   393.52         356.0929
   393.66         356.9770
   393.80         358.0738
   393.94         359.3146
   394.08         360.6164
   394.22         361.8600
   394.36         362.8942
   394.50         363.5810
   394.64         363.8477
   394.78         363.6920
   394.92         363.1409
   395.06         362.1843
   395.20         360.7399
   395.34         358.6718
   395.48         355.8283
   395.62         352.0826
   395.76         347.3862
   395.90         341.8286
   396.04         335.6316
   396.18         329.1180
   396.32         322.6972
   396.46         316.8252
   396.60         311.9461
   396.74         308.4255
   396.88         306.5071
   397.02         306.2978
   397.16         307.7677
   397.30         310.7282
   397.44         314.8314
   397.58         319.6258
   397.72         324.6179
   397.86         329.3336
   398.00         333.3854
   398.14         336.5245
   398.28         338.6547
   398.42         339.8144
   398.56         340.1370
   398.70         339.7979
   398.84         338.9869
   398.98         337.9051
   399.12         336.7497
   399.26         335.6752
   399.40         334.7630
   399.54         334.0306
   399.68         333.4639
   399.82         333.0340
   399.96         332.6896
   400.10         332.3717
   400.24         332.0365
   400.38         331.6461
   400.52         331.1699
   400.66         330.5780
   400.80         329.8380
   400.94         328.9286
   401.08         327.8473
   401.22         326.6040
   401.36         325.2113
   401.50         323.6929
   401.64         322.0886
   401.78         320.4462
   401.92         318.8047
   402.06         317.1997
   402.20         315.6902
   402.34         314.3500
   402.48         313.2369
   402.62         312.3793
   402.76         311.7961
   402.90         311.5063
   403.04         311.5139
   403.18         311.8074
   403.32         312.3557
   403.46         313.1156
   403.60         314.0360
   403.74         315.0556
   403.88         316.1192
   404.02         317.1888
   404.16         318.2272
   404.30         319.1777
   404.44         319.9717
   404.58         320.5474
   404.72         320.8774
   404.86         320.9715
   405.00         320.8587
   405.14         320.5828
   405.28         320.1955
   405.42         319.7475
   405.56         319.2774
   405.70         318.7920
   405.84         318.2662
   405.98         317.6688
   406.12         316.9796
   406.26         316.1966
   406.40         315.3399
   406.54         314.4435
   406.68         313.5463
   406.82         312.6841
   406.96         311.8831
   407.10         311.1580
   407.24         310.5173
   407.38         309.9616
   407.52         309.4769
   407.66         309.0280
   407.80         308.5620
   407.94         308.0113
   408.08         307.2989
   408.22         306.3510
   408.36         305.0957
   408.50         303.4485
   408.64         301.3178
   408.78         298.6321
   408.92         295.3704
   409.06         291.5789
   409.20         287.3711
   409.34         282.9303
   409.48         278.5052
   409.62         274.3915
   409.76         270.8963
   409.90         268.3013
   410.04         266.8403
   410.18         266.6627
   410.32         267.7860
   410.46         270.0824
   410.60         273.2994
   410.74         277.1036
   410.88         281.1367
   411.02         285.0522
   411.16         288.5436
   411.30         291.3911
   411.44         293.4977
   411.58         294.8806
   411.72         295.6316
   411.86         295.8899
   412.00         295.8222
   412.14         295.5849
   412.28         295.2882
   412.42         294.9850
   412.56         294.6919
   412.70         294.4145
   412.84         294.1406
   412.98         293.8314
   413.12         293.4464
   413.26         292.9756
   413.40         292.4397
   413.54         291.8656
   413.68         291.2690
   413.82         290.6512
   413.96         290.0136
   414.10         289.3721
   414.24         288.7516
   414.38         288.1782
   414.52         287.6814
   414.66         287.2796
   414.80         286.9674
   414.94         286.7286
   415.08         286.5487
   415.22         286.4171
   415.36         286.3160
   415.50         286.2076
   415.64         286.0505
   415.78         285.8222
   415.92         285.5192
   416.06         285.1429
   416.20         284.6971
   416.34         284.1992
   416.48         283.6803
   416.62         283.1805
   416.76         282.7445
   416.90         282.4086
   417.04         282.1901
   417.18         282.0834
   417.32         282.0574
   417.46         282.0715
   417.60         282.0894
   417.74         282.0731
   417.88         281.9784
   418.02         281.7586
   418.16         281.3828
   418.30         280.8442
   418.44         280.1361
   418.58         279.2397
   418.72         278.1385
   418.86         276.8326
   419.00         275.3469
   419.14         273.7310
   419.28         272.0600
   419.42         270.4291
   419.56         268.9336
   419.70         267.6572
   419.84         266.6695
   419.98         266.0199
   420.12         265.7360
   420.26         265.8110
   420.40         266.1947
   420.54         266.7995
   420.68         267.5205
   420.82         268.2596
   420.96         268.9297
   421.10         269.4545
   421.24         269.7894
   421.38         269.9335
   421.52         269.9192
   421.66         269.8010
   421.80         269.6393
   421.94         269.4819
   422.08         269.3534
   422.22         269.2530
   422.36         269.1608
   422.50         269.0500
   422.64         268.8951
   422.78         268.6744
   422.92         268.3629
   423.06         267.9362
   423.20         267.3879
   423.34         266.7496
   423.48         266.0849
   423.62         265.4554
   423.76         264.9003
   423.90         264.4467
   424.04         264.1199
   424.18         263.9302
   424.32         263.8590
   424.46         263.8602
   424.60         263.8722
   424.74         263.8373
   424.88         263.7143
   425.02         263.4826
   425.16         263.1407
   425.30         262.6978
   425.44         262.1658
   425.58         261.5589
   425.72         260.9021
   425.86         260.2358
   426.00         259.6052
   426.14         259.0397
   426.28         258.5473
   426.42         258.1292
   426.56         257.7882
   426.70         257.5203
   426.84         257.3054
   426.98         257.1185
   427.12         256.9378
   427.26         256.7482
   427.40         256.5456
   427.54         256.3295
   427.68         256.0907
   427.82         255.8107
   427.96         255.4763
   428.10         255.0882
   428.24         254.6609
   428.38         254.2190
   428.52         253.7924
   428.66         253.4069
   428.80         253.0785
   428.94         252.8161
   429.08         252.6231
   429.22         252.4965
   429.36         252.4232
   429.50         252.3765
   429.64         252.3247
   429.78         252.2444
   429.92         252.1293
   430.06         251.9908
   430.20         251.8486
   430.34         251.7222
   430.48         251.6293
   430.62         251.5871
   430.76         251.6072
   430.90         251.6865
   431.04         251.8026
   431.18         251.9172
   431.32         251.9876
   431.46         251.9823
   431.60         251.8851
   431.74         251.6769
   431.88         251.3208
   432.02         250.7632
   432.16         249.9469
   432.30         248.8137
   432.44         247.2971
   432.58         245.3252
   432.72         242.8470
   432.86         239.8632
   433.00         236.4388
   433.14         232.7031
   433.28         228.8400
   433.42         225.0812
   433.56         221.6844
   433.70         218.9010
   433.84         216.9576
   433.98         216.0243
   434.12         216.1733
   434.26         217.3598
   434.40         219.4344
   434.54         222.1793
   434.68         225.3413
   434.82         228.6549
   434.96         231.8679
   435.10         234.7738
   435.24         237.2349
   435.38         239.1865
   435.52         240.6233
   435.66         241.5818
   435.80         242.1281
   435.94         242.3459
   436.08         242.3333
   436.22         242.1871
   436.36         241.9794
   436.50         241.7518
   436.64         241.5171
   436.78         241.2727
   436.92         241.0143
   437.06         240.7403
   437.20         240.4479
   437.34         240.1288
   437.48         239.7737
   437.62         239.3797
   437.76         238.9537
   437.90         238.5092
   438.04         238.0656
   438.18         237.6532
   438.32         237.3083
   438.46         237.0472
   438.60         236.8635
   438.74         236.7421
   438.88         236.6570
   439.02         236.5665
   439.16         236.4296
   439.30         236.2248
   439.44         235.9455
   439.58         235.5936
   439.72         235.1769
   439.86         234.7093
   440.00         234.2088
   440.14         233.6921
   440.28         233.1702
   440.42         232.6493
   440.56         232.1257
   440.70         231.5816
   440.84         230.9873
   440.98         230.3119
   441.12         229.5322
   441.26         228.6432
   441.40         227.6545
   441.54         226.5795
   441.68         225.4353
   441.82         224.2472
   441.96         223.0442
   442.10         221.8536
   442.24         220.7045
   442.38         219.6285
   442.52         218.6587
   442.66         217.8253
   442.80         217.1510
   442.94         216.6503
   443.08         216.3331
   443.22         216.1999
   443.36         216.2392
   443.50         216.4298
   443.64         216.7443
   443.78         217.1531
   443.92         217.6313
   444.06         218.1664
   444.20         218.7513
   444.34         219.3764
   444.48         220.0300
   444.62         220.6984
   444.76         221.3661
   444.90         222.0122
   445.04         222.6035
   445.18         223.1012
   445.32         223.4704
   445.46         223.6784
   445.60         223.6931
   445.74         223.4923
   445.88         223.0733
   446.02         222.4491
   446.16         221.6442
   446.30         220.7023
   446.44         219.6889
   446.58         218.6742
   446.72         217.7198
   446.86         216.8721
   447.00         216.1651
   447.14         215.6241
   447.28         215.2595
   447.42         215.0647
   447.56         215.0186
   447.70         215.0923
   447.84         215.2503
   447.98         215.4490
   448.12         215.6389
   448.26         215.7781
   448.40         215.8525
   448.54         215.8684
   448.68         215.8357
   448.82         215.7616
   448.96         215.6538
   449.10         215.5210
   449.24         215.3692
   449.38         215.2006
   449.52         215.0099
   449.66         214.7886
   449.80         214.5288
   449.94         214.2263
   450.08         213.8872
   450.22         213.5261
   450.36         213.1544
   450.50         212.7788
   450.64         212.4080
   450.78         212.0486
   450.92         211.7036
   451.06         211.3751
   451.20         211.0615
   451.34         210.7541
   451.48         210.4344
   451.62         210.0804
   451.76         209.6824
   451.90         209.2432
   452.04         208.7687
   452.18         208.2562
   452.32         207.6954
   452.46         207.0731
   452.60         206.3714
   452.74         205.5720
   452.88         204.6652
   453.02         203.6561
   453.16         202.5739
   453.30         201.4728
   453.44         200.4225
   453.58         199.4973
   453.72         198.7596
   453.86         198.2495
   454.00         197.9812
   454.14         197.9487
   454.28         198.1432
   454.42         198.5515
   454.56         199.1339
   454.70         199.8251
   454.84         200.5517
   454.98         201.2522
   455.12         201.8809
   455.26         202.4054
   455.40         202.8146
   455.54         203.1189
   455.68         203.3391
   455.82         203.4940
   455.96         203.5901
   456.10         203.6189
   456.24         203.5606
   456.38         203.4013
   456.52         203.1490
   456.66         202.8254
   456.80         202.4582
   456.94         202.0824
   457.08         201.7315
   457.22         201.4375
   457.36         201.2341
   457.50         201.1389
   457.64         201.1444
   457.78         201.2295
   457.92         201.3636
   458.06         201.5029
   458.20         201.5975
   458.34         201.6015
   458.48         201.4818
   458.62         201.2273
   458.76         200.8541
   458.90         200.3986
   459.04         199.9101
   459.18         199.4440
   459.32         199.0484
   459.46         198.7564
   459.60         198.5838
   459.74         198.5246
   459.88         198.5481
   460.02         198.6056
   460.16         198.6462
   460.30         198.6332
   460.44         198.5483
   460.58         198.3840
   460.72         198.1439
   460.86         197.8472
   461.00         197.5241
   461.14         197.2062
   461.28         196.9199
   461.42         196.6866
   461.56         196.5214
   461.70         196.4304
   461.84         196.4057
   461.98         196.4240
   462.12         196.4574
   462.26         196.4844
   462.40         196.4855
   462.54         196.4412
   462.68         196.3441
   462.82         196.2034
   462.96         196.0357
   463.10         195.8548
   463.24         195.6726
   463.38         195.4973
   463.52         195.3294
   463.66         195.1642
   463.80         194.9968
   463.94         194.8262
   464.08         194.6534
   464.22         194.4796
   464.36         194.3046
   464.50         194.1257
   464.64         193.9414
   464.78         193.7552
   464.92         193.5734
   465.06         193.4072
   465.20         193.2770
   465.34         193.2016
   465.48         193.1849
   465.62         193.2104
   465.76         193.2497
   465.90         193.2772
   466.04         193.2744
   466.18         193.2261
   466.32         193.1254
   466.46         192.9735
   466.60         192.7664
   466.74         192.4807
   466.88         192.0776
   467.02         191.5233
   467.16         190.8018
   467.30         189.9218
   467.44         188.9131
   467.58         187.8094
   467.72         186.6436
   467.86         185.4564
   468.00         184.3004
   468.14         183.2430
   468.28         182.3566
   468.42         181.7045
   468.56         181.3341
   468.70         181.2672
   468.84         181.4933
   468.98         181.9704
   469.12         182.6275
   469.26         183.3792
   469.40         184.1448
   469.54         184.8608
   469.68         185.4830
   469.82         185.9776
   469.96         186.3112
   470.10         186.4492
   470.24         186.3697
   470.38         186.0829
   470.52         185.6246
   470.66         185.0375
   470.80         184.3663
   470.94         183.6494
   471.08         182.9143
   471.22         182.1804
   471.36         181.4636
   471.50         180.7808
   471.64         180.1551
   471.78         179.6199
   471.92         179.2113
   472.06         178.9479
   472.20         178.8196
   472.34         178.7923
   472.48         178.8202
   472.62         178.8595
   472.76         178.8813
   472.90         178.8777
   473.04         178.8555
   473.18         178.8198
   473.32         178.7736
   473.46         178.7217
   473.60         178.6649
   473.74         178.6052
   473.88         178.5614
   474.02         178.5633
   474.16         178.6267
   474.30         178.7389
   474.44         178.8615
   474.58         178.9384
   474.72         178.9051
   474.86         178.7049
   475.00         178.3028
   475.14         177.6988
   475.28         176.9329
   475.42         176.0684
   475.56         175.1751
   475.70         174.3217
   475.84         173.5707
   475.98         172.9757
   476.12         172.5720
   476.26         172.3745
   476.40         172.3803
   476.54         172.5557
   476.68         172.8250
   476.82         173.0909
   476.96         173.2642
   477.10         173.2868
   477.24         173.1394
   477.38         172.8350
   477.52         172.4116
   477.66         171.9222
   477.80         171.4275
   477.94         170.9840
   478.08         170.6281
   478.22         170.3745
   478.36         170.2220
   478.50         170.1593
   478.64         170.1614
   478.78         170.1943
   478.92         170.2306
   479.06         170.2430
   479.20         170.1971
   479.34         170.0730
   479.48         169.8774
   479.62         169.6306
   479.76         169.3605
   479.90         169.0936
   480.04         168.8517
   480.18         168.6491
   480.32         168.4865
   480.46         168.3599
   480.60         168.2676
   480.74         168.2049
   480.88         168.1604
   481.02         168.1135
   481.16         168.0390
   481.30         167.9136
   481.44         167.7235
   481.58         167.4651
   481.72         167.1398
   481.86         166.7600
   482.00         166.3562
   482.14         165.9645
   482.28         165.6171
   482.42         165.3467
   482.56         165.1815
   482.70         165.1344
   482.84         165.1887
   482.98         165.3016
   483.12         165.4263
   483.26         165.5308
   483.40         165.5968
   483.54         165.6081
   483.68         165.5479
   483.82         165.4046
   483.96         165.1660
   484.10         164.8049
   484.24         164.2789
   484.38         163.5342
   484.52         162.5118
   484.66         161.1577
   484.80         159.4357
   484.94         157.3378
   485.08         154.8921
   485.22         152.1667
   485.36         149.2704
   485.50         146.3576
   485.64         143.6179
   485.78         141.2498
   485.92         139.4301
   486.06         138.2778
   486.20         137.8381
   486.34         138.0879
   486.48         138.9448
   486.62         140.2812
   486.76         141.9429
   486.90         143.7668
   487.04         145.5952
   487.18         147.2985
   487.32         148.7947
   487.46         150.0455
   487.60         151.0429
   487.74         151.7995
   487.88         152.3472
   488.02         152.7397
   488.16         153.0425
   488.30         153.3075
   488.44         153.5643
   488.58         153.8240
   488.72         154.0819
   488.86         154.3252
   489.00         154.5442
   489.14         154.7403
   489.28         154.9219
   489.42         155.0928
   489.56         155.2520
   489.70         155.3965
   489.84         155.5284
   489.98         155.6592
   490.12         155.8008
   490.26         155.9617
   490.40         156.1482
   490.54         156.3681
   490.68         156.6207
   490.82         156.8760
   490.96         157.0805
   491.10         157.1892
   491.24         157.1855
   491.38         157.0755
   491.52         156.8796
   491.66         156.6277
   491.80         156.3520
   491.94         156.0722
   492.08         155.7878
   492.22         155.4904
   492.36         155.1782
   492.50         154.8655
   492.64         154.5756
   492.78         154.3188
   492.92         154.0878
   493.06         153.8671
   493.20         153.6428
   493.34         153.4074
   493.48         153.1676
   493.62         152.9531
   493.76         152.8045
   493.90         152.7460
   494.04         152.7756
   494.18         152.8780
   494.32         153.0305
   494.46         153.2028
   494.60         153.3606
   494.74         153.4817
   494.88         153.5730
   495.02         153.6593
   495.16         153.7587
   495.30         153.8731
   495.44         153.9914
   495.58         154.0924
   495.72         154.1521
   495.86         154.1501
   496.00         154.0735
   496.14         153.9183
   496.28         153.6846
   496.42         153.3717
   496.56         152.9803
   496.70         152.5179
   496.84         151.9943
   496.98         151.4223
   497.12         150.8313
   497.26         150.2619
   497.40         149.7554
   497.54         149.3446
   497.68         149.0351
   497.82         148.8111
   497.96         148.6552
   498.10         148.5502
   498.24         148.4792
   498.38         148.4383
   498.52         148.4334
   498.66         148.4631
   498.80         148.5146
   498.94         148.5685
   499.08         148.6037
   499.22         148.5943
   499.36         148.5111
   499.50         148.3335
   499.64         148.0577
   499.78         147.6960
   499.92         147.2617
   500.06         146.7544
   500.20         146.1700
   500.34         145.5183
   500.48         144.8296
   500.62         144.1461
   500.76         143.5065
   500.90         142.9412
   501.04         142.4673
   501.18         142.0800
   501.32         141.7610
   501.46         141.4889
   501.60         141.2362
   501.74         140.9731
   501.88         140.6745
   502.02         140.3302
   502.16         139.9531
   502.30         139.5690
   502.44         139.2019
   502.58         138.8589
   502.72         138.5373
   502.86         138.2480
   503.00         138.0071
   503.14         137.8196
   503.28         137.6847
   503.42         137.6047
   503.56         137.5876
   503.70         137.6351
   503.84         137.7394
   503.98         137.8905
   504.12         138.0691
   504.26         138.2501
   504.40         138.4110
   504.54         138.5341
   504.68         138.6088
   504.82         138.6284
   504.96         138.5761
   505.10         138.4220
   505.24         138.1448
   505.38         137.7582
   505.52         137.3036
   505.66         136.8241
   505.80         136.3579
   505.94         135.9431
   506.08         135.6155
   506.22         135.4003
   506.36         135.2993
   506.50         135.2941
   506.64         135.3565
   506.78         135.4635
   506.92         135.6076
   507.06         135.7831
   507.20         135.9731
   507.34         136.1543
   507.48         136.2996
   507.62         136.3811
   507.76         136.3858
   507.90         136.3293
   508.04         136.2408
   508.18         136.1359
   508.32         136.0161
   508.46         135.8862
   508.60         135.7569
   508.74         135.6370
   508.88         135.5260
   509.02         135.4114
   509.16         135.2749
   509.30         135.1085
   509.44         134.9193
   509.58         134.7121
   509.72         134.4787
   509.86         134.2085
   510.00         133.9002
   510.14         133.5567
   510.28         133.1830
   510.42         132.7959
   510.56         132.4159
   510.70         132.0502
   510.84         131.6963
   510.98         131.3525
   511.12         131.0209
   511.26         130.7054
   511.40         130.4134
   511.54         130.1557
   511.68         129.9357
   511.82         129.7521
   511.96         129.6160
   512.10         129.5444
   512.24         129.5358
   512.38         129.5635
   512.52         129.5953
   512.66         129.6102
   512.80         129.6045
   512.94         129.5896
   513.08         129.5783
   513.22         129.5687
   513.36         129.5458
   513.50         129.4998
   513.64         129.4262
   513.78         129.3184
   513.92         129.1704
   514.06         128.9783
   514.20         128.7411
   514.34         128.4725
   514.48         128.2051
   514.62         127.9661
   514.76         127.7624
   514.90         127.5892
   515.04         127.4424
   515.18         127.3269
   515.32         127.2539
   515.46         127.2272
   515.60         127.2311
   515.74         127.2352
   515.88         127.2128
   516.02         127.1520
   516.16         127.0520
   516.30         126.9176
   516.44         126.7612
   516.58         126.6034
   516.72         126.4595
   516.86         126.3377
   517.00         126.2447
   517.14         126.1750
   517.28         126.1175
   517.42         126.0706
   517.56         126.0324
   517.70         125.9915
   517.84         125.9319
   517.98         125.8413
   518.12         125.7126
   518.26         125.5450
   518.40         125.3475
   518.54         125.1395
   518.68         124.9382
   518.82         124.7530
   518.96         124.5899
   519.10         124.4463
   519.24         124.3047
   519.38         124.1474
   519.52         123.9765
   519.66         123.8052
   519.80         123.6417
   519.94         123.4858
   520.08         123.3282
   520.22         123.1600
   520.36         122.9851
   520.50         122.8203
   520.64         122.6893
   520.78         122.6143
   520.92         122.6040
   521.06         122.6518
   521.20         122.7408
   521.34         122.8422
   521.48         122.9240
   521.62         122.9597
   521.76         122.9242
   521.90         122.8034
   522.04         122.6049
   522.18         122.3408
   522.32         122.0175
   522.46         121.6437
   522.60         121.2336
   522.74         120.8082
   522.88         120.3886
   523.02         119.9912
   523.16         119.6284
   523.30         119.3091
   523.44         119.0398
   523.58         118.8221
   523.72         118.6508
   523.86         118.5146
   524.00         118.4056
   524.14         118.3230
   524.28         118.2658
   524.42         118.2303
   524.56         118.2192
   524.70         118.2373
   524.84         118.2765
   524.98         118.3210
   525.12         118.3563
   525.26         118.3718
   525.40         118.3608
   525.54         118.3157
   525.68         118.2348
   525.82         118.1204
   525.96         117.9707
   526.10         117.7844
   526.24         117.5652
   526.38         117.3191
   526.52         117.0542
   526.66         116.7832
   526.80         116.5210
   526.94         116.2803
   527.08         116.0718
   527.22         115.9042
   527.36         115.7793
   527.50         115.6897
   527.64         115.6249
   527.78         115.5784
   527.92         115.5421
   528.06         115.5005
   528.20         115.4394
   528.34         115.3511
   528.48         115.2264
   528.62         115.0524
   528.76         114.8177
   528.90         114.5201
   529.04         114.1659
   529.18         113.7694
   529.32         113.3548
   529.46         112.9536
   529.60         112.5955
   529.74         112.3026
   529.88         112.0841
   530.02         111.9323
   530.16         111.8313
   530.30         111.7670
   530.44         111.7296
   530.58         111.7121
   530.72         111.7079
   530.86         111.7131
   531.00         111.7230
   531.14         111.7291
   531.28         111.7282
   531.42         111.7241
   531.56         111.7247
   531.70         111.7309
   531.84         111.7298
   531.98         111.7049
   532.12         111.6465
   532.26         111.5503
   532.40         111.4105
   532.54         111.2187
   532.68         110.9747
   532.82         110.6924
   532.96         110.3929
   533.10         110.1021
   533.24         109.8433
   533.38         109.6286
   533.52         109.4657
   533.66         109.3591
   533.80         109.3075
   533.94         109.3040
   534.08         109.3355
   534.22         109.3910
   534.36         109.4576
   534.50         109.5144
   534.64         109.5407
   534.78         109.5227
   534.92         109.4512
   535.06         109.3219
   535.20         109.1386
   535.34         108.9152
   535.48         108.6711
   535.62         108.4236
   535.76         108.1829
   535.90         107.9513
   536.04         107.7351
   536.18         107.5456
   536.32         107.3884
   536.46         107.2621
   536.60         107.1587
   536.74         107.0664
   536.88         106.9742
   537.02         106.8710
   537.16         106.7502
   537.30         106.6149
   537.44         106.4776
   537.58         106.3516
   537.72         106.2419
   537.86         106.1471
   538.00         106.0690
   538.14         106.0108
   538.28         105.9709
   538.42         105.9407
   538.56         105.9095
   538.70         105.8660
   538.84         105.7953
   538.98         105.6830
   539.12         105.5173
   539.26         105.2860
   539.40         104.9778
   539.54         104.5817
   539.68         104.0911
   539.82         103.5090
   539.96         102.8461
   540.10         102.1203
   540.24         101.3521
   540.38         100.5629
   540.52         99.7848
   540.66         99.0619
   540.80         98.4356
   540.94         97.9387
   541.08         97.5990
   541.22         97.4380
   541.36         97.4649
   541.50         97.6635
   541.64         97.9965
   541.78         98.4199
   541.92         98.8930
   542.06         99.3783
   542.20         99.8409
   542.34         100.2575
   542.48         100.6137
   542.62         100.8950
   542.76         101.0900
   542.90         101.1991
   543.04         101.2357
   543.18         101.2189
   543.32         101.1610
   543.46         101.0651
   543.60         100.9334
   543.74         100.7702
   543.88         100.5797
   544.02         100.3645
   544.16         100.1297
   544.30         99.8945
   544.44         99.6839
   544.58         99.5117
   544.72         99.3771
   544.86         99.2723
   545.00         99.1900
   545.14         99.1190
   545.28         99.0429
   545.42         98.9476
   545.56         98.8283
   545.70         98.6885
   545.84         98.5341
   545.98         98.3732
   546.12         98.2203
   546.26         98.0922
   546.40         97.9997
   546.54         97.9453
   546.68         97.9239
   546.82         97.9276
   546.96         97.9487
   547.10         97.9704
   547.24         97.9672
   547.38         97.9163
   547.52         97.8022
   547.66         97.6163
   547.80         97.3575
   547.94         97.0360
   548.08         96.6735
   548.22         96.3028
   548.36         95.9577
   548.50         95.6626
   548.64         95.4326
   548.78         95.2746
   548.92         95.1836
   549.06         95.1434
   549.20         95.1373
   549.34         95.1536
   549.48         95.1848
   549.62         95.2245
   549.76         95.2596
   549.90         95.2775
   550.04         95.2752
   550.18         95.2545
   550.32         95.2170
   550.46         95.1642
   550.60         95.0989
   550.74         95.0237
   550.88         94.9392
   551.02         94.8388
   551.16         94.7091
   551.30         94.5394
   551.44         94.3262
   551.58         94.0750
   551.72         93.8041
   551.86         93.5416
   552.00         93.3105
   552.14         93.1206
   552.28         92.9684
   552.42         92.8423
   552.56         92.7305
   552.70         92.6263
   552.84         92.5254
   552.98         92.4224
   553.12         92.3124
   553.26         92.1936
   553.40         92.0664
   553.54         91.9332
   553.68         91.7992
   553.82         91.6725
   553.96         91.5621
   554.10         91.4734
   554.24         91.4065
   554.38         91.3616
   554.52         91.3354
   554.66         91.3197
   554.80         91.3102
   554.94         91.3071
   555.08         91.3105
   555.22         91.3195
   555.36         91.3326
   555.50         91.3456
   555.64         91.3494
   555.78         91.3318
   555.92         91.2826
   556.06         91.1943
   556.20         91.0640
   556.34         90.8946
   556.48         90.6941
   556.62         90.4744
   556.76         90.2482
   556.90         90.0311
   557.04         89.8389
   557.18         89.6774
   557.32         89.5403
   557.46         89.4169
   557.60         89.2928
   557.74         89.1548
   557.88         88.9969
   558.02         88.8185
   558.16         88.6216
   558.30         88.4061
   558.44         88.1721
   558.58         87.9265
   558.72         87.6830
   558.86         87.4586
   559.00         87.2689
   559.14         87.1253
   559.28         87.0334
   559.42         86.9890
   559.56         86.9811
   559.70         86.9924
   559.84         87.0028
   559.98         86.9968
   560.12         86.9613
   560.26         86.8820
   560.40         86.7483
   560.54         86.5578
   560.68         86.3190
   560.82         86.0508
   560.96         85.7757
   561.10         85.5157
   561.24         85.2896
   561.38         85.1109
   561.52         84.9850
   561.66         84.9090
   561.80         84.8761
   561.94         84.8755
   562.08         84.8927
   562.22         84.9160
   562.36         84.9403
   562.50         84.9644
   562.64         84.9843
   562.78         84.9941
   562.92         84.9957
   563.06         84.9959
   563.20         84.9959
   563.34         84.9930
   563.48         84.9834
   563.62         84.9638
   563.76         84.9369
   563.90         84.9090
   564.04         84.8869
   564.18         84.8736
   564.32         84.8672
   564.46         84.8682
   564.60         84.8766
   564.74         84.8861
   564.88         84.8864
   565.02         84.8664
   565.16         84.8137
   565.30         84.7169
   565.44         84.5727
   565.58         84.3864
   565.72         84.1644
   565.86         83.9126
   566.00         83.6431
   566.14         83.3714
   566.28         83.1071
   566.42         82.8502
   566.56         82.5956
   566.70         82.3438
   566.84         82.0987
   566.98         81.8689
   567.12         81.6696
   567.26         81.5108
   567.40         81.3936
   567.54         81.3185
   567.68         81.2878
   567.82         81.3031
   567.96         81.3615
   568.10         81.4548
   568.24         81.5701
   568.38         81.6913
   568.52         81.8061
   568.66         81.9126
   568.80         82.0152
   568.94         82.1177
   569.08         82.2200
   569.22         82.3178
   569.36         82.4019
   569.50         82.4604
   569.64         82.4857
   569.78         82.4743
   569.92         82.4217
   570.06         82.3288
   570.20         82.2060
   570.34         82.0682
   570.48         81.9285
   570.62         81.7951
   570.76         81.6711
   570.90         81.5567
   571.04         81.4533
   571.18         81.3627
   571.32         81.2787
   571.46         81.1872
   571.60         81.0704
   571.74         80.9127
   571.88         80.7078
   572.02         80.4635
   572.16         80.1990
   572.30         79.9361
   572.44         79.6875
   572.58         79.4592
   572.72         79.2545
   572.86         79.0734
   573.00         78.9116
   573.14         78.7594
   573.28         78.6069
   573.42         78.4497
   573.56         78.2907
   573.70         78.1372
   573.84         77.9920
   573.98         77.8520
   574.12         77.7149
   574.26         77.5805
   574.40         77.4468
   574.54         77.3097
   574.68         77.1685
   574.82         77.0284
   574.96         76.8937
   575.10         76.7660
   575.24         76.6534
   575.38         76.5667
   575.52         76.5127
   575.66         76.4895
   575.80         76.4887
   575.94         76.5047
   576.08         76.5344
   576.22         76.5728
   576.36         76.6117
   576.50         76.6401
   576.64         76.6446
   576.78         76.6103
   576.92         76.5224
   577.06         76.3718
   577.20         76.1598
   577.34         75.9010
   577.48         75.6160
   577.62         75.3233
   577.76         75.0441
   577.90         74.7981
   578.04         74.5983
   578.18         74.4509
   578.32         74.3553
   578.46         74.3077
   578.60         74.3008
   578.74         74.3213
   578.88         74.3567
   579.02         74.3968
   579.16         74.4293
   579.30         74.4350
   579.44         74.3948
   579.58         74.3029
   579.72         74.1668
   579.86         73.9997
   580.00         73.8157
   580.14         73.6232
   580.28         73.4265
   580.42         73.2285
   580.56         73.0337
   580.70         72.8519
   580.84         72.6934
   580.98         72.5665
   581.12         72.4850
   581.26         72.4691
   581.40         72.5355
   581.54         72.6815
   581.68         72.8839
   581.82         73.1097
   581.96         73.3270
   582.10         73.5158
   582.24         73.6645
   582.38         73.7615
   582.52         73.7988
   582.66         73.7770
   582.80         73.7059
   582.94         73.6028
   583.08         73.4875
   583.22         73.3762
   583.36         73.2801
   583.50         73.2090
   583.64         73.1717
   583.78         73.1698
   583.92         73.1946
   584.06         73.2275
   584.20         73.2493
   584.34         73.2479
   584.48         73.2186
   584.62         73.1605
   584.76         73.0735
   584.90         72.9642
   585.04         72.8481
   585.18         72.7400
   585.32         72.6482
   585.46         72.5732
   585.60         72.5109
   585.74         72.4560
   585.88         72.3995
   586.02         72.3348
   586.16         72.2579
   586.30         72.1571
   586.44         72.0133
   586.58         71.8140
   586.72         71.5597
   586.86         71.2612
   587.00         70.9389
   587.14         70.6204
   587.28         70.3369
   587.42         70.1174
   587.56         69.9744
   587.70         69.8830
   587.84         69.7859
   587.98         69.6320
   588.12         69.3976
   588.26         69.0704
   588.40         68.6374
   588.54         68.0979
   588.68         67.4813
   588.82         66.8419
   588.96         66.2450
   589.10         65.7620
   589.24         65.4654
   589.38         65.4112
   589.52         65.6225
   589.66         66.0857
   589.80         66.7511
   589.94         67.5448
   590.08         68.3870
   590.22         69.2017
   590.36         69.9240
   590.50         70.5187
   590.64         70.9830
   590.78         71.3221
   590.92         71.5354
   591.06         71.6320
   591.20         71.6402
   591.34         71.5965
   591.48         71.5292
   591.62         71.4530
   591.76         71.3723
   591.90         71.2854
   592.04         71.1864
   592.18         71.0687
   592.32         70.9292
   592.46         70.7685
   592.60         70.5912
   592.74         70.4079
   592.88         70.2246
   593.02         70.0335
   593.16         69.8261
   593.30         69.6026
   593.44         69.3701
   593.58         69.1396
   593.72         68.9245
   593.86         68.7365
   594.00         68.5780
   594.14         68.4418
   594.28         68.3156
   594.42         68.1869
   594.56         68.0440
   594.70         67.8809
   594.84         67.7007
   594.98         67.5122
   595.12         67.3241
   595.26         67.1476
   595.40         67.0002
   595.54         66.8967
   595.68         66.8454
   595.82         66.8541
   595.96         66.9253
   596.10         67.0508
   596.24         67.2175
   596.38         67.4117
   596.52         67.6146
   596.66         67.8099
   596.80         67.9895
   596.94         68.1470
   597.08         68.2744
   597.22         68.3671
   597.36         68.4268
   597.50         68.4558
   597.64         68.4554
   597.78         68.4283
   597.92         68.3811
   598.06         68.3248
   598.20         68.2690
   598.34         68.2196
   598.48         68.1783
   598.62         68.1415
   598.76         68.1051
   598.90         68.0689
   599.04         68.0326
   599.18         67.9928
   599.32         67.9449
   599.46         67.8840
   599.60         67.8095
   599.74         67.7239
   599.88         67.6305
   600.02         67.5303
   600.16         67.4215
   600.30         67.3008
   600.44         67.1660
   600.58         67.0194
   600.72         66.8689
   600.86         66.7235
   601.00         66.5915
   601.14         66.4786
   601.28         66.3884
   601.42         66.3248
   601.56         66.2934
   601.70         66.2967
   601.84         66.3302
   601.98         66.3843
   602.12         66.4464
   602.26         66.4996
   602.40         66.5190
   602.54         66.4798
   602.68         66.3717
   602.82         66.1984
   602.96         65.9680
   603.10         65.6897
   603.24         65.3750
   603.38         65.0403
   603.52         64.7057
   603.66         64.3933
   603.80         64.1213
   603.94         63.9052
   604.08         63.7574
   604.22         63.6817
   604.36         63.6710
   604.50         63.7085
   604.64         63.7727
   604.78         63.8418
   604.92         63.8965
   605.06         63.9220
   605.20         63.9108
   605.34         63.8648
   605.48         63.7876
   605.62         63.6795
   605.76         63.5447
   605.90         63.3977
   606.04         63.2552
   606.18         63.1288
   606.32         63.0252
   606.46         62.9488
   606.60         62.9048
   606.74         62.8962
   606.88         62.9201
   607.02         62.9693
   607.16         63.0313
   607.30         63.0925
   607.44         63.1436
   607.58         63.1767
   607.72         63.1830
   607.86         63.1595
   608.00         63.1094
   608.14         63.0400
   608.28         62.9620
   608.42         62.8913
   608.56         62.8443
   608.70         62.8286
   608.84         62.8399
   608.98         62.8656
   609.12         62.8897
   609.26         62.8965
   609.40         62.8707
   609.54         62.8009
   609.68         62.6841
   609.82         62.5257
   609.96         62.3393
   610.10         62.1420
   610.24         61.9489
   610.38         61.7738
   610.52         61.6276
   610.66         61.5152
   610.80         61.4353
   610.94         61.3809
   611.08         61.3387
   611.22         61.2932
   611.36         61.2312
   611.50         61.1455
   611.64         61.0390
   611.78         60.9232
   611.92         60.8130
   612.06         60.7212
   612.20         60.6580
   612.34         60.6295
   612.48         60.6347
   612.62         60.6683
   612.76         60.7214
   612.90         60.7854
   613.04         60.8531
   613.18         60.9155
   613.32         60.9617
   613.46         60.9814
   613.60         60.9704
   613.74         60.9282
   613.88         60.8582
   614.02         60.7684
   614.16         60.6658
   614.30         60.5591
   614.44         60.4603
   614.58         60.3790
   614.72         60.3200
   614.86         60.2835
   615.00         60.2647
   615.14         60.2550
   615.28         60.2473
   615.42         60.2369
   615.56         60.2196
   615.70         60.1872
   615.84         60.1274
   615.98         60.0324
   616.12         59.9043
   616.26         59.7512
   616.40         59.5831
   616.54         59.4121
   616.68         59.2470
   616.82         59.0913
   616.96         58.9522
   617.10         58.8407
   617.24         58.7641
   617.38         58.7260
   617.52         58.7258
   617.66         58.7570
   617.80         58.8127
   617.94         58.8874
   618.08         58.9730
   618.22         59.0596
   618.36         59.1414
   618.50         59.2196
   618.64         59.2986
   618.78         59.3792
   618.92         59.4555
   619.06         59.5144
   619.20         59.5389
   619.34         59.5170
   619.48         59.4485
   619.62         59.3410
   619.76         59.2020
   619.90         59.0373
   620.04         58.8540
   620.18         58.6602
   620.32         58.4673
   620.46         58.2900
   620.60         58.1426
   620.74         58.0380
   620.88         57.9879
   621.02         57.9984
   621.16         58.0670
   621.30         58.1811
   621.44         58.3186
   621.58         58.4545
   621.72         58.5698
   621.86         58.6540
   622.00         58.7036
   622.14         58.7167
   622.28         58.6916
   622.42         58.6314
   622.56         58.5431
   622.70         58.4361
   622.84         58.3221
   622.98         58.2184
   623.12         58.1441
   623.26         58.1112
   623.40         58.1247
   623.54         58.1848
   623.68         58.2887
   623.82         58.4284
   623.96         58.5860
   624.10         58.7386
   624.24         58.8649
   624.38         58.9495
   624.52         58.9828
   624.66         58.9622
   624.80         58.8911
   624.94         58.7766
   625.08         58.6290
   625.22         58.4578
   625.36         58.2721
   625.50         58.0824
   625.64         57.8968
   625.78         57.7156
   625.92         57.5355
   626.06         57.3574
   626.20         57.1864
   626.34         57.0248
   626.48         56.8624
   626.62         56.6804
   626.76         56.4640
   626.90         56.2065
   627.04         55.9085
   627.18         55.5764
   627.32         55.2240
   627.46         54.8734
   627.60         54.5502
   627.74         54.2772
   627.88         54.0729
   628.02         53.9526
   628.16         53.9256
   628.30         53.9941
   628.44         54.1560
   628.58         54.4023
   628.72         54.7127
   628.86         55.0576
   629.00         55.4014
   629.14         55.7088
   629.28         55.9587
   629.42         56.1464
   629.56         56.2737
   629.70         56.3457
   629.84         56.3709
   629.98         56.3596
   630.12         56.3158
   630.26         56.2320
   630.40         56.0973
   630.54         55.9091
   630.68         55.6765
   630.82         55.4147
   630.96         55.1409
   631.10         54.8704
   631.24         54.6140
   631.38         54.3822
   631.52         54.1886
   631.66         54.0467
   631.80         53.9644
   631.94         53.9433
   632.08         53.9748
   632.22         54.0426
   632.36         54.1323
   632.50         54.2339
   632.64         54.3384
   632.78         54.4360
   632.92         54.5196
   633.06         54.5902
   633.20         54.6555
   633.34         54.7217
   633.48         54.7871
   633.62         54.8438
   633.76         54.8841
   633.90         54.9062
   634.04         54.9100
   634.18         54.8941
   634.32         54.8546
   634.46         54.7866
   634.60         54.6837
   634.74         54.5403
   634.88         54.3565
   635.02         54.1386
   635.16         53.8955
   635.30         53.6378
   635.44         53.3792
   635.58         53.1367
   635.72         52.9277
   635.86         52.7646
   636.00         52.6518
   636.14         52.5863
   636.28         52.5605
   636.42         52.5659
   636.56         52.5912
   636.70         52.6217
   636.84         52.6433
   636.98         52.6458
   637.12         52.6248
   637.26         52.5828
   637.40         52.5288
   637.54         52.4736
   637.68         52.4263
   637.82         52.3933
   637.96         52.3773
   638.10         52.3770
   638.24         52.3887
   638.38         52.4057
   638.52         52.4199
   638.66         52.4235
   638.80         52.4103
   638.94         52.3754
   639.08         52.3144
   639.22         52.2240
   639.36         52.1058
   639.50         51.9650
   639.64         51.8101
   639.78         51.6515
   639.92         51.4980
   640.06         51.3566
   640.20         51.2335
   640.34         51.1366
   640.48         51.0726
   640.62         51.0439
   640.76         51.0495
   640.90         51.0883
   641.04         51.1596
   641.18         51.2610
   641.32         51.3866
   641.46         51.5251
   641.60         51.6632
   641.74         51.7920
   641.88         51.9114
   642.02         52.0270
   642.16         52.1450
   642.30         52.2638
   642.44         52.3757
   642.58         52.4717
   642.72         52.5424
   642.86         52.5780
   643.00         52.5700
   643.14         52.5120
   643.28         52.4026
   643.42         52.2477
   643.56         52.0614
   643.70         51.8604
   643.84         51.6588
   643.98         51.4686
   644.12         51.3011
   644.26         51.1650
   644.40         51.0632
   644.54         50.9907
   644.68         50.9363
   644.82         50.8856
   644.96         50.8220
   645.10         50.7350
   645.24         50.6208
   645.38         50.4791
   645.52         50.3160
   645.66         50.1449
   645.80         49.9818
   645.94         49.8391
   646.08         49.7262
   646.22         49.6525
   646.36         49.6231
   646.50         49.6357
   646.64         49.6824
   646.78         49.7539
   646.92         49.8419
   647.06         49.9409
   647.20         50.0474
   647.34         50.1550
   647.48         50.2520
   647.62         50.3267
   647.76         50.3742
   647.90         50.3968
   648.04         50.4002
   648.18         50.3919
   648.32         50.3789
   648.46         50.3651
   648.60         50.3521
   648.74         50.3454
   648.88         50.3525
   649.02         50.3754
   649.16         50.4105
   649.30         50.4531
   649.44         50.5001
   649.58         50.5467
   649.72         50.5861
   649.86         50.6136
   650.00         50.6275
   650.14         50.6302
   650.28         50.6281
   650.42         50.6263
   650.56         50.6249
   650.70         50.6201
   650.84         50.6082
   650.98         50.5842
   651.12         50.5419
   651.26         50.4777
   651.40         50.3921
   651.54         50.2858
   651.68         50.1609
   651.82         50.0238
   651.96         49.8855
   652.10         49.7596
   652.24         49.6570
   652.38         49.5836
   652.52         49.5399
   652.66         49.5216
   652.80         49.5231
   652.94         49.5411
   653.08         49.5712
   653.22         49.6058
   653.36         49.6359
   653.50         49.6564
   653.64         49.6682
   653.78         49.6749
   653.92         49.6767
   654.06         49.6672
   654.20         49.6360
   654.34         49.5726
   654.48         49.4618
   654.62         49.2838
   654.76         49.0185
   654.90         48.6490
   655.04         48.1657
   655.18         47.5733
   655.32         46.8933
   655.46         46.1621
   655.60         45.4272
   655.74         44.7402
   655.88         44.1524
   656.02         43.7118
   656.16         43.4565
   656.30         43.4048
   656.44         43.5517
   656.58         43.8750
   656.72         44.3420
   656.86         44.9142
   657.00         45.5467
   657.14         46.1909
   657.28         46.8077
   657.42         47.3695
   657.56         47.8560
   657.70         48.2551
   657.84         48.5661
   657.98         48.7972
   658.12         48.9604
   658.26         49.0678
   658.40         49.1296
   658.54         49.1537
   658.68         49.1468
   658.82         49.1150
   658.96         49.0623
   659.10         48.9944
   659.24         48.9195
   659.38         48.8464
   659.52         48.7835
   659.66         48.7364
   659.80         48.7078
   659.94         48.6942
   660.08         48.6842
   660.22         48.6655
   660.36         48.6328
   660.50         48.5868
   660.64         48.5306
   660.78         48.4683
   660.92         48.4057
   661.06         48.3473
   661.20         48.2941
   661.34         48.2449
   661.48         48.1979
   661.62         48.1508
   661.76         48.1017
   661.90         48.0480
   662.04         47.9889
   662.18         47.9258
   662.32         47.8590
   662.46         47.7869
   662.60         47.7076
   662.74         47.6222
   662.88         47.5389
   663.02         47.4653
   663.16         47.4044
   663.30         47.3571
   663.44         47.3223
   663.58         47.2954
   663.72         47.2674
   663.86         47.2299
   664.00         47.1798
   664.14         47.1178
   664.28         47.0449
   664.42         46.9609
   664.56         46.8668
   664.70         46.7649
   664.84         46.6547
   664.98         46.5309
   665.12         46.3858
   665.26         46.2139
   665.40         46.0169
   665.54         45.8027
   665.68         45.5800
   665.82         45.3591
   665.96         45.1528
   666.10         44.9719
   666.24         44.8217
   666.38         44.7026
   666.52         44.6131
   666.66         44.5490
   666.80         44.5002
   666.94         44.4570
   667.08         44.4131
   667.22         44.3636
   667.36         44.3048
   667.50         44.2332
   667.64         44.1467
   667.78         44.0483
   667.92         43.9480
   668.06         43.8601
   668.20         43.7972
   668.34         43.7672
   668.48         43.7735
   668.62         43.8144
   668.76         43.8836
   668.90         43.9720
   669.04         44.0720
   669.18         44.1762
   669.32         44.2761
   669.46         44.3659
   669.60         44.4449
   669.74         44.5111
   669.88         44.5608
   670.02         44.5917
   670.16         44.6033
   670.30         44.5976
   670.44         44.5808
   670.58         44.5605
   670.72         44.5428
   670.86         44.5313
   671.00         44.5281
   671.14         44.5341
   671.28         44.5510
   671.42         44.5798
   671.56         44.6193
   671.70         44.6650
   671.84         44.7110
   671.98         44.7524
   672.12         44.7871
   672.26         44.8126
   672.40         44.8242
   672.54         44.8156
   672.68         44.7823
   672.82         44.7235
   672.96         44.6447
   673.10         44.5538
   673.24         44.4555
   673.38         44.3531
   673.52         44.2528
   673.66         44.1617
   673.80         44.0837
   673.94         44.0192
   674.08         43.9664
   674.22         43.9201
   674.36         43.8771
   674.50         43.8407
   674.64         43.8174
   674.78         43.8137
   674.92         43.8318
   675.06         43.8670
   675.20         43.9120
   675.34         43.9615
   675.48         44.0131
   675.62         44.0653
   675.76         44.1136
   675.90         44.1500
   676.04         44.1655
   676.18         44.1514
   676.32         44.0997
   676.46         44.0046
   676.60         43.8672
   676.74         43.6957
   676.88         43.5037
   677.02         43.3100
   677.16         43.1336
   677.30         42.9862
   677.44         42.8725
   677.58         42.7934
   677.72         42.7461
   677.86         42.7246
   678.00         42.7208
   678.14         42.7263
   678.28         42.7334
   678.42         42.7357
   678.56         42.7270
   678.70         42.7041
   678.84         42.6701
   678.98         42.6333
   679.12         42.6037
   679.26         42.5905
   679.40         42.6010
   679.54         42.6390
   679.68         42.7026
   679.82         42.7790
   679.96         42.8491
   680.10         42.8959
   680.24         42.9075
   680.38         42.8770
   680.52         42.8043
   680.66         42.6978
   680.80         42.5722
   680.94         42.4428
   681.08         42.3212
   681.22         42.2161
   681.36         42.1368
   681.50         42.0933
   681.64         42.0922
   681.78         42.1320
   681.92         42.2017
   682.06         42.2864
   682.20         42.3692
   682.34         42.4316
   682.48         42.4605
   682.62         42.4554
   682.76         42.4246
   682.90         42.3746
   683.04         42.3062
   683.18         42.2187
   683.32         42.1143
   683.46         41.9983
   683.60         41.8774
   683.74         41.7610
   683.88         41.6619
   684.02         41.5926
   684.16         41.5580
   684.30         41.5525
   684.44         41.5640
   684.58         41.5800
   684.72         41.5907
   684.86         41.5865
   685.00         41.5602
   685.14         41.5094
   685.28         41.4313
   685.42         41.3117
   685.56         41.1219
   685.70         40.8278
   685.84         40.4004
   685.98         39.8237
   686.12         39.0976
   686.26         38.2399
   686.40         37.2865
   686.54         36.2883
   686.68         35.3051
   686.82         34.4019
   686.96         33.6451
   687.10         33.0965
   687.24         32.7960
   687.38         32.7517
   687.52         32.9441
   687.66         33.3295
   687.80         33.8447
   687.94         34.4110
   688.08         34.9461
   688.22         35.3825
   688.36         35.6808
   688.50         35.8345
   688.64         35.8663
   688.78         35.8161
   688.92         35.7323
   689.06         35.6612
   689.20         35.6375
   689.34         35.6815
   689.48         35.7989
   689.62         35.9810
   689.76         36.2076
   689.90         36.4516
   690.04         36.6879
   690.18         36.8991
   690.32         37.0755
   690.46         37.2153
   690.60         37.3234
   690.74         37.4098
   690.88         37.4875
   691.02         37.5680
   691.16         37.6598
   691.30         37.7678
   691.44         37.8921
   691.58         38.0272
   691.72         38.1603
   691.86         38.2767
   692.00         38.3670
   692.14         38.4278
   692.28         38.4604
   692.42         38.4689
   692.56         38.4571
   692.70         38.4265
   692.84         38.3787
   692.98         38.3196
   693.12         38.2586
   693.26         38.2045
   693.40         38.1625
   693.54         38.1328
   693.68         38.1140
   693.82         38.1088
   693.96         38.1218
   694.10         38.1553
   694.24         38.2059
   694.38         38.2665
   694.52         38.3324
   694.66         38.4013
   694.80         38.4725
   694.94         38.5463
   695.08         38.6223
   695.22         38.6989
   695.36         38.7761
   695.50         38.8581
   695.64         38.9514
   695.78         39.0594
   695.92         39.1803
   696.06         39.3122
   696.20         39.4580
   696.34         39.6230
   696.48         39.8059
   696.62         39.9974
   696.76         40.1846
   696.90         40.3537
   697.04         40.4913
   697.18         40.5868
   697.32         40.6315
   697.46         40.6183
   697.60         40.5408
   697.74         40.3977
   697.88         40.1960
   698.02         39.9512
   698.16         39.6847
   698.30         39.4191
   698.44         39.1741
   698.58         38.9641
   698.72         38.7987
   698.86         38.6780
   699.00         38.5906
   699.14         38.5183
   699.28         38.4461
   699.42         38.3639
   699.56         38.2668
   699.70         38.1595
   699.84         38.0577
   699.98         37.9819
   700.12         37.9453
   700.26         37.9519
   700.40         38.0006
   700.54         38.0855
   700.68         38.1953
   700.82         38.3152
   700.96         38.4295
   701.10         38.5215
   701.24         38.5775
   701.38         38.5907
   701.52         38.5610
   701.66         38.4960
   701.80         38.4127
   701.94         38.3326
   702.08         38.2746
   702.22         38.2511
   702.36         38.2656
   702.50         38.3094
   702.64         38.3640
   702.78         38.4095
   702.92         38.4334
   703.06         38.4316
   703.20         38.4049
   703.34         38.3531
   703.48         38.2771
   703.62         38.1797
   703.76         38.0637
   703.90         37.9343
   704.04         37.8007
   704.18         37.6716
   704.32         37.5532
   704.46         37.4500
   704.60         37.3634
   704.74         37.2916
   704.88         37.2318
   705.02         37.1818
   705.16         37.1398
   705.30         37.1052
   705.44         37.0794
   705.58         37.0648
   705.72         37.0657
   705.86         37.0862
   706.00         37.1270
   706.14         37.1875
   706.28         37.2644
   706.42         37.3493
   706.56         37.4315
   706.70         37.4992
   706.84         37.5425
   706.98         37.5574
   707.12         37.5452
   707.26         37.5069
   707.40         37.4436
   707.54         37.3616
   707.68         37.2731
   707.82         37.1911
   707.96         37.1279
   708.10         37.0945
   708.24         37.0979
   708.38         37.1390
   708.52         37.2153
   708.66         37.3196
   708.80         37.4363
   708.94         37.5453
   709.08         37.6296
   709.22         37.6790
   709.36         37.6896
   709.50         37.6602
   709.64         37.5928
   709.78         37.4906
   709.92         37.3600
   710.06         37.2141
   710.20         37.0691
   710.34         36.9383
   710.48         36.8298
   710.62         36.7487
   710.76         36.7028
   710.90         36.6987
   711.04         36.7373
   711.18         36.8136
   711.32         36.9143
   711.46         37.0249
   711.60         37.1369
   711.74         37.2469
   711.88         37.3541
   712.02         37.4594
   712.16         37.5675
   712.30         37.6862
   712.44         37.8221
   712.58         37.9783
   712.72         38.1529
   712.86         38.3366
   713.00         38.5164
   713.14         38.6784
   713.28         38.8114
   713.42         38.9095
   713.56         38.9671
   713.70         38.9791
   713.84         38.9461
   713.98         38.8720
   714.12         38.7639
   714.26         38.6322
   714.40         38.4902
   714.54         38.3511
   714.68         38.2189
   714.82         38.0917
   714.96         37.9672
   715.10         37.8433
   715.24         37.7164
   715.38         37.5810
   715.52         37.4323
   715.66         37.2659
   715.80         37.0742
   715.94         36.8487
   716.08         36.5822
   716.22         36.2696
   716.36         35.9087
   716.50         35.5022
   716.64         35.0592
   716.78         34.5961
   716.92         34.1375
   717.06         33.7114
   717.20         33.3376
   717.34         33.0251
   717.48         32.7818
   717.62         32.6190
   717.76         32.5469
   717.90         32.5614
   718.04         32.6408
   718.18         32.7564
   718.32         32.8822
   718.46         33.0028
   718.60         33.1157
   718.74         33.2227
   718.88         33.3243
   719.02         33.4194
   719.16         33.5080
   719.30         33.5926
   719.44         33.6766
   719.58         33.7634
   719.72         33.8569
   719.86         33.9657
   720.00         34.1069
   720.14         34.2965
   720.28         34.5359
   720.42         34.8041
   720.56         35.0660
   720.70         35.2952
   720.84         35.4802
   720.98         35.6166
   721.12         35.7029
   721.26         35.7415
   721.40         35.7389
   721.54         35.7070
   721.68         35.6624
   721.82         35.6240
   721.96         35.6098
   722.10         35.6265
   722.24         35.6631
   722.38         35.7024
   722.52         35.7289
   722.66         35.7222
   722.80         35.6566
   722.94         35.5117
   723.08         35.2799
   723.22         34.9692
   723.36         34.6040
   723.50         34.2180
   723.64         33.8480
   723.78         33.5307
   723.92         33.2922
   724.06         33.1376
   724.20         33.0571
   724.34         33.0387
   724.48         33.0733
   724.62         33.1513
   724.76         33.2616
   724.90         33.3955
   725.04         33.5488
   725.18         33.7123
   725.32         33.8620
   725.46         33.9760
   725.60         34.0419
   725.74         34.0523
   725.88         34.0113
   726.02         33.9338
   726.16         33.8314
   726.30         33.7034
   726.44         33.5438
   726.58         33.3532
   726.72         33.1470
   726.86         32.9589
   727.00         32.8268
   727.14         32.7790
   727.28         32.8276
   727.42         32.9673
   727.56         33.1780
   727.70         33.4296
   727.84         33.6866
   727.98         33.9161
   728.12         34.1023
   728.26         34.2416
   728.40         34.3378
   728.54         34.4055
   728.68         34.4576
   728.82         34.5000
   728.96         34.5357
   729.10         34.5712
   729.24         34.6160
   729.38         34.6762
   729.52         34.7460
   729.66         34.8014
   729.80         34.8123
   729.94         34.7576
   730.08         34.6307
   730.22         34.4418
   730.36         34.2108
   730.50         33.9594
   730.64         33.7149
   730.78         33.5083
   730.92         33.3612
   731.06         33.2786
   731.20         33.2545
   731.34         33.2783
   731.48         33.3354
   731.62         33.4088
   731.76         33.4812
   731.90         33.5373
   732.04         33.5647
   732.18         33.5554
   732.32         33.5105
   732.46         33.4435
   732.60         33.3712
   732.74         33.3060
   732.88         33.2548
   733.02         33.2162
   733.16         33.1865
   733.30         33.1713
   733.44         33.1805
   733.58         33.2187
   733.72         33.2824
   733.86         33.3630
   734.00         33.4486
   734.14         33.5275
   734.28         33.5949
   734.42         33.6512
   734.56         33.6989
   734.70         33.7412
   734.84         33.7811
   734.98         33.8187
   735.12         33.8495
   735.26         33.8655
   735.40         33.8608
   735.54         33.8332
   735.68         33.7811
   735.82         33.7040
   735.96         33.6040
   736.10         33.4830
   736.24         33.3422
   736.38         33.1879
   736.52         33.0351
   736.66         32.9035
   736.80         32.8073
   736.94         32.7505
   737.08         32.7299
   737.22         32.7366
   737.36         32.7556
   737.50         32.7692
   737.64         32.7589
   737.78         32.7069
   737.92         32.6023
   738.06         32.4453
   738.20         32.2470
   738.34         32.0269
   738.48         31.8107
   738.62         31.6261
   738.76         31.4936
   738.90         31.4219
   739.04         31.4085
   739.18         31.4395
   739.32         31.4896
   739.46         31.5291
   739.60         31.5305
   739.74         31.4718
   739.88         31.3358
   740.02         31.1161
   740.16         30.8202
   740.30         30.4734
   740.44         30.1161
   740.58         29.7899
   740.72         29.5307
   740.86         29.3659
   741.00         29.3119
   741.14         29.3693
   741.28         29.5210
   741.42         29.7365
   741.56         29.9817
   741.70         30.2263
   741.84         30.4429
   741.98         30.6130
   742.12         30.7299
   742.26         30.7950
   742.40         30.8175
   742.54         30.8102
   742.68         30.7883
   742.82         30.7691
   742.96         30.7691
   743.10         30.7883
   743.24         30.8102
   743.38         30.8175
   743.52         30.7950
   743.66         30.7299
   743.80         30.6130
   743.94         30.4429
   744.08         30.2263
   744.22         29.9817
