# File HD22193
# Wavelength [nm]    Normalized Amplitude
   349.70         8.6637
   349.84         8.5714
   349.98         8.5202
   350.12         8.5016
   350.26         8.5051
   350.40         8.5226
   350.54         8.5507
   350.68         8.5860
   350.82         8.6206
   350.96         8.6453
   351.10         8.6540
   351.24         8.6453
   351.38         8.6206
   351.52         8.5860
   351.66         8.5507
   351.80         8.5226
   351.94         8.5051
   352.08         8.5016
   352.22         8.5202
   352.36         8.5714
   352.50         8.6637
   352.64         8.8000
   352.78         8.9775
   352.92         9.1877
   353.06         9.4179
   353.20         9.6508
   353.34         9.8657
   353.48         10.0441
   353.62         10.1752
   353.76         10.2583
   353.90         10.2996
   354.04         10.3091
   354.18         10.2956
   354.32         10.2642
   354.46         10.2153
   354.60         10.1484
   354.74         10.0662
   354.88         9.9732
   355.02         9.8730
   355.16         9.7657
   355.30         9.6472
   355.44         9.5115
   355.58         9.3543
   355.72         9.1740
   355.86         8.9729
   356.00         8.7574
   356.14         8.5370
   356.28         8.3228
   356.42         8.1251
   356.56         7.9516
   356.70         7.8059
   356.84         7.6892
   356.98         7.6006
   357.12         7.5367
   357.26         7.4903
   357.40         7.4516
   357.54         7.4109
   357.68         7.3618
   357.82         7.3032
   357.96         7.2401
   358.10         7.1841
   358.24         7.1508
   358.38         7.1579
   358.52         7.2215
   358.66         7.3536
   358.80         7.5576
   358.94         7.8251
   359.08         8.1366
   359.22         8.4636
   359.36         8.7715
   359.50         9.0284
   359.64         9.2111
   359.78         9.3059
   359.92         9.3119
   360.06         9.2401
   360.20         9.1109
   360.34         8.9472
   360.48         8.7685
   360.62         8.5885
   360.76         8.4178
   360.90         8.2681
   361.04         8.1532
   361.18         8.0862
   361.32         8.0771
   361.46         8.1306
   361.60         8.2435
   361.74         8.4047
   361.88         8.5956
   362.02         8.7939
   362.16         8.9806
   362.30         9.1417
   362.44         9.2703
   362.58         9.3656
   362.72         9.4298
   362.86         9.4663
   363.00         9.4793
   363.14         9.4742
   363.28         9.4590
   363.42         9.4420
   363.56         9.4290
   363.70         9.4227
   363.84         9.4229
   363.98         9.4285
   364.12         9.4396
   364.26         9.4578
   364.40         9.4873
   364.54         9.5364
   364.68         9.6188
   364.82         9.7488
   364.96         9.9342
   365.10         10.1725
   365.24         10.4503
   365.38         10.7458
   365.52         11.0327
   365.66         11.2843
   365.80         11.4779
   365.94         11.6008
   366.08         11.6539
   366.22         11.6492
   366.36         11.6056
   366.50         11.5412
   366.64         11.4702
   366.78         11.4018
   366.92         11.3381
   367.06         11.2765
   367.20         11.2121
   367.34         11.1395
   367.48         11.0527
   367.62         10.9462
   367.76         10.8211
   367.90         10.6868
   368.04         10.5577
   368.18         10.4497
   368.32         10.3764
   368.46         10.3490
   368.60         10.3766
   368.74         10.4619
   368.88         10.5993
   369.02         10.7762
   369.16         10.9736
   369.30         11.1672
   369.44         11.3306
   369.58         11.4396
   369.72         11.4783
   369.86         11.4412
   370.00         11.3357
   370.14         11.1805
   370.28         11.0027
   370.42         10.8310
   370.56         10.6876
   370.70         10.5817
   370.84         10.5086
   370.98         10.4561
   371.12         10.4116
   371.26         10.3681
   371.40         10.3226
   371.54         10.2709
   371.68         10.2063
   371.82         10.1238
   371.96         10.0220
   372.10         9.9035
   372.24         9.7710
   372.38         9.6258
   372.52         9.4685
   372.66         9.3021
   372.80         9.1313
   372.94         8.9615
   373.08         8.7965
   373.22         8.6371
   373.36         8.4817
   373.50         8.3309
   373.64         8.1900
   373.78         8.0669
   373.92         7.9701
   374.06         7.9053
   374.20         7.8769
   374.34         7.8902
   374.48         7.9473
   374.62         8.0414
   374.76         8.1600
   374.90         8.2950
   375.04         8.4436
   375.18         8.6061
   375.32         8.7822
   375.46         8.9664
   375.60         9.1464
   375.74         9.3064
   375.88         9.4345
   376.02         9.5301
   376.16         9.6048
   376.30         9.6782
   376.44         9.7723
   376.58         9.9075
   376.72         10.0984
   376.86         10.3503
   377.00         10.6559
   377.14         10.9982
   377.28         11.3554
   377.42         11.7067
   377.56         12.0309
   377.70         12.3059
   377.84         12.5128
   377.98         12.6396
   378.12         12.6808
   378.26         12.6366
   378.40         12.5121
   378.54         12.3174
   378.68         12.0665
   378.82         11.7769
   378.96         11.4698
   379.10         11.1724
   379.24         10.9147
   379.38         10.7209
   379.52         10.6056
   379.66         10.5733
   379.80         10.6219
   379.94         10.7429
   380.08         10.9192
   380.22         11.1256
   380.36         11.3328
   380.50         11.5117
   380.64         11.6361
   380.78         11.6838
   380.92         11.6385
   381.06         11.4938
   381.20         11.2540
   381.34         10.9322
   381.48         10.5467
   381.62         10.1187
   381.76         9.6708
   381.90         9.2218
   382.04         8.7851
   382.18         8.3715
   382.32         7.9913
   382.46         7.6523
   382.60         7.3564
   382.74         7.1003
   382.88         6.8816
   383.02         6.7054
   383.16         6.5850
   383.30         6.5360
   383.44         6.5696
   383.58         6.6904
   383.72         6.8965
   383.86         7.1784
   384.00         7.5204
   384.14         7.9024
   384.28         8.3024
   384.42         8.6962
   384.56         9.0572
   384.70         9.3568
   384.84         9.5727
   384.98         9.6969
   385.12         9.7364
   385.26         9.7094
   385.40         9.6412
   385.54         9.5598
   385.68         9.4902
   385.82         9.4470
   385.96         9.4324
   386.10         9.4406
   386.24         9.4653
   386.38         9.5025
   386.52         9.5481
   386.66         9.5948
   386.80         9.6343
   386.94         9.6595
   387.08         9.6648
   387.22         9.6476
   387.36         9.6100
   387.50         9.5586
   387.64         9.5013
   387.78         9.4439
   387.92         9.3912
   388.06         9.3480
   388.20         9.3206
   388.34         9.3159
   388.48         9.3413
   388.62         9.4053
   388.76         9.5158
   388.90         9.6762
   389.04         9.8794
   389.18         10.1085
   389.32         10.3440
   389.46         10.5692
   389.60         10.7723
   389.74         10.9476
   389.88         11.0954
   390.02         11.2204
   390.16         11.3305
   390.30         11.4362
   390.44         11.5485
   390.58         11.6730
   390.72         11.8061
   390.86         11.9354
   391.00         12.0428
   391.14         12.1101
   391.28         12.1210
   391.42         12.0617
   391.56         11.9206
   391.70         11.6890
   391.84         11.3635
   391.98         10.9469
   392.12         10.4474
   392.26         9.8794
   392.40         9.2627
   392.54         8.6216
   392.68         7.9859
   392.82         7.3894
   392.96         6.8663
   393.10         6.4455
   393.24         6.1499
   393.38         5.9964
   393.52         5.9968
   393.66         6.1543
   393.80         6.4609
   393.94         6.8969
   394.08         7.4318
   394.22         8.0296
   394.36         8.6533
   394.50         9.2683
   394.64         9.8438
   394.78         10.3543
   394.92         10.7793
   395.06         11.1020
   395.20         11.3096
   395.34         11.3919
   395.48         11.3398
   395.62         11.1467
   395.76         10.8142
   395.90         10.3588
   396.04         9.8131
   396.18         9.2222
   396.32         8.6384
   396.46         8.1174
   396.60         7.7126
   396.74         7.4692
   396.88         7.4193
   397.02         7.5765
   397.16         7.9340
   397.30         8.4650
   397.44         9.1281
   397.58         9.8745
   397.72         10.6535
   397.86         11.4191
   398.00         12.1325
   398.14         12.7654
   398.28         13.3029
   398.42         13.7425
   398.56         14.0917
   398.70         14.3650
   398.84         14.5806
   398.98         14.7569
   399.12         14.9082
   399.26         15.0417
   399.40         15.1577
   399.54         15.2548
   399.68         15.3337
   399.82         15.3980
   399.96         15.4537
   400.10         15.5087
   400.24         15.5702
   400.38         15.6431
   400.52         15.7289
   400.66         15.8272
   400.80         15.9349
   400.94         16.0486
   401.08         16.1648
   401.22         16.2806
   401.36         16.3940
   401.50         16.5037
   401.64         16.6062
   401.78         16.6931
   401.92         16.7524
   402.06         16.7732
   402.20         16.7514
   402.34         16.6905
   402.48         16.5993
   402.62         16.4902
   402.76         16.3772
   402.90         16.2726
   403.04         16.1844
   403.18         16.1146
   403.32         16.0581
   403.46         16.0069
   403.60         15.9567
   403.74         15.9093
   403.88         15.8694
   404.02         15.8417
   404.16         15.8274
   404.30         15.8214
   404.44         15.8162
   404.58         15.8074
   404.72         15.7962
   404.86         15.7888
   405.00         15.7892
   405.14         15.7927
   405.28         15.7877
   405.42         15.7622
   405.56         15.7092
   405.70         15.6290
   405.84         15.5269
   405.98         15.4140
   406.12         15.3092
   406.26         15.2332
   406.40         15.1974
   406.54         15.2007
   406.68         15.2348
   406.82         15.2911
   406.96         15.3646
   407.10         15.4528
   407.24         15.5543
   407.38         15.6681
   407.52         15.7942
   407.66         15.9336
   407.80         16.0882
   407.94         16.2609
   408.08         16.4528
   408.22         16.6594
   408.36         16.8685
   408.50         17.0623
   408.64         17.2210
   408.78         17.3243
   408.92         17.3520
   409.06         17.2887
   409.20         17.1332
   409.34         16.9004
   409.48         16.6159
   409.62         16.3102
   409.76         16.0139
   409.90         15.7567
   410.04         15.5658
   410.18         15.4634
   410.32         15.4628
   410.46         15.5644
   410.60         15.7563
   410.74         16.0178
   410.88         16.3233
   411.02         16.6441
   411.16         16.9517
   411.30         17.2213
   411.44         17.4358
   411.58         17.5873
   411.72         17.6770
   411.86         17.7112
   412.00         17.6965
   412.14         17.6387
   412.28         17.5452
   412.42         17.4279
   412.56         17.3026
   412.70         17.1873
   412.84         17.0967
   412.98         17.0373
   413.12         17.0054
   413.26         16.9923
   413.40         16.9914
   413.54         16.9990
   413.68         17.0116
   413.82         17.0251
   413.96         17.0361
   414.10         17.0414
   414.24         17.0373
   414.38         17.0201
   414.52         16.9888
   414.66         16.9465
   414.80         16.9014
   414.94         16.8662
   415.08         16.8531
   415.22         16.8696
   415.36         16.9163
   415.50         16.9860
   415.64         17.0689
   415.78         17.1578
   415.92         17.2482
   416.06         17.3343
   416.20         17.4058
   416.34         17.4503
   416.48         17.4584
   416.62         17.4247
   416.76         17.3488
   416.90         17.2357
   417.04         17.0955
   417.18         16.9417
   417.32         16.7890
   417.46         16.6496
   417.60         16.5308
   417.74         16.4353
   417.88         16.3632
   418.02         16.3131
   418.16         16.2841
   418.30         16.2754
   418.44         16.2824
   418.58         16.2956
   418.72         16.3047
   418.86         16.3032
   419.00         16.2889
   419.14         16.2625
   419.28         16.2277
   419.42         16.1913
   419.56         16.1606
   419.70         16.1429
   419.84         16.1466
   419.98         16.1798
   420.12         16.2487
   420.26         16.3561
   420.40         16.4994
   420.54         16.6698
   420.68         16.8543
   420.82         17.0375
   420.96         17.2036
   421.10         17.3356
   421.24         17.4165
   421.38         17.4298
   421.52         17.3632
   421.66         17.2150
   421.80         16.9985
   421.94         16.7381
   422.08         16.4613
   422.22         16.1925
   422.36         15.9520
   422.50         15.7538
   422.64         15.6060
   422.78         15.5121
   422.92         15.4721
   423.06         15.4845
   423.20         15.5469
   423.34         15.6543
   423.48         15.7952
   423.62         15.9503
   423.76         16.0944
   423.90         16.2042
   424.04         16.2667
   424.18         16.2827
   424.32         16.2627
   424.46         16.2192
   424.60         16.1610
   424.74         16.0907
   424.88         16.0074
   425.02         15.9127
   425.16         15.8147
   425.30         15.7279
   425.44         15.6670
   425.58         15.6417
   425.72         15.6520
   425.86         15.6873
   426.00         15.7280
   426.14         15.7514
   426.28         15.7395
   426.42         15.6859
   426.56         15.5968
   426.70         15.4875
   426.84         15.3737
   426.98         15.2682
   427.12         15.1812
   427.26         15.1193
   427.40         15.0849
   427.54         15.0793
   427.68         15.1031
   427.82         15.1518
   427.96         15.2140
   428.10         15.2731
   428.24         15.3125
   428.38         15.3179
   428.52         15.2791
   428.66         15.1909
   428.80         15.0529
   428.94         14.8683
   429.08         14.6429
   429.22         14.3842
   429.36         14.0983
   429.50         13.7898
   429.64         13.4632
   429.78         13.1251
   429.92         12.7852
   430.06         12.4585
   430.20         12.1658
   430.34         11.9337
   430.48         11.7933
   430.62         11.7750
   430.76         11.9006
   430.90         12.1777
   431.04         12.5942
   431.18         13.1175
   431.32         13.6994
   431.46         14.2866
   431.60         14.8344
   431.74         15.3135
   431.88         15.7076
   432.02         16.0090
   432.16         16.2191
   432.30         16.3485
   432.44         16.4152
   432.58         16.4399
   432.72         16.4394
   432.86         16.4237
   433.00         16.3966
   433.14         16.3580
   433.28         16.3055
   433.42         16.2366
   433.56         16.1511
   433.70         16.0527
   433.84         15.9498
   433.98         15.8564
   434.12         15.7907
   434.26         15.7729
   434.40         15.8172
   434.54         15.9261
   434.68         16.0912
   434.82         16.2963
   434.96         16.5222
   435.10         16.7506
   435.24         16.9689
   435.38         17.1716
   435.52         17.3600
   435.66         17.5399
   435.80         17.7178
   435.94         17.8959
   436.08         18.0688
   436.22         18.2232
   436.36         18.3421
   436.50         18.4097
   436.64         18.4181
   436.78         18.3690
   436.92         18.2704
   437.06         18.1286
   437.20         17.9441
   437.34         17.7158
   437.48         17.4498
   437.62         17.1609
   437.76         16.8685
   437.90         16.5916
   438.04         16.3454
   438.18         16.1422
   438.32         15.9922
   438.46         15.9037
   438.60         15.8819
   438.74         15.9267
   438.88         16.0323
   439.02         16.1892
   439.16         16.3837
   439.30         16.5949
   439.44         16.7961
   439.58         16.9627
   439.72         17.0785
   439.86         17.1428
   440.00         17.1710
   440.14         17.1864
   440.28         17.2074
   440.42         17.2426
   440.56         17.2954
   440.70         17.3686
   440.84         17.4653
   440.98         17.5862
   441.12         17.7279
   441.26         17.8821
   441.40         18.0377
   441.54         18.1839
   441.68         18.3123
   441.82         18.4171
   441.96         18.4962
   442.10         18.5522
   442.24         18.5900
   442.38         18.6136
   442.52         18.6260
   442.66         18.6307
   442.80         18.6312
   442.94         18.6292
   443.08         18.6274
   443.22         18.6316
   443.36         18.6488
   443.50         18.6834
   443.64         18.7339
   443.78         18.7966
   443.92         18.8679
   444.06         18.9435
   444.20         19.0146
   444.34         19.0684
   444.48         19.0912
   444.62         19.0729
   444.76         19.0083
   444.90         18.8980
   445.04         18.7498
   445.18         18.5793
   445.32         18.4064
   445.46         18.2487
   445.60         18.1195
   445.74         18.0293
   445.88         17.9865
   446.02         17.9964
   446.16         18.0611
   446.30         18.1784
   446.44         18.3429
   446.58         18.5448
   446.72         18.7687
   446.86         18.9946
   447.00         19.2031
   447.14         19.3805
   447.28         19.5206
   447.42         19.6245
   447.56         19.6976
   447.70         19.7468
   447.84         19.7782
   447.98         19.7955
   448.12         19.8010
   448.26         19.7963
   448.40         19.7834
   448.54         19.7662
   448.68         19.7521
   448.82         19.7486
   448.96         19.7598
   449.10         19.7865
   449.24         19.8295
   449.38         19.8894
   449.52         19.9680
   449.66         20.0692
   449.80         20.1967
   449.94         20.3498
   450.08         20.5197
   450.22         20.6917
   450.36         20.8491
   450.50         20.9781
   450.64         21.0690
   450.78         21.1167
   450.92         21.1198
   451.06         21.0811
   451.20         21.0068
   451.34         20.9029
   451.48         20.7716
   451.62         20.6128
   451.76         20.4291
   451.90         20.2254
   452.04         20.0081
   452.18         19.7837
   452.32         19.5578
   452.46         19.3378
   452.60         19.1356
   452.74         18.9660
   452.88         18.8433
   453.02         18.7774
   453.16         18.7715
   453.30         18.8216
   453.44         18.9177
   453.58         19.0439
   453.72         19.1801
   453.86         19.3064
   454.00         19.4058
   454.14         19.4665
   454.28         19.4858
   454.42         19.4711
   454.56         19.4356
   454.70         19.3963
   454.84         19.3709
   454.98         19.3751
   455.12         19.4198
   455.26         19.5081
   455.40         19.6339
   455.54         19.7858
   455.68         19.9516
   455.82         20.1197
   455.96         20.2784
   456.10         20.4182
   456.24         20.5343
   456.38         20.6267
   456.52         20.6981
   456.66         20.7500
   456.80         20.7816
   456.94         20.7924
   457.08         20.7826
   457.22         20.7522
   457.36         20.6994
   457.50         20.6214
   457.64         20.5175
   457.78         20.3913
   457.92         20.2517
   458.06         20.1098
   458.20         19.9762
   458.34         19.8592
   458.48         19.7646
   458.62         19.6953
   458.76         19.6535
   458.90         19.6395
   459.04         19.6496
   459.18         19.6766
   459.32         19.7133
   459.46         19.7551
   459.60         19.8017
   459.74         19.8567
   459.88         19.9235
   460.02         20.0032
   460.16         20.0942
   460.30         20.1940
   460.44         20.2981
   460.58         20.4006
   460.72         20.4959
   460.86         20.5815
   461.00         20.6567
   461.14         20.7220
   461.28         20.7781
   461.42         20.8255
   461.56         20.8638
   461.70         20.8919
   461.84         20.9112
   461.98         20.9247
   462.12         20.9342
   462.26         20.9391
   462.40         20.9351
   462.54         20.9141
   462.68         20.8687
   462.82         20.7958
   462.96         20.6985
   463.10         20.5835
   463.24         20.4597
   463.38         20.3349
   463.52         20.2152
   463.66         20.1047
   463.80         20.0062
   463.94         19.9218
   464.08         19.8522
   464.22         19.7971
   464.36         19.7552
   464.50         19.7252
   464.64         19.7062
   464.78         19.6973
   464.92         19.6973
   465.06         19.7055
   465.20         19.7224
   465.34         19.7476
   465.48         19.7773
   465.62         19.8037
   465.76         19.8182
   465.90         19.8147
   466.04         19.7902
   466.18         19.7464
   466.32         19.6905
   466.46         19.6321
   466.60         19.5806
   466.74         19.5423
   466.88         19.5199
   467.02         19.5154
   467.16         19.5309
   467.30         19.5671
   467.44         19.6194
   467.58         19.6789
   467.72         19.7358
   467.86         19.7809
   468.00         19.8061
   468.14         19.8082
   468.28         19.7899
   468.42         19.7591
   468.56         19.7248
   468.70         19.6928
   468.84         19.6651
   468.98         19.6400
   469.12         19.6117
   469.26         19.5734
   469.40         19.5221
   469.54         19.4588
   469.68         19.3876
   469.82         19.3135
   469.96         19.2420
   470.10         19.1783
   470.24         19.1266
   470.38         19.0902
   470.52         19.0730
   470.66         19.0806
   470.80         19.1192
   470.94         19.1924
   471.08         19.2982
   471.22         19.4299
   471.36         19.5790
   471.50         19.7362
   471.64         19.8904
   471.78         20.0290
   471.92         20.1408
   472.06         20.2170
   472.20         20.2511
   472.34         20.2400
   472.48         20.1857
   472.62         20.0939
   472.76         19.9738
   472.90         19.8379
   473.04         19.7025
   473.18         19.5849
   473.32         19.5006
   473.46         19.4602
   473.60         19.4686
   473.74         19.5242
   473.88         19.6217
   474.02         19.7519
   474.16         19.9008
   474.30         20.0522
   474.44         20.1928
   474.58         20.3138
   474.72         20.4097
   474.86         20.4781
   475.00         20.5171
   475.14         20.5245
   475.28         20.4965
   475.42         20.4293
   475.56         20.3232
   475.70         20.1853
   475.84         20.0275
   475.98         19.8634
   476.12         19.7059
   476.26         19.5677
   476.40         19.4603
   476.54         19.3945
   476.68         19.3783
   476.82         19.4161
   476.96         19.5076
   477.10         19.6459
   477.24         19.8164
   477.38         20.0007
   477.52         20.1779
   477.66         20.3277
   477.80         20.4345
   477.94         20.4914
   478.08         20.5022
   478.22         20.4789
   478.36         20.4361
   478.50         20.3871
   478.64         20.3443
   478.78         20.3166
   478.92         20.3081
   479.06         20.3185
   479.20         20.3452
   479.34         20.3834
   479.48         20.4261
   479.62         20.4647
   479.76         20.4921
   479.90         20.5052
   480.04         20.5052
   480.18         20.4957
   480.32         20.4815
   480.46         20.4689
   480.60         20.4624
   480.74         20.4647
   480.88         20.4763
   481.02         20.4959
   481.16         20.5200
   481.30         20.5424
   481.44         20.5564
   481.58         20.5561
   481.72         20.5382
   481.86         20.5027
   482.00         20.4505
   482.14         20.3833
   482.28         20.3052
   482.42         20.2235
   482.56         20.1455
   482.70         20.0759
   482.84         20.0170
   482.98         19.9714
   483.12         19.9411
   483.26         19.9263
   483.40         19.9256
   483.54         19.9352
   483.68         19.9496
   483.82         19.9643
   483.96         19.9748
   484.10         19.9761
   484.24         19.9632
   484.38         19.9318
   484.52         19.8786
   484.66         19.7995
   484.80         19.6889
   484.94         19.5395
   485.08         19.3423
   485.22         19.0907
   485.36         18.7881
   485.50         18.4511
   485.64         18.1049
   485.78         17.7755
   485.92         17.4855
   486.06         17.2516
   486.20         17.0854
   486.34         16.9954
   486.48         16.9865
   486.62         17.0565
   486.76         17.1975
   486.90         17.3965
   487.04         17.6373
   487.18         17.9026
   487.32         18.1749
   487.46         18.4353
   487.60         18.6665
   487.74         18.8575
   487.88         19.0048
   488.02         19.1084
   488.16         19.1677
   488.30         19.1834
   488.44         19.1632
   488.58         19.1206
   488.72         19.0730
   488.86         19.0405
   489.00         19.0400
   489.14         19.0795
   489.28         19.1583
   489.42         19.2704
   489.56         19.4068
   489.70         19.5572
   489.84         19.7086
   489.98         19.8454
   490.12         19.9525
   490.26         20.0209
   490.40         20.0493
   490.54         20.0433
   490.68         20.0126
   490.82         19.9667
   490.96         19.9112
   491.10         19.8465
   491.24         19.7707
   491.38         19.6828
   491.52         19.5845
   491.66         19.4813
   491.80         19.3836
   491.94         19.3052
   492.08         19.2594
   492.22         19.2550
   492.36         19.2935
   492.50         19.3695
   492.64         19.4722
   492.78         19.5881
   492.92         19.7034
   493.06         19.8066
   493.20         19.8902
   493.34         19.9475
   493.48         19.9731
   493.62         19.9682
   493.76         19.9434
   493.90         19.9140
   494.04         19.8927
   494.18         19.8884
   494.32         19.9064
   494.46         19.9472
   494.60         20.0043
   494.74         20.0652
   494.88         20.1150
   495.02         20.1426
   495.16         20.1448
   495.30         20.1255
   495.44         20.0936
   495.58         20.0594
   495.72         20.0316
   495.86         20.0156
   496.00         20.0113
   496.14         20.0175
   496.28         20.0361
   496.42         20.0703
   496.56         20.1198
   496.70         20.1790
   496.84         20.2405
   496.98         20.2962
   497.12         20.3351
   497.26         20.3434
   497.40         20.3091
   497.54         20.2287
   497.68         20.1089
   497.82         19.9620
   497.96         19.8004
   498.10         19.6347
   498.24         19.4762
   498.38         19.3378
   498.52         19.2323
   498.66         19.1697
   498.80         19.1550
   498.94         19.1856
   499.08         19.2469
   499.22         19.3144
   499.36         19.3649
   499.50         19.3836
   499.64         19.3592
   499.78         19.2841
   499.92         19.1614
   500.06         19.0070
   500.20         18.8432
   500.34         18.6908
   500.48         18.5642
   500.62         18.4709
   500.76         18.4130
   500.90         18.3880
   501.04         18.3906
   501.18         18.4134
   501.32         18.4483
   501.46         18.4873
   501.60         18.5237
   501.74         18.5537
   501.88         18.5794
   502.02         18.6080
   502.16         18.6474
   502.30         18.7028
   502.44         18.7783
   502.58         18.8737
   502.72         18.9810
   502.86         19.0856
   503.00         19.1710
   503.14         19.2219
   503.28         19.2282
   503.42         19.1890
   503.56         19.1136
   503.70         19.0173
   503.84         18.9148
   503.98         18.8166
   504.12         18.7306
   504.26         18.6637
   504.40         18.6217
   504.54         18.6099
   504.68         18.6325
   504.82         18.6906
   504.96         18.7813
   505.10         18.8971
   505.24         19.0273
   505.38         19.1630
   505.52         19.2963
   505.66         19.4182
   505.80         19.5201
   505.94         19.5975
   506.08         19.6503
   506.22         19.6777
   506.36         19.6765
   506.50         19.6449
   506.64         19.5846
   506.78         19.5015
   506.92         19.4027
   507.06         19.2940
   507.20         19.1797
   507.34         19.0642
   507.48         18.9533
   507.62         18.8540
   507.76         18.7731
   507.90         18.7151
   508.04         18.6837
   508.18         18.6824
   508.32         18.7138
   508.46         18.7792
   508.60         18.8757
   508.74         18.9955
   508.88         19.1244
   509.02         19.2458
   509.16         19.3457
   509.30         19.4144
   509.44         19.4472
   509.58         19.4437
   509.72         19.4069
   509.86         19.3444
   510.00         19.2670
   510.14         19.1863
   510.28         19.1141
   510.42         19.0614
   510.56         19.0362
   510.70         19.0432
   510.84         19.0820
   510.98         19.1465
   511.12         19.2263
   511.26         19.3093
   511.40         19.3840
   511.54         19.4417
   511.68         19.4785
   511.82         19.4938
   511.96         19.4867
   512.10         19.4553
   512.24         19.3984
   512.38         19.3188
   512.52         19.2253
   512.66         19.1303
   512.80         19.0444
   512.94         18.9735
   513.08         18.9180
   513.22         18.8735
   513.36         18.8345
   513.50         18.7974
   513.64         18.7589
   513.78         18.7155
   513.92         18.6651
   514.06         18.6104
   514.20         18.5583
   514.34         18.5154
   514.48         18.4846
   514.62         18.4675
   514.76         18.4668
   514.90         18.4848
   515.04         18.5226
   515.18         18.5772
   515.32         18.6385
   515.46         18.6903
   515.60         18.7128
   515.74         18.6862
   515.88         18.5952
   516.02         18.4329
   516.16         18.1977
   516.30         17.8923
   516.44         17.5297
   516.58         17.1374
   516.72         16.7525
   516.86         16.4121
   517.00         16.1460
   517.14         15.9729
   517.28         15.8955
   517.42         15.9006
   517.56         15.9685
   517.70         16.0801
   517.84         16.2170
   517.98         16.3616
   518.12         16.4987
   518.26         16.6164
   518.40         16.7105
   518.54         16.7856
   518.68         16.8517
   518.82         16.9202
   518.96         17.0047
   519.10         17.1191
   519.24         17.2703
   519.38         17.4522
   519.52         17.6466
   519.66         17.8290
   519.80         17.9768
   519.94         18.0772
   520.08         18.1345
   520.22         18.1649
   520.36         18.1848
   520.50         18.2014
   520.64         18.2149
   520.78         18.2250
   520.92         18.2357
   521.06         18.2559
   521.20         18.2948
   521.34         18.3560
   521.48         18.4355
   521.62         18.5213
   521.76         18.5971
   521.90         18.6496
   522.04         18.6709
   522.18         18.6584
   522.32         18.6158
   522.46         18.5524
   522.60         18.4815
   522.74         18.4179
   522.88         18.3736
   523.02         18.3572
   523.16         18.3739
   523.30         18.4264
   523.44         18.5165
   523.58         18.6425
   523.72         18.7957
   523.86         18.9614
   524.00         19.1228
   524.14         19.2664
   524.28         19.3838
   524.42         19.4728
   524.56         19.5364
   524.70         19.5794
   524.84         19.6074
   524.98         19.6262
   525.12         19.6394
   525.26         19.6453
   525.40         19.6362
   525.54         19.6003
   525.68         19.5254
   525.82         19.4016
   525.96         19.2237
   526.10         18.9936
   526.24         18.7217
   526.38         18.4242
   526.52         18.1223
   526.66         17.8401
   526.80         17.6031
   526.94         17.4324
   527.08         17.3420
   527.22         17.3363
   527.36         17.4100
   527.50         17.5494
   527.64         17.7358
   527.78         17.9485
   527.92         18.1692
   528.06         18.3852
   528.20         18.5897
   528.34         18.7791
   528.48         18.9499
   528.62         19.0988
   528.76         19.2225
   528.90         19.3189
   529.04         19.3871
   529.18         19.4269
   529.32         19.4389
   529.46         19.4246
   529.60         19.3864
   529.74         19.3297
   529.88         19.2644
   530.02         19.2041
   530.16         19.1636
   530.30         19.1535
   530.44         19.1779
   530.58         19.2345
   530.72         19.3169
   530.86         19.4154
   531.00         19.5187
   531.14         19.6150
   531.28         19.6922
   531.42         19.7393
   531.56         19.7498
   531.70         19.7180
   531.84         19.6379
   531.98         19.5086
   532.12         19.3388
   532.26         19.1446
   532.40         18.9451
   532.54         18.7599
   532.68         18.6075
   532.82         18.5005
   532.96         18.4433
   533.10         18.4349
   533.24         18.4728
   533.38         18.5524
   533.52         18.6644
   533.66         18.7950
   533.80         18.9272
   533.94         19.0453
   534.08         19.1380
   534.22         19.2005
   534.36         19.2341
   534.50         19.2483
   534.64         19.2595
   534.78         19.2832
   534.92         19.3273
   535.06         19.3912
   535.20         19.4711
   535.34         19.5596
   535.48         19.6457
   535.62         19.7178
   535.76         19.7673
   535.90         19.7866
   536.04         19.7679
   536.18         19.7060
   536.32         19.6039
   536.46         19.4727
   536.60         19.3277
   536.74         19.1859
   536.88         19.0639
   537.02         18.9755
   537.16         18.9279
   537.30         18.9213
   537.44         18.9506
   537.58         19.0096
   537.72         19.0929
   537.86         19.1939
   538.00         19.3021
   538.14         19.4043
   538.28         19.4880
   538.42         19.5454
   538.56         19.5730
   538.70         19.5708
   538.84         19.5420
   538.98         19.4922
   539.12         19.4256
   539.26         19.3443
   539.40         19.2491
   539.54         19.1405
   539.68         19.0198
   539.82         18.8906
   539.96         18.7603
   540.10         18.6383
   540.24         18.5330
   540.38         18.4503
   540.52         18.3933
   540.66         18.3644
   540.80         18.3642
   540.94         18.3919
   541.08         18.4464
   541.22         18.5247
   541.36         18.6202
   541.50         18.7244
   541.64         18.8288
   541.78         18.9242
   541.92         19.0018
   542.06         19.0552
   542.20         19.0822
   542.34         19.0844
   542.48         19.0666
   542.62         19.0360
   542.76         19.0009
   542.90         18.9708
   543.04         18.9539
   543.18         18.9553
   543.32         18.9760
   543.46         19.0117
   543.60         19.0547
   543.74         19.0966
   543.88         19.1303
   544.02         19.1519
   544.16         19.1617
   544.30         19.1624
   544.44         19.1561
   544.58         19.1436
   544.72         19.1271
   544.86         19.1113
   545.00         19.1021
   545.14         19.1045
   545.28         19.1203
   545.42         19.1474
   545.56         19.1814
   545.70         19.2157
   545.84         19.2450
   545.98         19.2665
   546.12         19.2784
   546.26         19.2818
   546.40         19.2807
   546.54         19.2783
   546.68         19.2731
   546.82         19.2598
   546.96         19.2339
   547.10         19.1952
   547.24         19.1479
   547.38         19.0999
   547.52         19.0595
   547.66         19.0316
   547.80         19.0170
   547.94         19.0165
   548.08         19.0322
   548.22         19.0660
   548.36         19.1175
   548.50         19.1842
   548.64         19.2602
   548.78         19.3373
   548.92         19.4079
   549.06         19.4649
   549.20         19.5019
   549.34         19.5164
   549.48         19.5116
   549.62         19.4941
   549.76         19.4697
   549.90         19.4427
   550.04         19.4172
   550.18         19.3950
   550.32         19.3745
   550.46         19.3529
   550.60         19.3298
   550.74         19.3057
   550.88         19.2816
   551.02         19.2591
   551.16         19.2417
   551.30         19.2331
   551.44         19.2355
   551.58         19.2492
   551.72         19.2708
   551.86         19.2943
   552.00         19.3144
   552.14         19.3282
   552.28         19.3351
   552.42         19.3355
   552.56         19.3303
   552.70         19.3201
   552.84         19.3051
   552.98         19.2859
   553.12         19.2653
   553.26         19.2477
   553.40         19.2370
   553.54         19.2339
   553.68         19.2385
   553.82         19.2502
   553.96         19.2684
   554.10         19.2913
   554.24         19.3178
   554.38         19.3466
   554.52         19.3773
   554.66         19.4103
   554.80         19.4462
   554.94         19.4832
   555.08         19.5171
   555.22         19.5423
   555.36         19.5535
   555.50         19.5468
   555.64         19.5200
   555.78         19.4725
   555.92         19.4046
   556.06         19.3177
   556.20         19.2153
   556.34         19.1036
   556.48         18.9889
   556.62         18.8777
   556.76         18.7765
   556.90         18.6913
   557.04         18.6255
   557.18         18.5815
   557.32         18.5613
   557.46         18.5653
   557.60         18.5893
   557.74         18.6247
   557.88         18.6593
   558.02         18.6824
   558.16         18.6868
   558.30         18.6682
   558.44         18.6254
   558.58         18.5611
   558.72         18.4820
   558.86         18.3968
   559.00         18.3129
   559.14         18.2365
   559.28         18.1723
   559.42         18.1225
   559.56         18.0880
   559.70         18.0709
   559.84         18.0752
   559.98         18.1028
   560.12         18.1528
   560.26         18.2214
   560.40         18.3038
   560.54         18.3950
   560.68         18.4890
   560.82         18.5786
   560.96         18.6560
   561.10         18.7155
   561.24         18.7546
   561.38         18.7723
   561.52         18.7669
   561.66         18.7381
   561.80         18.6903
   561.94         18.6330
   562.08         18.5793
   562.22         18.5426
   562.36         18.5321
   562.50         18.5497
   562.64         18.5894
   562.78         18.6415
   562.92         18.6947
   563.06         18.7381
   563.20         18.7636
   563.34         18.7671
   563.48         18.7500
   563.62         18.7172
   563.76         18.6742
   563.90         18.6248
   564.04         18.5715
   564.18         18.5179
   564.32         18.4695
   564.46         18.4323
   564.60         18.4092
   564.74         18.3999
   564.88         18.3994
   565.02         18.3995
   565.16         18.3917
   565.30         18.3712
   565.44         18.3378
   565.58         18.2943
   565.72         18.2459
   565.86         18.1988
   566.00         18.1584
   566.14         18.1282
   566.28         18.1104
   566.42         18.1072
   566.56         18.1200
   566.70         18.1495
   566.84         18.1948
   566.98         18.2513
   567.12         18.3125
   567.26         18.3728
   567.40         18.4269
   567.54         18.4692
   567.68         18.4941
   567.82         18.5001
   567.96         18.4883
   568.10         18.4607
   568.24         18.4202
   568.38         18.3706
   568.52         18.3155
   568.66         18.2591
   568.80         18.2077
   568.94         18.1690
   569.08         18.1480
   569.22         18.1457
   569.36         18.1598
   569.50         18.1858
   569.64         18.2178
   569.78         18.2493
   569.92         18.2719
   570.06         18.2760
   570.20         18.2533
   570.34         18.2007
   570.48         18.1210
   570.62         18.0221
   570.76         17.9156
   570.90         17.8144
   571.04         17.7311
   571.18         17.6755
   571.32         17.6553
   571.46         17.6761
   571.60         17.7393
   571.74         17.8414
   571.88         17.9741
   572.02         18.1255
   572.16         18.2825
   572.30         18.4316
   572.44         18.5604
   572.58         18.6614
   572.72         18.7331
   572.86         18.7781
   573.00         18.8010
   573.14         18.8076
   573.28         18.8041
   573.42         18.7962
   573.56         18.7872
   573.70         18.7780
   573.84         18.7692
   573.98         18.7611
   574.12         18.7537
   574.26         18.7455
   574.40         18.7329
   574.54         18.7118
   574.68         18.6810
   574.82         18.6439
   574.96         18.6055
   575.10         18.5703
   575.24         18.5405
   575.38         18.5162
   575.52         18.4971
   575.66         18.4846
   575.80         18.4809
   575.94         18.4877
   576.08         18.5059
   576.22         18.5343
   576.36         18.5698
   576.50         18.6087
   576.64         18.6481
   576.78         18.6864
   576.92         18.7227
   577.06         18.7551
   577.20         18.7801
   577.34         18.7942
   577.48         18.7931
   577.62         18.7726
   577.76         18.7315
   577.90         18.6729
   578.04         18.6024
   578.18         18.5272
   578.32         18.4540
   578.46         18.3883
   578.60         18.3339
   578.74         18.2921
   578.88         18.2624
   579.02         18.2453
   579.16         18.2436
   579.30         18.2590
   579.44         18.2896
   579.58         18.3299
   579.72         18.3724
   579.86         18.4111
   580.00         18.4426
   580.14         18.4666
   580.28         18.4844
   580.42         18.4974
   580.56         18.5059
   580.70         18.5107
   580.84         18.5143
   580.98         18.5199
   581.12         18.5292
   581.26         18.5433
   581.40         18.5631
   581.54         18.5896
   581.68         18.6226
   581.82         18.6585
   581.96         18.6919
   582.10         18.7185
   582.24         18.7367
   582.38         18.7461
   582.52         18.7475
   582.66         18.7437
   582.80         18.7383
   582.94         18.7342
   583.08         18.7343
   583.22         18.7415
   583.36         18.7580
   583.50         18.7836
   583.64         18.8149
   583.78         18.8483
   583.92         18.8816
   584.06         18.9129
   584.20         18.9395
   584.34         18.9587
   584.48         18.9675
   584.62         18.9634
   584.76         18.9433
   584.90         18.9043
   585.04         18.8459
   585.18         18.7712
   585.32         18.6856
   585.46         18.5946
   585.60         18.5040
   585.74         18.4196
   585.88         18.3478
   586.02         18.2946
   586.16         18.2649
   586.30         18.2623
   586.44         18.2889
   586.58         18.3432
   586.72         18.4192
   586.86         18.5079
   587.00         18.5991
   587.14         18.6824
   587.28         18.7486
   587.42         18.7914
   587.56         18.8081
   587.70         18.7972
   587.84         18.7524
   587.98         18.6633
   588.12         18.5233
   588.26         18.3337
   588.40         18.1020
   588.54         17.8391
   588.68         17.5577
   588.82         17.2739
   588.96         17.0067
   589.10         16.7766
   589.24         16.6028
   589.38         16.5006
   589.52         16.4789
   589.66         16.5400
   589.80         16.6784
   589.94         16.8811
   590.08         17.1298
   590.22         17.4021
   590.36         17.6737
   590.50         17.9213
   590.64         18.1299
   590.78         18.2945
   590.92         18.4146
   591.06         18.4910
   591.20         18.5279
   591.34         18.5346
   591.48         18.5236
   591.62         18.5058
   591.76         18.4876
   591.90         18.4703
   592.04         18.4523
   592.18         18.4330
   592.32         18.4124
   592.46         18.3902
   592.60         18.3671
   592.74         18.3448
   592.88         18.3245
   593.02         18.3067
   593.16         18.2912
   593.30         18.2782
   593.44         18.2689
   593.58         18.2639
   593.72         18.2618
   593.86         18.2591
   594.00         18.2511
   594.14         18.2343
   594.28         18.2069
   594.42         18.1688
   594.56         18.1222
   594.70         18.0710
   594.84         18.0201
   594.98         17.9736
   595.12         17.9347
   595.26         17.9061
   595.40         17.8886
   595.54         17.8809
   595.68         17.8814
   595.82         17.8877
   595.96         17.8987
   596.10         17.9143
   596.24         17.9338
   596.38         17.9555
   596.52         17.9767
   596.66         17.9949
   596.80         18.0076
   596.94         18.0121
   597.08         18.0070
   597.22         17.9919
   597.36         17.9671
   597.50         17.9345
   597.64         17.8967
   597.78         17.8565
   597.92         17.8162
   598.06         17.7780
   598.20         17.7441
   598.34         17.7177
   598.48         17.7017
   598.62         17.6972
   598.76         17.7014
   598.90         17.7088
   599.04         17.7144
   599.18         17.7145
   599.32         17.7065
   599.46         17.6907
   599.60         17.6692
   599.74         17.6444
   599.88         17.6185
   600.02         17.5936
   600.16         17.5727
   600.30         17.5587
   600.44         17.5543
   600.58         17.5592
   600.72         17.5712
   600.86         17.5870
   601.00         17.6022
   601.14         17.6120
   601.28         17.6133
   601.42         17.6052
   601.56         17.5898
   601.70         17.5705
   601.84         17.5494
   601.98         17.5288
   602.12         17.5121
   602.26         17.5021
   602.40         17.5014
   602.54         17.5137
   602.68         17.5415
   602.82         17.5840
   602.96         17.6376
   603.10         17.6968
   603.24         17.7560
   603.38         17.8104
   603.52         17.8562
   603.66         17.8910
   603.80         17.9153
   603.94         17.9307
   604.08         17.9379
   604.22         17.9368
   604.36         17.9264
   604.50         17.9059
   604.64         17.8762
   604.78         17.8400
   604.92         17.8011
   605.06         17.7639
   605.20         17.7305
   605.34         17.7002
   605.48         17.6713
   605.62         17.6428
   605.76         17.6159
   605.90         17.5923
   606.04         17.5733
   606.18         17.5600
   606.32         17.5527
   606.46         17.5508
   606.60         17.5511
   606.74         17.5494
   606.88         17.5427
   607.02         17.5295
   607.16         17.5104
   607.30         17.4872
   607.44         17.4625
   607.58         17.4381
   607.72         17.4147
   607.86         17.3923
   608.00         17.3716
   608.14         17.3535
   608.28         17.3388
   608.42         17.3273
   608.56         17.3171
   608.70         17.3057
   608.84         17.2902
   608.98         17.2667
   609.12         17.2321
   609.26         17.1858
   609.40         17.1309
   609.54         17.0738
   609.68         17.0215
   609.82         16.9809
   609.96         16.9575
   610.10         16.9546
   610.24         16.9732
   610.38         17.0113
   610.52         17.0647
   610.66         17.1276
   610.80         17.1929
   610.94         17.2524
   611.08         17.2980
   611.22         17.3237
   611.36         17.3266
   611.50         17.3070
   611.64         17.2681
   611.78         17.2165
   611.92         17.1608
   612.06         17.1093
   612.20         17.0673
   612.34         17.0365
   612.48         17.0132
   612.62         16.9916
   612.76         16.9676
   612.90         16.9392
   613.04         16.9049
   613.18         16.8636
   613.32         16.8168
   613.46         16.7681
   613.60         16.7225
   613.74         16.6861
   613.88         16.6651
   614.02         16.6640
   614.16         16.6842
   614.30         16.7233
   614.44         16.7762
   614.58         16.8369
   614.72         16.8985
   614.86         16.9535
   615.00         16.9935
   615.14         17.0105
   615.28         17.0012
   615.42         16.9674
   615.56         16.9128
   615.70         16.8416
   615.84         16.7587
   615.98         16.6700
   616.12         16.5821
   616.26         16.5024
   616.40         16.4381
   616.54         16.3958
   616.68         16.3801
   616.82         16.3931
   616.96         16.4339
   617.10         16.4992
   617.24         16.5848
   617.38         16.6839
   617.52         16.7874
   617.66         16.8855
   617.80         16.9707
   617.94         17.0392
   618.08         17.0892
   618.22         17.1198
   618.36         17.1317
   618.50         17.1282
   618.64         17.1162
   618.78         17.1047
   618.92         17.1010
   619.06         17.1092
   619.20         17.1303
   619.34         17.1640
   619.48         17.2084
   619.62         17.2608
   619.76         17.3182
   619.90         17.3772
   620.04         17.4332
   620.18         17.4811
   620.32         17.5161
   620.46         17.5347
   620.60         17.5347
   620.74         17.5163
   620.88         17.4815
   621.02         17.4333
   621.16         17.3753
   621.30         17.3112
   621.44         17.2445
   621.58         17.1783
   621.72         17.1159
   621.86         17.0607
   622.00         17.0140
   622.14         16.9749
   622.28         16.9426
   622.42         16.9177
   622.56         16.9003
   622.70         16.8896
   622.84         16.8841
   622.98         16.8825
   623.12         16.8842
   623.26         16.8893
   623.40         16.8969
   623.54         16.9048
   623.68         16.9107
   623.82         16.9140
   623.96         16.9156
   624.10         16.9154
   624.24         16.9119
   624.38         16.9020
   624.52         16.8828
   624.66         16.8528
   624.80         16.8140
   624.94         16.7704
   625.08         16.7244
   625.22         16.6755
   625.36         16.6212
   625.50         16.5615
   625.64         16.5001
   625.78         16.4422
   625.92         16.3934
   626.06         16.3580
   626.20         16.3398
   626.34         16.3419
   626.48         16.3653
   626.62         16.4061
   626.76         16.4565
   626.90         16.5079
   627.04         16.5536
   627.18         16.5900
   627.32         16.6164
   627.46         16.6334
   627.60         16.6428
   627.74         16.6474
   627.88         16.6514
   628.02         16.6599
   628.16         16.6777
   628.30         16.7071
   628.44         16.7468
   628.58         16.7934
   628.72         16.8415
   628.86         16.8853
   629.00         16.9189
   629.14         16.9362
   629.28         16.9336
   629.42         16.9118
   629.56         16.8759
   629.70         16.8333
   629.84         16.7919
   629.98         16.7578
   630.12         16.7346
   630.26         16.7230
   630.40         16.7205
   630.54         16.7217
   630.68         16.7205
   630.82         16.7116
   630.96         16.6928
   631.10         16.6636
   631.24         16.6252
   631.38         16.5802
   631.52         16.5332
   631.66         16.4899
   631.80         16.4564
   631.94         16.4377
   632.08         16.4376
   632.22         16.4573
   632.36         16.4946
   632.50         16.5428
   632.64         16.5931
   632.78         16.6369
   632.92         16.6674
   633.06         16.6809
   633.20         16.6772
   633.34         16.6591
   633.48         16.6313
   633.62         16.5996
   633.76         16.5693
   633.90         16.5442
   634.04         16.5268
   634.18         16.5189
   634.32         16.5205
   634.46         16.5296
   634.60         16.5438
   634.74         16.5601
   634.88         16.5746
   635.02         16.5835
   635.16         16.5828
   635.30         16.5711
   635.44         16.5494
   635.58         16.5204
   635.72         16.4878
   635.86         16.4552
   636.00         16.4250
   636.14         16.4001
   636.28         16.3833
   636.42         16.3767
   636.56         16.3811
   636.70         16.3967
   636.84         16.4215
   636.98         16.4516
   637.12         16.4828
   637.26         16.5114
   637.40         16.5348
   637.54         16.5503
   637.68         16.5564
   637.82         16.5530
   637.96         16.5422
   638.10         16.5270
   638.24         16.5094
   638.38         16.4907
   638.52         16.4716
   638.66         16.4540
   638.80         16.4385
   638.94         16.4230
   639.08         16.4044
   639.22         16.3807
   639.36         16.3517
   639.50         16.3178
   639.64         16.2796
   639.78         16.2388
   639.92         16.1969
   640.06         16.1553
   640.20         16.1149
   640.34         16.0773
   640.48         16.0447
   640.62         16.0180
   640.76         15.9969
   640.90         15.9795
   641.04         15.9643
   641.18         15.9508
   641.32         15.9395
   641.46         15.9304
   641.60         15.9247
   641.74         15.9258
   641.88         15.9372
   642.02         15.9588
   642.16         15.9875
   642.30         16.0201
   642.44         16.0546
   642.58         16.0894
   642.72         16.1221
   642.86         16.1501
   643.00         16.1715
   643.14         16.1860
   643.28         16.1942
   643.42         16.1975
   643.56         16.1976
   643.70         16.1967
   643.84         16.1962
   643.98         16.1964
   644.12         16.1971
   644.26         16.1982
   644.40         16.1996
   644.54         16.1998
   644.68         16.1975
   644.82         16.1928
   644.96         16.1862
   645.10         16.1769
   645.24         16.1625
   645.38         16.1417
   645.52         16.1162
   645.66         16.0899
   645.80         16.0668
   645.94         16.0486
   646.08         16.0352
   646.22         16.0255
   646.36         16.0188
   646.50         16.0154
   646.64         16.0170
   646.78         16.0260
   646.92         16.0427
   647.06         16.0656
   647.20         16.0924
   647.34         16.1215
   647.48         16.1515
   647.62         16.1806
   647.76         16.2075
   647.90         16.2315
   648.04         16.2525
   648.18         16.2682
   648.32         16.2731
   648.46         16.2611
   648.60         16.2281
   648.74         16.1750
   648.88         16.1069
   649.02         16.0314
   649.16         15.9576
   649.30         15.8949
   649.44         15.8508
   649.58         15.8309
   649.72         15.8389
   649.86         15.8757
   650.00         15.9393
   650.14         16.0242
   650.28         16.1227
   650.42         16.2260
   650.56         16.3247
   650.70         16.4108
   650.84         16.4787
   650.98         16.5268
   651.12         16.5570
   651.26         16.5736
   651.40         16.5812
   651.54         16.5826
   651.68         16.5798
   651.82         16.5741
   651.96         16.5667
   652.10         16.5577
   652.24         16.5473
   652.38         16.5360
   652.52         16.5243
   652.66         16.5125
   652.80         16.5012
   652.94         16.4910
   653.08         16.4829
   653.22         16.4775
   653.36         16.4744
   653.50         16.4714
   653.64         16.4654
   653.78         16.4536
   653.92         16.4345
   654.06         16.4076
   654.20         16.3726
   654.34         16.3294
   654.48         16.2769
   654.62         16.2134
   654.76         16.1362
   654.90         16.0410
   655.04         15.9193
   655.18         15.7598
   655.32         15.5553
   655.46         15.3095
   655.60         15.0359
   655.74         14.7540
   655.88         14.4853
   656.02         14.2504
   656.16         14.0684
   656.30         13.9546
   656.44         13.9192
   656.58         13.9656
   656.72         14.0907
   656.86         14.2842
   657.00         14.5292
   657.14         14.8050
   657.28         15.0893
   657.42         15.3601
   657.56         15.5983
   657.70         15.7918
   657.84         15.9384
   657.98         16.0450
   658.12         16.1201
   658.26         16.1686
   658.40         16.1927
   658.54         16.1955
   658.68         16.1812
   658.82         16.1554
   658.96         16.1251
   659.10         16.0982
   659.24         16.0817
   659.38         16.0793
   659.52         16.0907
   659.66         16.1133
   659.80         16.1431
   659.94         16.1767
   660.08         16.2105
   660.22         16.2412
   660.36         16.2653
   660.50         16.2807
   660.64         16.2858
   660.78         16.2814
   660.92         16.2706
   661.06         16.2584
   661.20         16.2489
   661.34         16.2442
   661.48         16.2445
   661.62         16.2489
   661.76         16.2551
   661.90         16.2598
   662.04         16.2584
   662.18         16.2468
   662.32         16.2224
   662.46         16.1854
   662.60         16.1385
   662.74         16.0855
   662.88         16.0299
   663.02         15.9752
   663.16         15.9238
   663.30         15.8770
   663.44         15.8354
   663.58         15.8001
   663.72         15.7724
   663.86         15.7523
   664.00         15.7390
   664.14         15.7314
   664.28         15.7283
   664.42         15.7289
   664.56         15.7321
   664.70         15.7377
   664.84         15.7454
   664.98         15.7553
   665.12         15.7664
   665.26         15.7763
   665.40         15.7817
   665.54         15.7800
   665.68         15.7701
   665.82         15.7531
   665.96         15.7319
   666.10         15.7099
   666.24         15.6905
   666.38         15.6756
   666.52         15.6651
   666.66         15.6573
   666.80         15.6509
   666.94         15.6452
   667.08         15.6404
   667.22         15.6365
   667.36         15.6337
   667.50         15.6317
   667.64         15.6308
   667.78         15.6319
   667.92         15.6366
   668.06         15.6468
   668.20         15.6634
   668.34         15.6853
   668.48         15.7096
   668.62         15.7322
   668.76         15.7493
   668.90         15.7580
   669.04         15.7570
   669.18         15.7462
   669.32         15.7269
   669.46         15.7019
   669.60         15.6744
   669.74         15.6475
   669.88         15.6232
   670.02         15.6023
   670.16         15.5851
   670.30         15.5707
   670.44         15.5570
   670.58         15.5415
   670.72         15.5217
   670.86         15.4958
   671.00         15.4640
   671.14         15.4279
   671.28         15.3906
   671.42         15.3550
   671.56         15.3242
   671.70         15.3001
   671.84         15.2834
   671.98         15.2739
   672.12         15.2713
   672.26         15.2747
   672.40         15.2831
   672.54         15.2954
   672.68         15.3102
   672.82         15.3258
   672.96         15.3406
   673.10         15.3537
   673.24         15.3642
   673.38         15.3726
   673.52         15.3796
   673.66         15.3859
   673.80         15.3905
   673.94         15.3920
   674.08         15.3893
   674.22         15.3820
   674.36         15.3708
   674.50         15.3562
   674.64         15.3397
   674.78         15.3227
   674.92         15.3066
   675.06         15.2933
   675.20         15.2842
   675.34         15.2809
   675.48         15.2834
   675.62         15.2910
   675.76         15.3016
   675.90         15.3132
   676.04         15.3240
   676.18         15.3325
   676.32         15.3372
   676.46         15.3375
   676.60         15.3344
   676.74         15.3290
   676.88         15.3228
   677.02         15.3166
   677.16         15.3109
   677.30         15.3052
   677.44         15.2986
   677.58         15.2904
   677.72         15.2806
   677.86         15.2696
   678.00         15.2571
   678.14         15.2426
   678.28         15.2256
   678.42         15.2069
   678.56         15.1884
   678.70         15.1725
   678.84         15.1615
   678.98         15.1569
   679.12         15.1593
   679.26         15.1681
   679.40         15.1818
   679.54         15.1981
   679.68         15.2151
   679.82         15.2303
   679.96         15.2419
   680.10         15.2495
   680.24         15.2540
   680.38         15.2564
   680.52         15.2570
   680.66         15.2559
   680.80         15.2525
   680.94         15.2465
   681.08         15.2379
   681.22         15.2273
   681.36         15.2157
   681.50         15.2039
   681.64         15.1915
   681.78         15.1772
   681.92         15.1598
   682.06         15.1385
   682.20         15.1137
   682.34         15.0866
   682.48         15.0584
   682.62         15.0305
   682.76         15.0036
   682.90         14.9776
   683.04         14.9516
   683.18         14.9246
   683.32         14.8956
   683.46         14.8642
   683.60         14.8318
   683.74         14.8010
   683.88         14.7743
   684.02         14.7537
   684.16         14.7400
   684.30         14.7332
   684.44         14.7327
   684.58         14.7375
   684.72         14.7468
   684.86         14.7590
   685.00         14.7722
   685.14         14.7836
   685.28         14.7898
   685.42         14.7859
   685.56         14.7636
   685.70         14.7110
   685.84         14.6164
   685.98         14.4718
   686.12         14.2758
   686.26         14.0328
   686.40         13.7525
   686.54         13.4497
   686.68         13.1434
   686.82         12.8555
   686.96         12.6079
   687.10         12.4200
   687.24         12.3050
   687.38         12.2685
   687.52         12.3072
   687.66         12.4094
   687.80         12.5573
   687.94         12.7291
   688.08         12.9025
   688.22         13.0574
   688.36         13.1809
   688.50         13.2691
   688.64         13.3255
   688.78         13.3572
   688.92         13.3728
   689.06         13.3805
   689.20         13.3883
   689.34         13.4030
   689.48         13.4291
   689.62         13.4685
   689.76         13.5193
   689.90         13.5777
   690.04         13.6401
   690.18         13.7033
   690.32         13.7650
   690.46         13.8235
   690.60         13.8779
   690.74         13.9273
   690.88         13.9710
   691.02         14.0094
   691.16         14.0431
   691.30         14.0723
   691.44         14.0972
   691.58         14.1186
   691.72         14.1379
   691.86         14.1568
   692.00         14.1770
   692.14         14.1998
   692.28         14.2252
   692.42         14.2523
   692.56         14.2804
   692.70         14.3087
   692.84         14.3357
   692.98         14.3609
   693.12         14.3844
   693.26         14.4071
   693.40         14.4296
   693.54         14.4524
   693.68         14.4754
   693.82         14.4973
   693.96         14.5175
   694.10         14.5357
   694.24         14.5517
   694.38         14.5647
   694.52         14.5744
   694.66         14.5802
   694.80         14.5816
   694.94         14.5787
   695.08         14.5725
   695.22         14.5649
   695.36         14.5574
   695.50         14.5517
   695.64         14.5495
   695.78         14.5525
   695.92         14.5619
   696.06         14.5775
   696.20         14.5985
   696.34         14.6234
   696.48         14.6502
   696.62         14.6757
   696.76         14.6957
   696.90         14.7061
   697.04         14.7044
   697.18         14.6909
   697.32         14.6678
   697.46         14.6386
   697.60         14.6075
   697.74         14.5786
   697.88         14.5550
   698.02         14.5387
   698.16         14.5313
   698.30         14.5340
   698.44         14.5467
   698.58         14.5683
   698.72         14.5958
   698.86         14.6252
   699.00         14.6519
   699.14         14.6714
   699.28         14.6802
   699.42         14.6761
   699.56         14.6594
   699.70         14.6324
   699.84         14.5988
   699.98         14.5618
   700.12         14.5241
   700.26         14.4886
   700.40         14.4571
   700.54         14.4303
   700.68         14.4083
   700.82         14.3912
   700.96         14.3793
   701.10         14.3713
   701.24         14.3651
   701.38         14.3578
   701.52         14.3468
   701.66         14.3314
   701.80         14.3122
   701.94         14.2909
   702.08         14.2694
   702.22         14.2498
   702.36         14.2339
   702.50         14.2226
   702.64         14.2162
   702.78         14.2147
   702.92         14.2177
   703.06         14.2249
   703.20         14.2362
   703.34         14.2519
   703.48         14.2714
   703.62         14.2932
   703.76         14.3153
   703.90         14.3364
   704.04         14.3563
   704.18         14.3754
   704.32         14.3948
   704.46         14.4148
   704.60         14.4348
   704.74         14.4531
   704.88         14.4678
   705.02         14.4774
   705.16         14.4807
   705.30         14.4779
   705.44         14.4701
   705.58         14.4586
   705.72         14.4437
   705.86         14.4255
   706.00         14.4040
   706.14         14.3803
   706.28         14.3566
   706.42         14.3357
   706.56         14.3207
   706.70         14.3141
   706.84         14.3176
   706.98         14.3317
   707.12         14.3552
   707.26         14.3852
   707.40         14.4176
   707.54         14.4482
   707.68         14.4735
   707.82         14.4905
   707.96         14.4970
   708.10         14.4914
   708.24         14.4734
   708.38         14.4453
   708.52         14.4110
   708.66         14.3756
   708.80         14.3430
   708.94         14.3169
   709.08         14.3000
   709.22         14.2941
   709.36         14.2993
   709.50         14.3139
   709.64         14.3343
   709.78         14.3561
   709.92         14.3747
   710.06         14.3866
   710.20         14.3907
   710.34         14.3879
   710.48         14.3800
   710.62         14.3697
   710.76         14.3601
   710.90         14.3540
   711.04         14.3530
   711.18         14.3572
   711.32         14.3657
   711.46         14.3785
   711.60         14.3951
   711.74         14.4143
   711.88         14.4343
   712.02         14.4520
   712.16         14.4645
   712.30         14.4702
   712.44         14.4693
   712.58         14.4637
   712.72         14.4559
   712.86         14.4485
   713.00         14.4424
   713.14         14.4369
   713.28         14.4300
   713.42         14.4193
   713.56         14.4021
   713.70         14.3756
   713.84         14.3382
   713.98         14.2905
   714.12         14.2356
   714.26         14.1777
   714.40         14.1224
   714.54         14.0754
   714.68         14.0425
   714.82         14.0287
   714.96         14.0365
   715.10         14.0654
   715.24         14.1110
   715.38         14.1656
   715.52         14.2196
   715.66         14.2651
   715.80         14.2961
   715.94         14.3082
   716.08         14.2995
   716.22         14.2708
   716.36         14.2253
   716.50         14.1678
   716.64         14.1036
   716.78         14.0372
   716.92         13.9707
   717.06         13.9045
   717.20         13.8380
   717.34         13.7692
   717.48         13.6949
   717.62         13.6135
   717.76         13.5246
   717.90         13.4297
   718.04         13.3319
   718.18         13.2369
   718.32         13.1513
   718.46         13.0803
   718.60         13.0279
   718.74         12.9968
   718.88         12.9880
   719.02         12.9991
   719.16         13.0258
   719.30         13.0630
   719.44         13.1057
   719.58         13.1484
   719.72         13.1879
   719.86         13.2242
   720.00         13.2605
   720.14         13.3018
   720.28         13.3527
   720.42         13.4158
   720.56         13.4922
   720.70         13.5822
   720.84         13.6847
   720.98         13.7960
   721.12         13.9092
   721.26         14.0160
   721.40         14.1083
   721.54         14.1804
   721.68         14.2289
   721.82         14.2534
   721.96         14.2550
   722.10         14.2359
   722.24         14.1990
   722.38         14.1492
   722.52         14.0927
   722.66         14.0343
   722.80         13.9765
   722.94         13.9207
   723.08         13.8678
   723.22         13.8188
   723.36         13.7748
   723.50         13.7365
   723.64         13.7051
   723.78         13.6816
   723.92         13.6664
   724.06         13.6586
   724.20         13.6558
   724.34         13.6552
   724.48         13.6546
   724.62         13.6528
   724.76         13.6500
   724.90         13.6478
   725.04         13.6478
   725.18         13.6500
   725.32         13.6530
   725.46         13.6553
   725.60         13.6569
   725.74         13.6584
   725.88         13.6609
   726.02         13.6659
   726.16         13.6731
   726.30         13.6803
   726.44         13.6836
   726.58         13.6800
   726.72         13.6692
   726.86         13.6537
   727.00         13.6371
   727.14         13.6221
   727.28         13.6095
   727.42         13.5987
   727.56         13.5880
   727.70         13.5749
   727.84         13.5562
   727.98         13.5301
   728.12         13.4958
   728.26         13.4522
   728.40         13.3986
   728.54         13.3367
   728.68         13.2708
   728.82         13.2060
   728.96         13.1477
   729.10         13.1007
   729.24         13.0698
   729.38         13.0583
   729.52         13.0669
   729.66         13.0931
   729.80         13.1316
   729.94         13.1760
   730.08         13.2199
   730.22         13.2582
   730.36         13.2874
   730.50         13.3058
   730.64         13.3132
   730.78         13.3106
   730.92         13.2991
   731.06         13.2815
   731.20         13.2618
   731.34         13.2439
   731.48         13.2299
   731.62         13.2203
   731.76         13.2152
   731.90         13.2144
   732.04         13.2165
   732.18         13.2195
   732.32         13.2226
   732.46         13.2265
   732.60         13.2331
   732.74         13.2445
   732.88         13.2619
   733.02         13.2851
   733.16         13.3123
   733.30         13.3408
   733.44         13.3676
   733.58         13.3907
   733.72         13.4094
   733.86         13.4231
   734.00         13.4306
   734.14         13.4297
   734.28         13.4186
   734.42         13.3973
   734.56         13.3674
   734.70         13.3314
   734.84         13.2934
   734.98         13.2576
   735.12         13.2273
   735.26         13.2038
   735.40         13.1864
   735.54         13.1741
   735.68         13.1658
   735.82         13.1600
   735.96         13.1555
   736.10         13.1523
   736.24         13.1515
   736.38         13.1535
   736.52         13.1579
   736.66         13.1637
   736.80         13.1701
   736.94         13.1771
   737.08         13.1846
   737.22         13.1920
   737.36         13.1971
   737.50         13.1972
   737.64         13.1886
   737.78         13.1675
   737.92         13.1313
   738.06         13.0801
   738.20         13.0174
   738.34         12.9481
   738.48         12.8781
   738.62         12.8137
   738.76         12.7603
   738.90         12.7215
   739.04         12.6994
   739.18         12.6946
   739.32         12.7058
   739.46         12.7301
   739.60         12.7630
   739.74         12.7993
   739.88         12.8328
   740.02         12.8574
   740.16         12.8685
   740.30         12.8641
   740.44         12.8454
   740.58         12.8160
   740.72         12.7806
   740.86         12.7445
   741.00         12.7117
   741.14         12.6846
   741.28         12.6639
   741.42         12.6495
   741.56         12.6416
   741.70         12.6398
   741.84         12.6426
   741.98         12.6479
   742.12         12.6536
   742.26         12.6586
   742.40         12.6628
   742.54         12.6659
   742.68         12.6677
   742.82         12.6684
   742.96         12.6684
   743.10         12.6677
   743.24         12.6659
   743.38         12.6628
   743.52         12.6586
   743.66         12.6536
   743.80         12.6479
   743.94         12.6426
   744.08         12.6398
   744.22         12.6416
