# File HD221741
# Wavelength [nm]    Normalized Amplitude
   349.70         14.5513
   349.84         14.5231
   349.98         14.5055
   350.12         14.5038
   350.26         14.5186
   350.40         14.5468
   350.54         14.5825
   350.68         14.6179
   350.82         14.6474
   350.96         14.6680
   351.10         14.6757
   351.24         14.6680
   351.38         14.6474
   351.52         14.6179
   351.66         14.5825
   351.80         14.5468
   351.94         14.5186
   352.08         14.5038
   352.22         14.5055
   352.36         14.5231
   352.50         14.5513
   352.64         14.5824
   352.78         14.6075
   352.92         14.6178
   353.06         14.6081
   353.20         14.5790
   353.34         14.5366
   353.48         14.4894
   353.62         14.4440
   353.76         14.4051
   353.90         14.3789
   354.04         14.3705
   354.18         14.3802
   354.32         14.4050
   354.46         14.4410
   354.60         14.4819
   354.74         14.5225
   354.88         14.5616
   355.02         14.5985
   355.16         14.6316
   355.30         14.6587
   355.44         14.6776
   355.58         14.6894
   355.72         14.6990
   355.86         14.7099
   356.00         14.7207
   356.14         14.7270
   356.28         14.7247
   356.42         14.7100
   356.56         14.6773
   356.70         14.6214
   356.84         14.5419
   356.98         14.4438
   357.12         14.3342
   357.26         14.2203
   357.40         14.1112
   357.54         14.0142
   357.68         13.9319
   357.82         13.8662
   357.96         13.8186
   358.10         13.7902
   358.24         13.7812
   358.38         13.7890
   358.52         13.8082
   358.66         13.8335
   358.80         13.8610
   358.94         13.8865
   359.08         13.9066
   359.22         13.9213
   359.36         13.9355
   359.50         13.9546
   359.64         13.9830
   359.78         14.0222
   359.92         14.0716
   360.06         14.1282
   360.20         14.1867
   360.34         14.2424
   360.48         14.2933
   360.62         14.3382
   360.76         14.3747
   360.90         14.3995
   361.04         14.4103
   361.18         14.4081
   361.32         14.3964
   361.46         14.3788
   361.60         14.3589
   361.74         14.3403
   361.88         14.3251
   362.02         14.3133
   362.16         14.3047
   362.30         14.2996
   362.44         14.2979
   362.58         14.2998
   362.72         14.3066
   362.86         14.3203
   363.00         14.3423
   363.14         14.3722
   363.28         14.4067
   363.42         14.4402
   363.56         14.4702
   363.70         14.4969
   363.84         14.5213
   363.98         14.5414
   364.12         14.5525
   364.26         14.5513
   364.40         14.5379
   364.54         14.5148
   364.68         14.4877
   364.82         14.4626
   364.96         14.4445
   365.10         14.4371
   365.24         14.4422
   365.38         14.4589
   365.52         14.4850
   365.66         14.5180
   365.80         14.5536
   365.94         14.5849
   366.08         14.6058
   366.22         14.6131
   366.36         14.6059
   366.50         14.5857
   366.64         14.5556
   366.78         14.5197
   366.92         14.4840
   367.06         14.4554
   367.20         14.4391
   367.34         14.4354
   367.48         14.4396
   367.62         14.4461
   367.76         14.4505
   367.90         14.4491
   368.04         14.4400
   368.18         14.4233
   368.32         14.4005
   368.46         14.3751
   368.60         14.3538
   368.74         14.3460
   368.88         14.3588
   369.02         14.3933
   369.16         14.4436
   369.30         14.4999
   369.44         14.5528
   369.58         14.5961
   369.72         14.6241
   369.86         14.6291
   370.00         14.6036
   370.14         14.5490
   370.28         14.4789
   370.42         14.4147
   370.56         14.3777
   370.70         14.3801
   370.84         14.4209
   370.98         14.4907
   371.12         14.5794
   371.26         14.6787
   371.40         14.7839
   371.54         14.8950
   371.68         15.0161
   371.82         15.1509
   371.96         15.2984
   372.10         15.4507
   372.24         15.5927
   372.38         15.7076
   372.52         15.7880
   372.66         15.8414
   372.80         15.8890
   372.94         15.9566
   373.08         16.0634
   373.22         16.2160
   373.36         16.4072
   373.50         16.6207
   373.64         16.8366
   373.78         17.0323
   373.92         17.1862
   374.06         17.2849
   374.20         17.3276
   374.34         17.3244
   374.48         17.2923
   374.62         17.2546
   374.76         17.2423
   374.90         17.2940
   375.04         17.4486
   375.18         17.7343
   375.32         18.1548
   375.46         18.6830
   375.60         19.2626
   375.74         19.8137
   375.88         20.2499
   376.02         20.5013
   376.16         20.5334
   376.30         20.3564
   376.44         20.0258
   376.58         19.6327
   376.72         19.2840
   376.86         19.0802
   377.00         19.0985
   377.14         19.3872
   377.28         19.9629
   377.42         20.8088
   377.56         21.8763
   377.70         23.0883
   377.84         24.3450
   377.98         25.5337
   378.12         26.5417
   378.26         27.2688
   378.40         27.6391
   378.54         27.6133
   378.68         27.1956
   378.82         26.4344
   378.96         25.4145
   379.10         24.2468
   379.24         23.0546
   379.38         21.9601
   379.52         21.0761
   379.66         20.4993
   379.80         20.3014
   379.94         20.5165
   380.08         21.1380
   380.22         22.1256
   380.36         23.4110
   380.50         24.9045
   380.64         26.5048
   380.78         28.1094
   380.92         29.6240
   381.06         30.9720
   381.20         32.0983
   381.34         32.9682
   381.48         33.5635
   381.62         33.8730
   381.76         33.8879
   381.90         33.6008
   382.04         33.0080
   382.18         32.1134
   382.32         30.9348
   382.46         29.5089
   382.60         27.8957
   382.74         26.1788
   382.88         24.4639
   383.02         22.8696
   383.16         21.5120
   383.30         20.4907
   383.44         19.8795
   383.58         19.7224
   383.72         20.0312
   383.86         20.7841
   384.00         21.9302
   384.14         23.3951
   384.28         25.0875
   384.42         26.9082
   384.56         28.7603
   384.70         30.5596
   384.84         32.2400
   384.98         33.7566
   385.12         35.0855
   385.26         36.2204
   385.40         37.1670
   385.54         37.9392
   385.68         38.5538
   385.82         39.0276
   385.96         39.3737
   386.10         39.5997
   386.24         39.7070
   386.38         39.6916
   386.52         39.5455
   386.66         39.2569
   386.80         38.8122
   386.94         38.2002
   387.08         37.4126
   387.22         36.4437
   387.36         35.2889
   387.50         33.9460
   387.64         32.4224
   387.78         30.7423
   387.92         28.9515
   388.06         27.1177
   388.20         25.3272
   388.34         23.6765
   388.48         22.2594
   388.62         21.1564
   388.76         20.4314
   388.90         20.1294
   389.04         20.2705
   389.18         20.8462
   389.32         21.8190
   389.46         23.1271
   389.60         24.6921
   389.74         26.4271
   389.88         28.2433
   390.02         30.0581
   390.16         31.8037
   390.30         33.4341
   390.44         34.9263
   390.58         36.2745
   390.72         37.4804
   390.86         38.5475
   391.00         39.4784
   391.14         40.2760
   391.28         40.9464
   391.42         41.4960
   391.56         41.9247
   391.70         42.2242
   391.84         42.3732
   391.98         42.3332
   392.12         42.0582
   392.26         41.5189
   392.40         40.7224
   392.54         39.7167
   392.68         38.5833
   392.82         37.4266
   392.96         36.3577
   393.10         35.4749
   393.24         34.8521
   393.38         34.5351
   393.52         34.5396
   393.66         34.8474
   393.80         35.4058
   393.94         36.1342
   394.08         36.9303
   394.22         37.6832
   394.36         38.2892
   394.50         38.6631
   394.64         38.7522
   394.78         38.5462
   394.92         38.0701
   395.06         37.3645
   395.20         36.4623
   395.34         35.3796
   395.48         34.1161
   395.62         32.6624
   395.76         31.0170
   395.90         29.2032
   396.04         27.2754
   396.18         25.3149
   396.32         23.4200
   396.46         21.6980
   396.60         20.2555
   396.74         19.1851
   396.88         18.5574
   397.02         18.4135
   397.16         18.7600
   397.30         19.5679
   397.44         20.7765
   397.58         22.3015
   397.72         24.0468
   397.86         25.9150
   398.00         27.8146
   398.14         29.6657
   398.28         31.4102
   398.42         33.0173
   398.56         34.4766
   398.70         35.7900
   398.84         36.9650
   398.98         38.0094
   399.12         38.9287
   399.26         39.7257
   399.40         40.4034
   399.54         40.9679
   399.68         41.4280
   399.82         41.7943
   399.96         42.0778
   400.10         42.2921
   400.24         42.4521
   400.38         42.5732
   400.52         42.6699
   400.66         42.7523
   400.80         42.8262
   400.94         42.8977
   401.08         42.9722
   401.22         43.0495
   401.36         43.1275
   401.50         43.2032
   401.64         43.2695
   401.78         43.3181
   401.92         43.3457
   402.06         43.3541
   402.20         43.3459
   402.34         43.3225
   402.48         43.2868
   402.62         43.2452
   402.76         43.2055
   402.90         43.1722
   403.04         43.1480
   403.18         43.1346
   403.32         43.1306
   403.46         43.1317
   403.60         43.1340
   403.74         43.1335
   403.88         43.1252
   404.02         43.1054
   404.16         43.0703
   404.30         43.0171
   404.44         42.9464
   404.58         42.8615
   404.72         42.7649
   404.86         42.6572
   405.00         42.5378
   405.14         42.4054
   405.28         42.2571
   405.42         42.0889
   405.56         41.8987
   405.70         41.6897
   405.84         41.4678
   405.98         41.2375
   406.12         41.0033
   406.26         40.7678
   406.40         40.5281
   406.54         40.2753
   406.68         39.9996
   406.82         39.6955
   406.96         39.3622
   407.10         38.9977
   407.24         38.5982
   407.38         38.1591
   407.52         37.6768
   407.66         37.1495
   407.80         36.5758
   407.94         35.9531
   408.08         35.2741
   408.22         34.5270
   408.36         33.6961
   408.50         32.7624
   408.64         31.7064
   408.78         30.5114
   408.92         29.1689
   409.06         27.6885
   409.20         26.1048
   409.34         24.4789
   409.48         22.8914
   409.62         21.4305
   409.76         20.1830
   409.90         19.2278
   410.04         18.6266
   410.18         18.4177
   410.32         18.6107
   410.46         19.1856
   410.60         20.0983
   410.74         21.2861
   410.88         22.6741
   411.02         24.1816
   411.16         25.7290
   411.30         27.2456
   411.44         28.6753
   411.58         29.9823
   411.72         31.1514
   411.86         32.1819
   412.00         33.0811
   412.14         33.8595
   412.28         34.5287
   412.42         35.1029
   412.56         35.6004
   412.70         36.0417
   412.84         36.4476
   412.98         36.8338
   413.12         37.2094
   413.26         37.5786
   413.40         37.9410
   413.54         38.2912
   413.68         38.6205
   413.82         38.9203
   413.96         39.1831
   414.10         39.4026
   414.24         39.5738
   414.38         39.6943
   414.52         39.7646
   414.66         39.7881
   414.80         39.7723
   414.94         39.7275
   415.08         39.6671
   415.22         39.6062
   415.36         39.5556
   415.50         39.5194
   415.64         39.4969
   415.78         39.4838
   415.92         39.4714
   416.06         39.4479
   416.20         39.4008
   416.34         39.3216
   416.48         39.2074
   416.62         39.0594
   416.76         38.8821
   416.90         38.6842
   417.04         38.4771
   417.18         38.2743
   417.32         38.0917
   417.46         37.9442
   417.60         37.8423
   417.74         37.7911
   417.88         37.7907
   418.02         37.8354
   418.16         37.9162
   418.30         38.0222
   418.44         38.1409
   418.58         38.2607
   418.72         38.3740
   418.86         38.4768
   419.00         38.5663
   419.14         38.6384
   419.28         38.6878
   419.42         38.7097
   419.56         38.7021
   419.70         38.6673
   419.84         38.6133
   419.98         38.5512
   420.12         38.4910
   420.26         38.4414
   420.40         38.4102
   420.54         38.4022
   420.68         38.4169
   420.82         38.4488
   420.96         38.4887
   421.10         38.5258
   421.24         38.5482
   421.38         38.5424
   421.52         38.4968
   421.66         38.4075
   421.80         38.2784
   421.94         38.1183
   422.08         37.9371
   422.22         37.7461
   422.36         37.5596
   422.50         37.3924
   422.64         37.2560
   422.78         37.1559
   422.92         37.0923
   423.06         37.0609
   423.20         37.0542
   423.34         37.0618
   423.48         37.0713
   423.62         37.0701
   423.76         37.0470
   423.90         36.9933
   424.04         36.9090
   424.18         36.8049
   424.32         36.6966
   424.46         36.5976
   424.60         36.5153
   424.74         36.4517
   424.88         36.4085
   425.02         36.3887
   425.16         36.3926
   425.30         36.4169
   425.44         36.4566
   425.58         36.5064
   425.72         36.5604
   425.86         36.6107
   426.00         36.6490
   426.14         36.6682
   426.28         36.6649
   426.42         36.6403
   426.56         36.6009
   426.70         36.5553
   426.84         36.5097
   426.98         36.4651
   427.12         36.4201
   427.26         36.3732
   427.40         36.3230
   427.54         36.2690
   427.68         36.2102
   427.82         36.1428
   427.96         36.0620
   428.10         35.9642
   428.24         35.8480
   428.38         35.7136
   428.52         35.5630
   428.66         35.3996
   428.80         35.2272
   428.94         35.0495
   429.08         34.8717
   429.22         34.6997
   429.36         34.5369
   429.50         34.3828
   429.64         34.2364
   429.78         34.0972
   429.92         33.9645
   430.06         33.8340
   430.20         33.6989
   430.34         33.5531
   430.48         33.3941
   430.62         33.2220
   430.76         33.0359
   430.90         32.8309
   431.04         32.6002
   431.18         32.3367
   431.32         32.0343
   431.46         31.6883
   431.60         31.2967
   431.74         30.8584
   431.88         30.3697
   432.02         29.8228
   432.16         29.2076
   432.30         28.5142
   432.44         27.7320
   432.58         26.8488
   432.72         25.8548
   432.86         24.7485
   433.00         23.5434
   433.14         22.2716
   433.28         20.9815
   433.42         19.7320
   433.56         18.5877
   433.70         17.6140
   433.84         16.8693
   433.98         16.3978
   434.12         16.2263
   434.26         16.3651
   434.40         16.8063
   434.54         17.5245
   434.68         18.4787
   434.82         19.6166
   434.96         20.8796
   435.10         22.2086
   435.24         23.5483
   435.38         24.8530
   435.52         26.0897
   435.66         27.2393
   435.80         28.2927
   435.94         29.2443
   436.08         30.0887
   436.22         30.8216
   436.36         31.4425
   436.50         31.9567
   436.64         32.3742
   436.78         32.7086
   436.92         32.9746
   437.06         33.1827
   437.20         33.3377
   437.34         33.4410
   437.48         33.4951
   437.62         33.5047
   437.76         33.4758
   437.90         33.4161
   438.04         33.3343
   438.18         33.2409
   438.32         33.1483
   438.46         33.0700
   438.60         33.0175
   438.74         32.9971
   438.88         33.0106
   439.02         33.0547
   439.16         33.1222
   439.30         33.2029
   439.44         33.2849
   439.58         33.3579
   439.72         33.4127
   439.86         33.4435
   440.00         33.4521
   440.14         33.4445
   440.28         33.4249
   440.42         33.3939
   440.56         33.3513
   440.70         33.2995
   440.84         33.2439
   440.98         33.1907
   441.12         33.1441
   441.26         33.1052
   441.40         33.0739
   441.54         33.0514
   441.68         33.0409
   441.82         33.0462
   441.96         33.0688
   442.10         33.1065
   442.24         33.1536
   442.38         33.2038
   442.52         33.2535
   442.66         33.3013
   442.80         33.3432
   442.94         33.3719
   443.08         33.3804
   443.22         33.3670
   443.36         33.3344
   443.50         33.2861
   443.64         33.2262
   443.78         33.1602
   443.92         33.0944
   444.06         33.0340
   444.20         32.9825
   444.34         32.9419
   444.48         32.9135
   444.62         32.8974
   444.76         32.8938
   444.90         32.9015
   445.04         32.9182
   445.18         32.9395
   445.32         32.9577
   445.46         32.9634
   445.60         32.9498
   445.74         32.9168
   445.88         32.8702
   446.02         32.8175
   446.16         32.7649
   446.30         32.7173
   446.44         32.6781
   446.58         32.6482
   446.72         32.6222
   446.86         32.5901
   447.00         32.5421
   447.14         32.4753
   447.28         32.3938
   447.42         32.3054
   447.56         32.2175
   447.70         32.1362
   447.84         32.0664
   447.98         32.0127
   448.12         31.9806
   448.26         31.9755
   448.40         32.0008
   448.54         32.0556
   448.68         32.1337
   448.82         32.2244
   448.96         32.3157
   449.10         32.3999
   449.24         32.4732
   449.38         32.5344
   449.52         32.5851
   449.66         32.6313
   449.80         32.6806
   449.94         32.7364
   450.08         32.7940
   450.22         32.8447
   450.36         32.8807
   450.50         32.8967
   450.64         32.8885
   450.78         32.8528
   450.92         32.7857
   451.06         32.6852
   451.20         32.5547
   451.34         32.4018
   451.48         32.2355
   451.62         32.0681
   451.76         31.9131
   451.90         31.7768
   452.04         31.6577
   452.18         31.5533
   452.32         31.4645
   452.46         31.3950
   452.60         31.3479
   452.74         31.3224
   452.88         31.3157
   453.02         31.3233
   453.16         31.3385
   453.30         31.3543
   453.44         31.3635
   453.58         31.3580
   453.72         31.3306
   453.86         31.2780
   454.00         31.1990
   454.14         31.0944
   454.28         30.9680
   454.42         30.8249
   454.56         30.6708
   454.70         30.5155
   454.84         30.3732
   454.98         30.2568
   455.12         30.1738
   455.26         30.1249
   455.40         30.1068
   455.54         30.1159
   455.68         30.1479
   455.82         30.1957
   455.96         30.2500
   456.10         30.3029
   456.24         30.3500
   456.38         30.3914
   456.52         30.4298
   456.66         30.4664
   456.80         30.5001
   456.94         30.5268
   457.08         30.5410
   457.22         30.5375
   457.36         30.5141
   457.50         30.4702
   457.64         30.4040
   457.78         30.3155
   457.92         30.2090
   458.06         30.0927
   458.20         29.9765
   458.34         29.8690
   458.48         29.7774
   458.62         29.7097
   458.76         29.6738
   458.90         29.6730
   459.04         29.7045
   459.18         29.7614
   459.32         29.8359
   459.46         29.9195
   459.60         30.0030
   459.74         30.0795
   459.88         30.1462
   460.02         30.2020
   460.16         30.2441
   460.30         30.2686
   460.44         30.2745
   460.58         30.2627
   460.72         30.2340
   460.86         30.1908
   461.00         30.1372
   461.14         30.0801
   461.28         30.0276
   461.42         29.9847
   461.56         29.9531
   461.70         29.9334
   461.84         29.9264
   461.98         29.9311
   462.12         29.9428
   462.26         29.9548
   462.40         29.9607
   462.54         29.9566
   462.68         29.9423
   462.82         29.9192
   462.96         29.8887
   463.10         29.8516
   463.24         29.8101
   463.38         29.7698
   463.52         29.7368
   463.66         29.7137
   463.80         29.6996
   463.94         29.6900
   464.08         29.6797
   464.22         29.6658
   464.36         29.6474
   464.50         29.6258
   464.64         29.6046
   464.78         29.5889
   464.92         29.5834
   465.06         29.5904
   465.20         29.6101
   465.34         29.6383
   465.48         29.6661
   465.62         29.6834
   465.76         29.6833
   465.90         29.6624
   466.04         29.6214
   466.18         29.5633
   466.32         29.4948
   466.46         29.4256
   466.60         29.3647
   466.74         29.3193
   466.88         29.2944
   467.02         29.2933
   467.16         29.3175
   467.30         29.3647
   467.44         29.4269
   467.58         29.4924
   467.72         29.5511
   467.86         29.5957
   468.00         29.6205
   468.14         29.6230
   468.28         29.6051
   468.42         29.5719
   468.56         29.5298
   468.70         29.4830
   468.84         29.4318
   468.98         29.3739
   469.12         29.3054
   469.26         29.2242
   469.40         29.1304
   469.54         29.0270
   469.68         28.9177
   469.82         28.8064
   469.96         28.6985
   470.10         28.5993
   470.24         28.5137
   470.38         28.4453
   470.52         28.3946
   470.66         28.3598
   470.80         28.3388
   470.94         28.3283
   471.08         28.3227
   471.22         28.3151
   471.36         28.3008
   471.50         28.2794
   471.64         28.2528
   471.78         28.2220
   471.92         28.1868
   472.06         28.1463
   472.20         28.0995
   472.34         28.0464
   472.48         27.9878
   472.62         27.9249
   472.76         27.8590
   472.90         27.7932
   473.04         27.7316
   473.18         27.6784
   473.32         27.6377
   473.46         27.6135
   473.60         27.6082
   473.74         27.6223
   473.88         27.6534
   474.02         27.6962
   474.16         27.7429
   474.30         27.7845
   474.44         27.8146
   474.58         27.8293
   474.72         27.8268
   474.86         27.8069
   475.00         27.7697
   475.14         27.7150
   475.28         27.6448
   475.42         27.5632
   475.56         27.4754
   475.70         27.3858
   475.84         27.2988
   475.98         27.2201
   476.12         27.1537
   476.26         27.1005
   476.40         27.0590
   476.54         27.0263
   476.68         26.9999
   476.82         26.9781
   476.96         26.9592
   477.10         26.9408
   477.24         26.9194
   477.38         26.8928
   477.52         26.8612
   477.66         26.8251
   477.80         26.7868
   477.94         26.7508
   478.08         26.7207
   478.22         26.6973
   478.36         26.6782
   478.50         26.6608
   478.64         26.6427
   478.78         26.6216
   478.92         26.5943
   479.06         26.5566
   479.20         26.5060
   479.34         26.4438
   479.48         26.3746
   479.62         26.3043
   479.76         26.2392
   479.90         26.1847
   480.04         26.1450
   480.18         26.1220
   480.32         26.1149
   480.46         26.1202
   480.60         26.1314
   480.74         26.1391
   480.88         26.1345
   481.02         26.1115
   481.16         26.0679
   481.30         26.0028
   481.44         25.9160
   481.58         25.8072
   481.72         25.6781
   481.86         25.5345
   482.00         25.3859
   482.14         25.2414
   482.28         25.1053
   482.42         24.9771
   482.56         24.8524
   482.70         24.7264
   482.84         24.5924
   482.98         24.4418
   483.12         24.2667
   483.26         24.0608
   483.40         23.8196
   483.54         23.5393
   483.68         23.2176
   483.82         22.8521
   483.96         22.4420
   484.10         21.9877
   484.24         21.4867
   484.38         20.9345
   484.52         20.3267
   484.66         19.6609
   484.80         18.9351
   484.94         18.1513
   485.08         17.3224
   485.22         16.4747
   485.36         15.6445
   485.50         14.8746
   485.64         14.2100
   485.78         13.6925
   485.92         13.3532
   486.06         13.2114
   486.20         13.2743
   486.34         13.5373
   486.48         13.9836
   486.62         14.5845
   486.76         15.2999
   486.90         16.0834
   487.04         16.8907
   487.18         17.6837
   487.32         18.4334
   487.46         19.1228
   487.60         19.7458
   487.74         20.3040
   487.88         20.8020
   488.02         21.2455
   488.16         21.6410
   488.30         21.9953
   488.44         22.3151
   488.58         22.6084
   488.72         22.8834
   488.86         23.1439
   489.00         23.3921
   489.14         23.6290
   489.28         23.8544
   489.42         24.0701
   489.56         24.2787
   489.70         24.4794
   489.84         24.6685
   489.98         24.8423
   490.12         24.9973
   490.26         25.1292
   490.40         25.2346
   490.54         25.3118
   490.68         25.3597
   490.82         25.3766
   490.96         25.3604
   491.10         25.3098
   491.24         25.2267
   491.38         25.1159
   491.52         24.9880
   491.66         24.8593
   491.80         24.7479
   491.94         24.6694
   492.08         24.6332
   492.22         24.6407
   492.36         24.6876
   492.50         24.7685
   492.64         24.8763
   492.78         25.0022
   492.92         25.1350
   493.06         25.2639
   493.20         25.3787
   493.34         25.4718
   493.48         25.5389
   493.62         25.5792
   493.76         25.5955
   493.90         25.5948
   494.04         25.5865
   494.18         25.5779
   494.32         25.5710
   494.46         25.5624
   494.60         25.5458
   494.74         25.5167
   494.88         25.4748
   495.02         25.4216
   495.16         25.3592
   495.30         25.2925
   495.44         25.2287
   495.58         25.1756
   495.72         25.1388
   495.86         25.1195
   496.00         25.1163
   496.14         25.1264
   496.28         25.1451
   496.42         25.1674
   496.56         25.1891
   496.70         25.2031
   496.84         25.1987
   496.98         25.1668
   497.12         25.1027
   497.26         25.0093
   497.40         24.8971
   497.54         24.7788
   497.68         24.6661
   497.82         24.5700
   497.96         24.5002
   498.10         24.4616
   498.24         24.4538
   498.38         24.4738
   498.52         24.5158
   498.66         24.5729
   498.80         24.6371
   498.94         24.7008
   499.08         24.7591
   499.22         24.8080
   499.36         24.8407
   499.50         24.8498
   499.64         24.8316
   499.78         24.7888
   499.92         24.7291
   500.06         24.6602
   500.20         24.5859
   500.34         24.5066
   500.48         24.4208
   500.62         24.3260
   500.76         24.2192
   500.90         24.1010
   501.04         23.9757
   501.18         23.8499
   501.32         23.7327
   501.46         23.6336
   501.60         23.5604
   501.74         23.5169
   501.88         23.5020
   502.02         23.5102
   502.16         23.5361
   502.30         23.5762
   502.44         23.6268
   502.58         23.6810
   502.72         23.7297
   502.86         23.7657
   503.00         23.7849
   503.14         23.7870
   503.28         23.7755
   503.42         23.7582
   503.56         23.7462
   503.70         23.7499
   503.84         23.7730
   503.98         23.8141
   504.12         23.8681
   504.26         23.9255
   504.40         23.9741
   504.54         24.0032
   504.68         24.0063
   504.82         23.9825
   504.96         23.9362
   505.10         23.8736
   505.24         23.8017
   505.38         23.7283
   505.52         23.6612
   505.66         23.6073
   505.80         23.5717
   505.94         23.5579
   506.08         23.5654
   506.22         23.5893
   506.36         23.6215
   506.50         23.6523
   506.64         23.6750
   506.78         23.6861
   506.92         23.6839
   507.06         23.6706
   507.20         23.6507
   507.34         23.6284
   507.48         23.6073
   507.62         23.5908
   507.76         23.5818
   507.90         23.5818
   508.04         23.5910
   508.18         23.6076
   508.32         23.6280
   508.46         23.6481
   508.60         23.6628
   508.74         23.6666
   508.88         23.6568
   509.02         23.6334
   509.16         23.5987
   509.30         23.5568
   509.44         23.5120
   509.58         23.4692
   509.72         23.4332
   509.86         23.4065
   510.00         23.3896
   510.14         23.3819
   510.28         23.3810
   510.42         23.3820
   510.56         23.3794
   510.70         23.3696
   510.84         23.3516
   510.98         23.3265
   511.12         23.2969
   511.26         23.2651
   511.40         23.2327
   511.54         23.2006
   511.68         23.1689
   511.82         23.1372
   511.96         23.1059
   512.10         23.0764
   512.24         23.0506
   512.38         23.0286
   512.52         23.0093
   512.66         22.9929
   512.80         22.9794
   512.94         22.9678
   513.08         22.9586
   513.22         22.9535
   513.36         22.9531
   513.50         22.9573
   513.64         22.9655
   513.78         22.9769
   513.92         22.9913
   514.06         23.0080
   514.20         23.0251
   514.34         23.0405
   514.48         23.0536
   514.62         23.0647
   514.76         23.0732
   514.90         23.0749
   515.04         23.0637
   515.18         23.0345
   515.32         22.9831
   515.46         22.9042
   515.60         22.7941
   515.74         22.6531
   515.88         22.4853
   516.02         22.2995
   516.16         22.1084
   516.30         21.9263
   516.44         21.7683
   516.58         21.6473
   516.72         21.5711
   516.86         21.5420
   517.00         21.5584
   517.14         21.6139
   517.28         21.6989
   517.42         21.7994
   517.56         21.9001
   517.70         21.9870
   517.84         22.0494
   517.98         22.0804
   518.12         22.0788
   518.26         22.0488
   518.40         21.9991
   518.54         21.9411
   518.68         21.8864
   518.82         21.8451
   518.96         21.8235
   519.10         21.8235
   519.24         21.8419
   519.38         21.8726
   519.52         21.9080
   519.66         21.9425
   519.80         21.9733
   519.94         21.9981
   520.08         22.0142
   520.22         22.0198
   520.36         22.0132
   520.50         21.9939
   520.64         21.9659
   520.78         21.9359
   520.92         21.9092
   521.06         21.8905
   521.20         21.8824
   521.34         21.8838
   521.48         21.8891
   521.62         21.8919
   521.76         21.8874
   521.90         21.8721
   522.04         21.8424
   522.18         21.7973
   522.32         21.7384
   522.46         21.6688
   522.60         21.5933
   522.74         21.5191
   522.88         21.4543
   523.02         21.4057
   523.16         21.3800
   523.30         21.3817
   523.44         21.4100
   523.58         21.4584
   523.72         21.5179
   523.86         21.5788
   524.00         21.6326
   524.14         21.6733
   524.28         21.6989
   524.42         21.7079
   524.56         21.6989
   524.70         21.6720
   524.84         21.6295
   524.98         21.5738
   525.12         21.5070
   525.26         21.4304
   525.40         21.3444
   525.54         21.2476
   525.68         21.1401
   525.82         21.0242
   525.96         20.9032
   526.10         20.7808
   526.24         20.6605
   526.38         20.5473
   526.52         20.4480
   526.66         20.3695
   526.80         20.3167
   526.94         20.2911
   527.08         20.2905
   527.22         20.3108
   527.36         20.3462
   527.50         20.3906
   527.64         20.4396
   527.78         20.4911
   527.92         20.5450
   528.06         20.6025
   528.20         20.6664
   528.34         20.7401
   528.48         20.8248
   528.62         20.9174
   528.76         21.0121
   528.90         21.1020
   529.04         21.1801
   529.18         21.2404
   529.32         21.2770
   529.46         21.2853
   529.60         21.2643
   529.74         21.2177
   529.88         21.1523
   530.02         21.0765
   530.16         20.9982
   530.30         20.9226
   530.44         20.8523
   530.58         20.7885
   530.72         20.7324
   530.86         20.6848
   531.00         20.6464
   531.14         20.6165
   531.28         20.5927
   531.42         20.5725
   531.56         20.5540
   531.70         20.5365
   531.84         20.5205
   531.98         20.5068
   532.12         20.4958
   532.26         20.4861
   532.40         20.4747
   532.54         20.4563
   532.68         20.4242
   532.82         20.3741
   532.96         20.3082
   533.10         20.2338
   533.24         20.1598
   533.38         20.0937
   533.52         20.0405
   533.66         20.0024
   533.80         19.9796
   533.94         19.9700
   534.08         19.9711
   534.22         19.9818
   534.36         20.0033
   534.50         20.0364
   534.64         20.0803
   534.78         20.1307
   534.92         20.1822
   535.06         20.2297
   535.20         20.2689
   535.34         20.2967
   535.48         20.3110
   535.62         20.3089
   535.76         20.2872
   535.90         20.2449
   536.04         20.1848
   536.18         20.1124
   536.32         20.0345
   536.46         19.9587
   536.60         19.8918
   536.74         19.8397
   536.88         19.8072
   537.02         19.7969
   537.16         19.8070
   537.30         19.8319
   537.44         19.8645
   537.58         19.8979
   537.72         19.9267
   537.86         19.9462
   538.00         19.9543
   538.14         19.9516
   538.28         19.9412
   538.42         19.9261
   538.56         19.9076
   538.70         19.8856
   538.84         19.8591
   538.98         19.8266
   539.12         19.7864
   539.26         19.7372
   539.40         19.6800
   539.54         19.6180
   539.68         19.5552
   539.82         19.4952
   539.96         19.4414
   540.10         19.3980
   540.24         19.3682
   540.38         19.3526
   540.52         19.3509
   540.66         19.3631
   540.80         19.3894
   540.94         19.4285
   541.08         19.4765
   541.22         19.5278
   541.36         19.5772
   541.50         19.6196
   541.64         19.6513
   541.78         19.6707
   541.92         19.6788
   542.06         19.6775
   542.20         19.6682
   542.34         19.6529
   542.48         19.6352
   542.62         19.6193
   542.76         19.6087
   542.90         19.6063
   543.04         19.6151
   543.18         19.6372
   543.32         19.6712
   543.46         19.7122
   543.60         19.7533
   543.74         19.7878
   543.88         19.8131
   544.02         19.8306
   544.16         19.8411
   544.30         19.8436
   544.44         19.8365
   544.58         19.8197
   544.72         19.7946
   544.86         19.7638
   545.00         19.7307
   545.14         19.6979
   545.28         19.6671
   545.42         19.6378
   545.56         19.6085
   545.70         19.5776
   545.84         19.5446
   545.98         19.5100
   546.12         19.4757
   546.26         19.4437
   546.40         19.4147
   546.54         19.3880
   546.68         19.3612
   546.82         19.3324
   546.96         19.3014
   547.10         19.2706
   547.24         19.2428
   547.38         19.2190
   547.52         19.1975
   547.66         19.1772
   547.80         19.1579
   547.94         19.1393
   548.08         19.1211
   548.22         19.1046
   548.36         19.0922
   548.50         19.0864
   548.64         19.0882
   548.78         19.0964
   548.92         19.1102
   549.06         19.1294
   549.20         19.1531
   549.34         19.1789
   549.48         19.2027
   549.62         19.2186
   549.76         19.2211
   549.90         19.2069
   550.04         19.1747
   550.18         19.1263
   550.32         19.0671
   550.46         19.0039
   550.60         18.9431
   550.74         18.8908
   550.88         18.8521
   551.02         18.8301
   551.16         18.8249
   551.30         18.8320
   551.44         18.8442
   551.58         18.8536
   551.72         18.8535
   551.86         18.8386
   552.00         18.8077
   552.14         18.7629
   552.28         18.7090
   552.42         18.6523
   552.56         18.6004
   552.70         18.5595
   552.84         18.5329
   552.98         18.5216
   553.12         18.5236
   553.26         18.5333
   553.40         18.5443
   553.54         18.5517
   553.68         18.5536
   553.82         18.5488
   553.96         18.5379
   554.10         18.5228
   554.24         18.5073
   554.38         18.4962
   554.52         18.4927
   554.66         18.4964
   554.80         18.5034
   554.94         18.5093
   555.08         18.5103
   555.22         18.5044
   555.36         18.4908
   555.50         18.4707
   555.64         18.4460
   555.78         18.4182
   555.92         18.3896
   556.06         18.3643
   556.20         18.3466
   556.34         18.3383
   556.48         18.3388
   556.62         18.3470
   556.76         18.3618
   556.90         18.3817
   557.04         18.4043
   557.18         18.4272
   557.32         18.4475
   557.46         18.4625
   557.60         18.4697
   557.74         18.4667
   557.88         18.4519
   558.02         18.4247
   558.16         18.3846
   558.30         18.3320
   558.44         18.2707
   558.58         18.2068
   558.72         18.1463
   558.86         18.0931
   559.00         18.0496
   559.14         18.0174
   559.28         17.9966
   559.42         17.9858
   559.56         17.9828
   559.70         17.9861
   559.84         17.9935
   559.98         18.0018
   560.12         18.0097
   560.26         18.0173
   560.40         18.0251
   560.54         18.0330
   560.68         18.0406
   560.82         18.0478
   560.96         18.0539
   561.10         18.0578
   561.24         18.0579
   561.38         18.0525
   561.52         18.0404
   561.66         18.0218
   561.80         17.9987
   561.94         17.9740
   562.08         17.9494
   562.22         17.9263
   562.36         17.9055
   562.50         17.8871
   562.64         17.8718
   562.78         17.8607
   562.92         17.8523
   563.06         17.8451
   563.20         17.8389
   563.34         17.8346
   563.48         17.8326
   563.62         17.8335
   563.76         17.8377
   563.90         17.8450
   564.04         17.8535
   564.18         17.8610
   564.32         17.8662
   564.46         17.8680
   564.60         17.8641
   564.74         17.8522
   564.88         17.8316
   565.02         17.8035
   565.16         17.7703
   565.30         17.7352
   565.44         17.6998
   565.58         17.6653
   565.72         17.6349
   565.86         17.6108
   566.00         17.5922
   566.14         17.5773
   566.28         17.5644
   566.42         17.5516
   566.56         17.5364
   566.70         17.5174
   566.84         17.4949
   566.98         17.4702
   567.12         17.4431
   567.26         17.4136
   567.40         17.3826
   567.54         17.3516
   567.68         17.3216
   567.82         17.2928
   567.96         17.2649
   568.10         17.2368
   568.24         17.2081
   568.38         17.1778
   568.52         17.1444
   568.66         17.1082
   568.80         17.0733
   568.94         17.0454
   569.08         17.0277
   569.22         17.0215
   569.36         17.0261
   569.50         17.0396
   569.64         17.0590
   569.78         17.0807
   569.92         17.1016
   570.06         17.1185
   570.20         17.1284
   570.34         17.1291
   570.48         17.1194
   570.62         17.0989
   570.76         17.0683
   570.90         17.0290
   571.04         16.9834
   571.18         16.9350
   571.32         16.8879
   571.46         16.8451
   571.60         16.8081
   571.74         16.7771
   571.88         16.7524
   572.02         16.7354
   572.16         16.7282
   572.30         16.7330
   572.44         16.7509
   572.58         16.7806
   572.72         16.8195
   572.86         16.8640
   573.00         16.9093
   573.14         16.9513
   573.28         16.9864
   573.42         17.0118
   573.56         17.0241
   573.70         17.0212
   573.84         17.0031
   573.98         16.9728
   574.12         16.9344
   574.26         16.8917
   574.40         16.8488
   574.54         16.8093
   574.68         16.7755
   574.82         16.7486
   574.96         16.7277
   575.10         16.7099
   575.24         16.6915
   575.38         16.6698
   575.52         16.6433
   575.66         16.6109
   575.80         16.5727
   575.94         16.5295
   576.08         16.4823
   576.22         16.4330
   576.36         16.3860
   576.50         16.3467
   576.64         16.3188
   576.78         16.3028
   576.92         16.2962
   577.06         16.2957
   577.20         16.2975
   577.34         16.2986
   577.48         16.2977
   577.62         16.2935
   577.76         16.2853
   577.90         16.2736
   578.04         16.2602
   578.18         16.2476
   578.32         16.2386
   578.46         16.2358
   578.60         16.2404
   578.74         16.2519
   578.88         16.2691
   579.02         16.2903
   579.16         16.3130
   579.30         16.3330
   579.44         16.3462
   579.58         16.3508
   579.72         16.3480
   579.86         16.3400
   580.00         16.3287
   580.14         16.3156
   580.28         16.3020
   580.42         16.2897
   580.56         16.2810
   580.70         16.2768
   580.84         16.2772
   580.98         16.2824
   581.12         16.2910
   581.26         16.3008
   581.40         16.3088
   581.54         16.3130
   581.68         16.3129
   581.82         16.3093
   581.96         16.3033
   582.10         16.2950
   582.24         16.2844
   582.38         16.2720
   582.52         16.2587
   582.66         16.2455
   582.80         16.2335
   582.94         16.2236
   583.08         16.2158
   583.22         16.2092
   583.36         16.2033
   583.50         16.1983
   583.64         16.1944
   583.78         16.1900
   583.92         16.1832
   584.06         16.1740
   584.20         16.1642
   584.34         16.1550
   584.48         16.1460
   584.62         16.1362
   584.76         16.1244
   584.90         16.1106
   585.04         16.0957
   585.18         16.0799
   585.32         16.0625
   585.46         16.0429
   585.60         16.0222
   585.74         16.0034
   585.88         15.9905
   586.02         15.9862
   586.16         15.9913
   586.30         16.0054
   586.44         16.0271
   586.58         16.0545
   586.72         16.0864
   586.86         16.1212
   587.00         16.1554
   587.14         16.1849
   587.28         16.2056
   587.42         16.2130
   587.56         16.2024
   587.70         16.1683
   587.84         16.1055
   587.98         16.0131
   588.12         15.8954
   588.26         15.7590
   588.40         15.6100
   588.54         15.4548
   588.68         15.3021
   588.82         15.1628
   588.96         15.0473
   589.10         14.9631
   589.24         14.9147
   589.38         14.9042
   589.52         14.9305
   589.66         14.9899
   589.80         15.0764
   589.94         15.1818
   590.08         15.2961
   590.22         15.4088
   590.36         15.5112
   590.50         15.5997
   590.64         15.6734
   590.78         15.7312
   590.92         15.7710
   591.06         15.7928
   591.20         15.8000
   591.34         15.7957
   591.48         15.7810
   591.62         15.7570
   591.76         15.7255
   591.90         15.6894
   592.04         15.6518
   592.18         15.6142
   592.32         15.5770
   592.46         15.5406
   592.60         15.5062
   592.74         15.4742
   592.88         15.4449
   593.02         15.4187
   593.16         15.3952
   593.30         15.3737
   593.44         15.3529
   593.58         15.3310
   593.72         15.3062
   593.86         15.2772
   594.00         15.2433
   594.14         15.2057
   594.28         15.1666
   594.42         15.1275
   594.56         15.0898
   594.70         15.0552
   594.84         15.0253
   594.98         15.0011
   595.12         14.9833
   595.26         14.9713
   595.40         14.9625
   595.54         14.9543
   595.68         14.9443
   595.82         14.9322
   595.96         14.9187
   596.10         14.9033
   596.24         14.8856
   596.38         14.8673
   596.52         14.8509
   596.66         14.8375
   596.80         14.8279
   596.94         14.8225
   597.08         14.8209
   597.22         14.8218
   597.36         14.8224
   597.50         14.8199
   597.64         14.8118
   597.78         14.7965
   597.92         14.7735
   598.06         14.7447
   598.20         14.7142
   598.34         14.6879
   598.48         14.6714
   598.62         14.6678
   598.76         14.6777
   598.90         14.7020
   599.04         14.7392
   599.18         14.7848
   599.32         14.8324
   599.46         14.8754
   599.60         14.9074
   599.74         14.9238
   599.88         14.9221
   600.02         14.9033
   600.16         14.8709
   600.30         14.8296
   600.44         14.7847
   600.58         14.7420
   600.72         14.7069
   600.86         14.6815
   601.00         14.6647
   601.14         14.6540
   601.28         14.6469
   601.42         14.6413
   601.56         14.6359
   601.70         14.6298
   601.84         14.6225
   601.98         14.6150
   602.12         14.6075
   602.26         14.6007
   602.40         14.5953
   602.54         14.5912
   602.68         14.5878
   602.82         14.5839
   602.96         14.5777
   603.10         14.5675
   603.24         14.5528
   603.38         14.5331
   603.52         14.5082
   603.66         14.4785
   603.80         14.4466
   603.94         14.4154
   604.08         14.3867
   604.22         14.3607
   604.36         14.3374
   604.50         14.3175
   604.64         14.3029
   604.78         14.2951
   604.92         14.2951
   605.06         14.3027
   605.20         14.3159
   605.34         14.3327
   605.48         14.3509
   605.62         14.3690
   605.76         14.3857
   605.90         14.3999
   606.04         14.4105
   606.18         14.4170
   606.32         14.4193
   606.46         14.4178
   606.60         14.4131
   606.74         14.4053
   606.88         14.3958
   607.02         14.3863
   607.16         14.3777
   607.30         14.3699
   607.44         14.3612
   607.58         14.3503
   607.72         14.3373
   607.86         14.3235
   608.00         14.3116
   608.14         14.3031
   608.28         14.2974
   608.42         14.2933
   608.56         14.2893
   608.70         14.2847
   608.84         14.2785
   608.98         14.2690
   609.12         14.2542
   609.26         14.2328
   609.40         14.2045
   609.54         14.1711
   609.68         14.1359
   609.82         14.1019
   609.96         14.0720
   610.10         14.0490
   610.24         14.0350
   610.38         14.0307
   610.52         14.0359
   610.66         14.0499
   610.80         14.0716
   610.94         14.0988
   611.08         14.1292
   611.22         14.1599
   611.36         14.1879
   611.50         14.2104
   611.64         14.2251
   611.78         14.2313
   611.92         14.2298
   612.06         14.2227
   612.20         14.2125
   612.34         14.2002
   612.48         14.1846
   612.62         14.1647
   612.76         14.1402
   612.90         14.1108
   613.04         14.0764
   613.18         14.0375
   613.32         13.9942
   613.46         13.9463
   613.60         13.8927
   613.74         13.8333
   613.88         13.7697
   614.02         13.7047
   614.16         13.6418
   614.30         13.5833
   614.44         13.5300
   614.58         13.4830
   614.72         13.4439
   614.86         13.4140
   615.00         13.3942
   615.14         13.3857
   615.28         13.3890
   615.42         13.4034
   615.56         13.4265
   615.70         13.4539
   615.84         13.4812
   615.98         13.5056
   616.12         13.5259
   616.26         13.5426
   616.40         13.5574
   616.54         13.5722
   616.68         13.5875
   616.82         13.6025
   616.96         13.6157
   617.10         13.6257
   617.24         13.6323
   617.38         13.6360
   617.52         13.6380
   617.66         13.6382
   617.80         13.6353
   617.94         13.6286
   618.08         13.6182
   618.22         13.6055
   618.36         13.5928
   618.50         13.5828
   618.64         13.5789
   618.78         13.5824
   618.92         13.5930
   619.06         13.6088
   619.20         13.6265
   619.34         13.6426
   619.48         13.6549
   619.62         13.6636
   619.76         13.6700
   619.90         13.6758
   620.04         13.6818
   620.18         13.6861
   620.32         13.6864
   620.46         13.6810
   620.60         13.6704
   620.74         13.6558
   620.88         13.6385
   621.02         13.6192
   621.16         13.5986
   621.30         13.5775
   621.44         13.5566
   621.58         13.5368
   621.72         13.5175
   621.86         13.4972
   622.00         13.4748
   622.14         13.4507
   622.28         13.4257
   622.42         13.3990
   622.56         13.3692
   622.70         13.3351
   622.84         13.2978
   622.98         13.2610
   623.12         13.2286
   623.26         13.2034
   623.40         13.1860
   623.54         13.1757
   623.68         13.1712
   623.82         13.1710
   623.96         13.1744
   624.10         13.1799
   624.24         13.1859
   624.38         13.1904
   624.52         13.1930
   624.66         13.1954
   624.80         13.1989
   624.94         13.2033
   625.08         13.2063
   625.22         13.2046
   625.36         13.1977
   625.50         13.1871
   625.64         13.1738
   625.78         13.1573
   625.92         13.1370
   626.06         13.1126
   626.20         13.0849
   626.34         13.0544
   626.48         13.0208
   626.62         12.9833
   626.76         12.9409
   626.90         12.8932
   627.04         12.8410
   627.18         12.7863
   627.32         12.7318
   627.46         12.6802
   627.60         12.6345
   627.74         12.5970
   627.88         12.5706
   628.02         12.5579
   628.16         12.5591
   628.30         12.5723
   628.44         12.5951
   628.58         12.6247
   628.72         12.6573
   628.86         12.6879
   629.00         12.7119
   629.14         12.7262
   629.28         12.7307
   629.42         12.7273
   629.56         12.7192
   629.70         12.7099
   629.84         12.7023
   629.98         12.6982
   630.12         12.6982
   630.26         12.7012
   630.40         12.7045
   630.54         12.7052
   630.68         12.7020
   630.82         12.6944
   630.96         12.6824
   631.10         12.6654
   631.24         12.6432
   631.38         12.6168
   631.52         12.5890
   631.66         12.5629
   631.80         12.5416
   631.94         12.5271
   632.08         12.5208
   632.22         12.5234
   632.36         12.5350
   632.50         12.5548
   632.64         12.5818
   632.78         12.6131
   632.92         12.6449
   633.06         12.6737
   633.20         12.6971
   633.34         12.7133
   633.48         12.7198
   633.62         12.7144
   633.76         12.6966
   633.90         12.6685
   634.04         12.6339
   634.18         12.5957
   634.32         12.5568
   634.46         12.5205
   634.60         12.4907
   634.74         12.4704
   634.88         12.4610
   635.02         12.4618
   635.16         12.4703
   635.30         12.4822
   635.44         12.4925
   635.58         12.4971
   635.72         12.4925
   635.86         12.4761
   636.00         12.4468
   636.14         12.4062
   636.28         12.3585
   636.42         12.3101
   636.56         12.2666
   636.70         12.2311
   636.84         12.2045
   636.98         12.1869
   637.12         12.1773
   637.26         12.1743
   637.40         12.1764
   637.54         12.1825
   637.68         12.1914
   637.82         12.2017
   637.96         12.2119
   638.10         12.2209
   638.24         12.2283
   638.38         12.2349
   638.52         12.2416
   638.66         12.2496
   638.80         12.2598
   638.94         12.2717
   639.08         12.2831
   639.22         12.2906
   639.36         12.2906
   639.50         12.2815
   639.64         12.2637
   639.78         12.2394
   639.92         12.2118
   640.06         12.1838
   640.20         12.1570
   640.34         12.1310
   640.48         12.1052
   640.62         12.0791
   640.76         12.0537
   640.90         12.0303
   641.04         12.0096
   641.18         11.9917
   641.32         11.9767
   641.46         11.9643
   641.60         11.9538
   641.74         11.9445
   641.88         11.9368
   642.02         11.9316
   642.16         11.9299
   642.30         11.9324
   642.44         11.9384
   642.58         11.9466
   642.72         11.9545
   642.86         11.9598
   643.00         11.9609
   643.14         11.9582
   643.28         11.9534
   643.42         11.9476
   643.56         11.9409
   643.70         11.9330
   643.84         11.9239
   643.98         11.9134
   644.12         11.9013
   644.26         11.8868
   644.40         11.8691
   644.54         11.8475
   644.68         11.8225
   644.82         11.7947
   644.96         11.7649
   645.10         11.7340
   645.24         11.7032
   645.38         11.6744
   645.52         11.6501
   645.66         11.6331
   645.80         11.6255
   645.94         11.6275
   646.08         11.6376
   646.22         11.6535
   646.36         11.6726
   646.50         11.6926
   646.64         11.7110
   646.78         11.7252
   646.92         11.7341
   647.06         11.7369
   647.20         11.7335
   647.34         11.7244
   647.48         11.7102
   647.62         11.6924
   647.76         11.6727
   647.90         11.6527
   648.04         11.6338
   648.18         11.6167
   648.32         11.6012
   648.46         11.5866
   648.60         11.5724
   648.74         11.5580
   648.88         11.5436
   649.02         11.5302
   649.16         11.5190
   649.30         11.5107
   649.44         11.5055
   649.58         11.5031
   649.72         11.5027
   649.86         11.5038
   650.00         11.5065
   650.14         11.5100
   650.28         11.5125
   650.42         11.5117
   650.56         11.5066
   650.70         11.4979
   650.84         11.4872
   650.98         11.4760
   651.12         11.4663
   651.26         11.4590
   651.40         11.4546
   651.54         11.4529
   651.68         11.4530
   651.82         11.4533
   651.96         11.4510
   652.10         11.4431
   652.24         11.4275
   652.38         11.4031
   652.52         11.3684
   652.66         11.3220
   652.80         11.2638
   652.94         11.1952
   653.08         11.1193
   653.22         11.0395
   653.36         10.9583
   653.50         10.8762
   653.64         10.7918
   653.78         10.7028
   653.92         10.6061
   654.06         10.4983
   654.20         10.3763
   654.34         10.2377
   654.48         10.0797
   654.62         9.8997
   654.76         9.6951
   654.90         9.4636
   655.04         9.2043
   655.18         8.9196
   655.32         8.6176
   655.46         8.3119
   655.60         8.0193
   655.74         7.7568
   655.88         7.5402
   656.02         7.3827
   656.16         7.2941
   656.30         7.2802
   656.44         7.3426
   656.58         7.4779
   656.72         7.6773
   656.86         7.9281
   657.00         8.2147
   657.14         8.5203
   657.28         8.8276
   657.42         9.1216
   657.56         9.3925
   657.70         9.6355
   657.84         9.8503
   657.98         10.0387
   658.12         10.2027
   658.26         10.3440
   658.40         10.4643
   658.54         10.5660
   658.68         10.6519
   658.82         10.7248
   658.96         10.7862
   659.10         10.8376
   659.24         10.8798
   659.38         10.9141
   659.52         10.9416
   659.66         10.9639
   659.80         10.9820
   659.94         10.9970
   660.08         11.0101
   660.22         11.0220
   660.36         11.0328
   660.50         11.0418
   660.64         11.0482
   660.78         11.0507
   660.92         11.0490
   661.06         11.0431
   661.20         11.0341
   661.34         11.0235
   661.48         11.0124
   661.62         11.0027
   661.76         10.9964
   661.90         10.9954
   662.04         11.0000
   662.18         11.0099
   662.32         11.0243
   662.46         11.0417
   662.60         11.0597
   662.74         11.0767
   662.88         11.0915
   663.02         11.1035
   663.16         11.1123
   663.30         11.1166
   663.44         11.1152
   663.58         11.1074
   663.72         11.0938
   663.86         11.0753
   664.00         11.0524
   664.14         11.0253
   664.28         10.9949
   664.42         10.9618
   664.56         10.9268
   664.70         10.8912
   664.84         10.8567
   664.98         10.8257
   665.12         10.7997
   665.26         10.7799
   665.40         10.7678
   665.54         10.7626
   665.68         10.7626
   665.82         10.7657
   665.96         10.7702
   666.10         10.7751
   666.24         10.7796
   666.38         10.7827
   666.52         10.7826
   666.66         10.7778
   666.80         10.7682
   666.94         10.7549
   667.08         10.7386
   667.22         10.7205
   667.36         10.7012
   667.50         10.6811
   667.64         10.6613
   667.78         10.6434
   667.92         10.6301
   668.06         10.6230
   668.20         10.6219
   668.34         10.6266
   668.48         10.6367
   668.62         10.6505
   668.76         10.6655
   668.90         10.6790
   669.04         10.6890
   669.18         10.6947
   669.32         10.6969
   669.46         10.6964
   669.60         10.6938
   669.74         10.6888
   669.88         10.6814
   670.02         10.6719
   670.16         10.6614
   670.30         10.6513
   670.44         10.6422
   670.58         10.6335
   670.72         10.6230
   670.86         10.6085
   671.00         10.5887
   671.14         10.5626
   671.28         10.5306
   671.42         10.4942
   671.56         10.4557
   671.70         10.4175
   671.84         10.3825
   671.98         10.3529
   672.12         10.3305
   672.26         10.3163
   672.40         10.3112
   672.54         10.3156
   672.68         10.3289
   672.82         10.3497
   672.96         10.3760
   673.10         10.4054
   673.24         10.4353
   673.38         10.4637
   673.52         10.4898
   673.66         10.5128
   673.80         10.5315
   673.94         10.5451
   674.08         10.5524
   674.22         10.5524
   674.36         10.5451
   674.50         10.5309
   674.64         10.5109
   674.78         10.4868
   674.92         10.4609
   675.06         10.4359
   675.20         10.4139
   675.34         10.3967
   675.48         10.3853
   675.62         10.3805
   675.76         10.3815
   675.90         10.3865
   676.04         10.3936
   676.18         10.4003
   676.32         10.4040
   676.46         10.4031
   676.60         10.3977
   676.74         10.3881
   676.88         10.3744
   677.02         10.3572
   677.16         10.3376
   677.30         10.3168
   677.44         10.2965
   677.58         10.2784
   677.72         10.2630
   677.86         10.2496
   678.00         10.2364
   678.14         10.2221
   678.28         10.2060
   678.42         10.1883
   678.56         10.1698
   678.70         10.1519
   678.84         10.1361
   678.98         10.1229
   679.12         10.1117
   679.26         10.1018
   679.40         10.0927
   679.54         10.0844
   679.68         10.0776
   679.82         10.0724
   679.96         10.0688
   680.10         10.0666
   680.24         10.0661
   680.38         10.0671
   680.52         10.0688
   680.66         10.0703
   680.80         10.0719
   680.94         10.0733
   681.08         10.0738
   681.22         10.0721
   681.36         10.0676
   681.50         10.0603
   681.64         10.0505
   681.78         10.0397
   681.92         10.0299
   682.06         10.0222
   682.20         10.0171
   682.34         10.0135
   682.48         10.0100
   682.62         10.0055
   682.76         9.9990
   682.90         9.9898
   683.04         9.9765
   683.18         9.9573
   683.32         9.9319
   683.46         9.9011
   683.60         9.8667
   683.74         9.8313
   683.88         9.7982
   684.02         9.7703
   684.16         9.7494
   684.30         9.7357
   684.44         9.7286
   684.58         9.7260
   684.72         9.7251
   684.86         9.7241
   685.00         9.7215
   685.14         9.7166
   685.28         9.7081
   685.42         9.6926
   685.56         9.6632
   685.70         9.6112
   685.84         9.5295
   685.98         9.4142
   686.12         9.2648
   686.26         9.0844
   686.40         8.8802
   686.54         8.6631
   686.68         8.4464
   686.82         8.2449
   686.96         8.0733
   687.10         7.9448
   687.24         7.8679
   687.38         7.8455
   687.52         7.8746
   687.66         7.9464
   687.80         8.0474
   687.94         8.1614
   688.08         8.2726
   688.22         8.3685
   688.36         8.4431
   688.50         8.4962
   688.64         8.5312
   688.78         8.5531
   688.92         8.5682
   689.06         8.5827
   689.20         8.6011
   689.34         8.6261
   689.48         8.6590
   689.62         8.6988
   689.76         8.7424
   689.90         8.7863
   690.04         8.8282
   690.18         8.8669
   690.32         8.9024
   690.46         8.9358
   690.60         8.9684
   690.74         9.0013
   690.88         9.0356
   691.02         9.0714
   691.16         9.1073
   691.30         9.1410
   691.44         9.1704
   691.58         9.1942
   691.72         9.2114
   691.86         9.2218
   692.00         9.2265
   692.14         9.2268
   692.28         9.2243
   692.42         9.2212
   692.56         9.2203
   692.70         9.2229
   692.84         9.2290
   692.98         9.2380
   693.12         9.2494
   693.26         9.2623
   693.40         9.2763
   693.54         9.2908
   693.68         9.3048
   693.82         9.3177
   693.96         9.3306
   694.10         9.3448
   694.24         9.3602
   694.38         9.3762
   694.52         9.3922
   694.66         9.4077
   694.80         9.4214
   694.94         9.4324
   695.08         9.4394
   695.22         9.4415
   695.36         9.4381
   695.50         9.4298
   695.64         9.4178
   695.78         9.4037
   695.92         9.3893
   696.06         9.3762
   696.20         9.3656
   696.34         9.3585
   696.48         9.3559
   696.62         9.3576
   696.76         9.3628
   696.90         9.3705
   697.04         9.3807
   697.18         9.3931
   697.32         9.4067
   697.46         9.4205
   697.60         9.4328
   697.74         9.4419
   697.88         9.4468
   698.02         9.4475
   698.16         9.4442
   698.30         9.4373
   698.44         9.4269
   698.58         9.4138
   698.72         9.3988
   698.86         9.3825
   699.00         9.3651
   699.14         9.3461
   699.28         9.3250
   699.42         9.3026
   699.56         9.2803
   699.70         9.2593
   699.84         9.2405
   699.98         9.2244
   700.12         9.2117
   700.26         9.2028
   700.40         9.1979
   700.54         9.1966
   700.68         9.1986
   700.82         9.2027
   700.96         9.2075
   701.10         9.2122
   701.24         9.2164
   701.38         9.2196
   701.52         9.2212
   701.66         9.2210
   701.80         9.2192
   701.94         9.2165
   702.08         9.2141
   702.22         9.2134
   702.36         9.2158
   702.50         9.2212
   702.64         9.2285
   702.78         9.2360
   702.92         9.2419
   703.06         9.2447
   703.20         9.2436
   703.34         9.2384
   703.48         9.2294
   703.62         9.2175
   703.76         9.2045
   703.90         9.1917
   704.04         9.1799
   704.18         9.1698
   704.32         9.1619
   704.46         9.1561
   704.60         9.1522
   704.74         9.1499
   704.88         9.1485
   705.02         9.1467
   705.16         9.1431
   705.30         9.1371
   705.44         9.1290
   705.58         9.1186
   705.72         9.1059
   705.86         9.0911
   706.00         9.0752
   706.14         9.0600
   706.28         9.0471
   706.42         9.0379
   706.56         9.0322
   706.70         9.0283
   706.84         9.0246
   706.98         9.0202
   707.12         9.0144
   707.26         9.0071
   707.40         8.9984
   707.54         8.9881
   707.68         8.9764
   707.82         8.9629
   707.96         8.9464
   708.10         8.9254
   708.24         8.8997
   708.38         8.8715
   708.52         8.8438
   708.66         8.8192
   708.80         8.7997
   708.94         8.7860
   709.08         8.7773
   709.22         8.7722
   709.36         8.7693
   709.50         8.7679
   709.64         8.7680
   709.78         8.7688
   709.92         8.7694
   710.06         8.7690
   710.20         8.7666
   710.34         8.7615
   710.48         8.7540
   710.62         8.7445
   710.76         8.7333
   710.90         8.7213
   711.04         8.7093
   711.18         8.6976
   711.32         8.6868
   711.46         8.6788
   711.60         8.6746
   711.74         8.6757
   711.88         8.6838
   712.02         8.7007
   712.16         8.7267
   712.30         8.7607
   712.44         8.8016
   712.58         8.8477
   712.72         8.8966
   712.86         8.9453
   713.00         8.9911
   713.14         9.0310
   713.28         9.0616
   713.42         9.0801
   713.56         9.0849
   713.70         9.0752
   713.84         9.0525
   713.98         9.0197
   714.12         8.9808
   714.26         8.9396
   714.40         8.8999
   714.54         8.8655
   714.68         8.8386
   714.82         8.8201
   714.96         8.8108
   715.10         8.8105
   715.24         8.8176
   715.38         8.8294
   715.52         8.8426
   715.66         8.8536
   715.80         8.8587
   715.94         8.8551
   716.08         8.8408
   716.22         8.8155
   716.36         8.7805
   716.50         8.7376
   716.64         8.6886
   716.78         8.6353
   716.92         8.5792
   717.06         8.5212
   717.20         8.4623
   717.34         8.4021
   717.48         8.3404
   717.62         8.2793
   717.76         8.2218
   717.90         8.1698
   718.04         8.1237
   718.18         8.0838
   718.32         8.0508
   718.46         8.0254
   718.60         8.0079
   718.74         7.9976
   718.88         7.9932
   719.02         7.9931
   719.16         7.9961
   719.30         8.0014
   719.44         8.0079
   719.58         8.0148
   719.72         8.0227
   719.86         8.0328
   720.00         8.0473
   720.14         8.0704
   720.28         8.1067
   720.42         8.1573
   720.56         8.2204
   720.70         8.2930
   720.84         8.3728
   720.98         8.4558
   721.12         8.5362
   721.26         8.6079
   721.40         8.6662
   721.54         8.7078
   721.68         8.7315
   721.82         8.7372
   721.96         8.7258
   722.10         8.6987
   722.24         8.6587
   722.38         8.6089
   722.52         8.5533
   722.66         8.4961
   722.80         8.4404
   722.94         8.3870
   723.08         8.3356
   723.22         8.2863
   723.36         8.2400
   723.50         8.1986
   723.64         8.1640
   723.78         8.1378
   723.92         8.1200
   724.06         8.1090
   724.20         8.1027
   724.34         8.1005
   724.48         8.1029
   724.62         8.1100
   724.76         8.1219
   724.90         8.1384
   725.04         8.1588
   725.18         8.1808
   725.32         8.2002
   725.46         8.2133
   725.60         8.2177
   725.74         8.2125
   725.88         8.1984
   726.02         8.1768
   726.16         8.1490
   726.30         8.1160
   726.44         8.0789
   726.58         8.0394
   726.72         8.0001
   726.86         7.9650
   727.00         7.9382
   727.14         7.9214
   727.28         7.9149
   727.42         7.9177
   727.56         7.9270
   727.70         7.9395
   727.84         7.9517
   727.98         7.9608
   728.12         7.9653
   728.26         7.9653
   728.40         7.9609
   728.54         7.9520
   728.68         7.9382
   728.82         7.9188
   728.96         7.8936
   729.10         7.8634
   729.24         7.8298
   729.38         7.7964
   729.52         7.7667
   729.66         7.7431
   729.80         7.7261
   729.94         7.7156
   730.08         7.7109
   730.22         7.7113
   730.36         7.7165
   730.50         7.7259
   730.64         7.7390
   730.78         7.7554
   730.92         7.7737
   731.06         7.7917
   731.20         7.8079
   731.34         7.8216
   731.48         7.8325
   731.62         7.8408
   731.76         7.8467
   731.90         7.8506
   732.04         7.8518
   732.18         7.8493
   732.32         7.8423
   732.46         7.8316
   732.60         7.8191
   732.74         7.8062
   732.88         7.7934
   733.02         7.7806
   733.16         7.7690
   733.30         7.7603
   733.44         7.7563
   733.58         7.7583
   733.72         7.7672
   733.86         7.7823
   734.00         7.8017
   734.14         7.8231
   734.28         7.8437
   734.42         7.8611
   734.56         7.8733
   734.70         7.8790
   734.84         7.8765
   734.98         7.8654
   735.12         7.8470
   735.26         7.8228
   735.40         7.7940
   735.54         7.7620
   735.68         7.7294
   735.82         7.6982
   735.96         7.6691
   736.10         7.6412
   736.24         7.6130
   736.38         7.5830
   736.52         7.5505
   736.66         7.5163
   736.80         7.4819
   736.94         7.4491
   737.08         7.4196
   737.22         7.3949
   737.36         7.3761
   737.50         7.3634
   737.64         7.3571
   737.78         7.3566
   737.92         7.3603
   738.06         7.3661
   738.20         7.3724
   738.34         7.3772
   738.48         7.3782
   738.62         7.3741
   738.76         7.3649
   738.90         7.3516
   739.04         7.3355
   739.18         7.3187
   739.32         7.3027
   739.46         7.2881
   739.60         7.2752
   739.74         7.2642
   739.88         7.2545
   740.02         7.2451
   740.16         7.2352
   740.30         7.2245
   740.44         7.2134
   740.58         7.2027
   740.72         7.1935
   740.86         7.1871
   741.00         7.1843
   741.14         7.1858
   741.28         7.1921
   741.42         7.2024
   741.56         7.2155
   741.70         7.2299
   741.84         7.2440
   741.98         7.2566
   742.12         7.2668
   742.26         7.2745
   742.40         7.2797
   742.54         7.2826
   742.68         7.2839
   742.82         7.2843
   742.96         7.2843
   743.10         7.2839
   743.24         7.2826
   743.38         7.2797
   743.52         7.2745
   743.66         7.2668
   743.80         7.2566
   743.94         7.2440
   744.08         7.2299
   744.22         7.2155
