# File HD227018
# Wavelength [nm]    Normalized Amplitude
   349.70         452.5886
   349.84         453.3126
   349.98         453.5904
   350.12         453.4182
   350.26         452.8375
   350.40         451.9638
   350.54         450.9983
   350.68         450.1472
   350.82         449.5291
   350.96         449.1661
   351.10         449.0460
   351.24         449.1661
   351.38         449.5291
   351.52         450.1472
   351.66         450.9983
   351.80         451.9638
   351.94         452.8375
   352.08         453.4182
   352.22         453.5904
   352.36         453.3126
   352.50         452.5886
   352.64         451.4247
   352.78         449.8378
   352.92         447.8972
   353.06         445.7362
   353.20         443.5209
   353.34         441.3976
   353.48         439.4948
   353.62         437.9235
   353.76         436.7533
   353.90         435.9718
   354.04         435.4836
   354.18         435.1424
   354.32         434.7879
   354.46         434.2800
   354.60         433.4933
   354.74         432.3243
   354.88         430.7088
   355.02         428.6357
   355.16         426.1596
   355.30         423.3888
   355.44         420.4709
   355.58         417.6005
   355.72         414.9967
   355.86         412.8245
   356.00         411.1458
   356.14         409.9442
   356.28         409.1898
   356.42         408.8504
   356.56         408.8686
   356.70         409.1418
   356.84         409.5037
   356.98         409.7473
   357.12         409.6853
   357.26         409.1935
   357.40         408.2435
   357.54         406.9094
   357.68         405.3165
   357.82         403.6013
   357.96         401.8995
   358.10         400.3205
   358.24         398.9290
   358.38         397.7541
   358.52         396.8113
   358.66         396.0999
   358.80         395.5857
   358.94         395.2036
   359.08         394.8745
   359.22         394.5320
   359.36         394.1372
   359.50         393.6690
   359.64         393.1289
   359.78         392.5703
   359.92         392.0744
   360.06         391.7023
   360.20         391.4842
   360.34         391.3979
   360.48         391.3861
   360.62         391.3869
   360.76         391.3279
   360.90         391.1383
   361.04         390.7929
   361.18         390.3135
   361.32         389.7231
   361.46         389.0250
   361.60         388.2467
   361.74         387.4552
   361.88         386.6874
   362.02         385.9175
   362.16         385.0981
   362.30         384.2250
   362.44         383.3591
   362.58         382.5502
   362.72         381.8008
   362.86         381.1069
   363.00         380.4767
   363.14         379.9407
   363.28         379.5307
   363.42         379.2501
   363.56         379.0897
   363.70         379.0242
   363.84         379.0001
   363.98         378.9413
   364.12         378.7723
   364.26         378.4635
   364.40         378.0382
   364.54         377.5464
   364.68         377.0582
   364.82         376.6416
   364.96         376.3301
   365.10         376.1008
   365.24         375.8739
   365.38         375.5732
   365.52         375.1385
   365.66         374.5124
   365.80         373.6890
   365.94         372.7224
   366.08         371.6857
   366.22         370.6236
   366.36         369.5177
   366.50         368.3289
   366.64         367.0396
   366.78         365.6819
   366.92         364.3418
   367.06         363.1116
   367.20         362.0568
   367.34         361.1787
   367.48         360.4246
   367.62         359.7361
   367.76         359.0732
   367.90         358.4161
   368.04         357.7503
   368.18         357.0522
   368.32         356.3242
   368.46         355.5954
   368.60         354.8589
   368.74         354.0727
   368.88         353.1775
   369.02         352.1222
   369.16         350.9124
   369.30         349.6142
   369.44         348.3278
   369.58         347.1327
   369.72         346.0352
   369.86         344.9881
   370.00         343.9390
   370.14         342.8647
   370.28         341.7683
   370.42         340.6872
   370.56         339.6873
   370.70         338.8209
   370.84         338.1234
   370.98         337.6276
   371.12         337.3519
   371.26         337.3007
   371.40         337.4822
   371.54         337.8894
   371.68         338.5053
   371.82         339.3395
   371.96         340.4077
   372.10         341.6834
   372.24         343.0564
   372.38         344.3321
   372.52         345.3287
   372.66         345.9587
   372.80         346.2253
   372.94         346.1950
   373.08         345.9576
   373.22         345.5896
   373.36         345.1328
   373.50         344.6164
   373.64         344.0638
   373.78         343.4711
   373.92         342.8212
   374.06         342.0942
   374.20         341.2381
   374.34         340.1655
   374.48         338.7643
   374.62         336.9138
   374.76         334.5485
   374.90         331.7219
   375.04         328.6393
   375.18         325.6131
   375.32         322.9591
   375.46         320.9037
   375.60         319.5283
   375.74         318.7672
   375.88         318.4531
   376.02         318.3741
   376.16         318.3600
   376.30         318.3109
   376.44         318.2174
   376.58         318.1822
   376.72         318.3401
   376.86         318.7873
   377.00         319.5851
   377.14         320.7730
   377.28         322.3840
   377.42         324.4439
   377.56         326.9287
   377.70         329.7293
   377.84         332.6512
   377.98         335.4447
   378.12         337.8222
   378.26         339.4984
   378.40         340.2350
   378.54         339.8775
   378.68         338.4107
   378.82         335.9874
   378.96         332.9066
   379.10         329.5712
   379.24         326.3891
   379.38         323.6745
   379.52         321.6578
   379.66         320.4989
   379.80         320.2668
   379.94         320.9586
   380.08         322.5161
   380.22         324.8086
   380.36         327.6291
   380.50         330.7201
   380.64         333.7950
   380.78         336.5600
   380.92         338.7688
   381.06         340.2786
   381.20         341.0947
   381.34         341.3661
   381.48         341.2999
   381.62         341.0588
   381.76         340.6996
   381.90         340.1662
   382.04         339.3387
   382.18         338.0648
   382.32         336.1647
   382.46         333.5018
   382.60         330.0735
   382.74         326.0206
   382.88         321.5837
   383.02         317.0681
   383.16         312.8037
   383.30         309.1029
   383.44         306.2279
   383.58         304.3755
   383.72         303.6645
   383.86         304.1166
   384.00         305.6302
   384.14         307.9694
   384.28         310.8177
   384.42         313.8486
   384.56         316.7503
   384.70         319.2314
   384.84         321.0601
   384.98         322.1452
   385.12         322.5641
   385.26         322.4939
   385.40         322.1157
   385.54         321.5549
   385.68         320.8761
   385.82         320.1101
   385.96         319.2788
   386.10         318.4035
   386.24         317.5091
   386.38         316.6286
   386.52         315.7927
   386.66         315.0027
   386.80         314.2356
   386.94         313.4725
   387.08         312.6888
   387.22         311.8193
   387.36         310.7580
   387.50         309.3930
   387.64         307.6168
   387.78         305.3348
   387.92         302.4993
   388.06         299.1554
   388.20         295.4647
   388.34         291.6880
   388.48         288.1370
   388.62         285.1200
   388.76         282.8917
   388.90         281.6216
   389.04         281.3991
   389.18         282.2293
   389.32         284.0155
   389.46         286.5705
   389.60         289.6440
   389.74         292.9388
   389.88         296.1422
   390.02         298.9676
   390.16         301.1990
   390.30         302.7353
   390.44         303.6093
   390.58         303.9458
   390.72         303.8950
   390.86         303.5898
   391.00         303.1262
   391.14         302.5681
   391.28         301.9648
   391.42         301.3560
   391.56         300.7676
   391.70         300.2137
   391.84         299.6803
   391.98         299.1098
   392.12         298.4153
   392.26         297.5255
   392.40         296.4272
   392.54         295.1820
   392.68         293.9022
   392.82         292.7254
   392.96         291.7989
   393.10         291.2357
   393.24         291.0828
   393.38         291.3150
   393.52         291.8412
   393.66         292.5371
   393.80         293.2687
   393.94         293.9063
   394.08         294.3387
   394.22         294.4814
   394.36         294.2927
   394.50         293.7684
   394.64         292.9318
   394.78         291.8562
   394.92         290.6568
   395.06         289.4187
   395.20         288.1412
   395.34         286.7305
   395.48         285.0293
   395.62         282.8502
   395.76         280.0011
   395.90         276.3531
   396.04         271.9207
   396.18         266.9012
   396.32         261.6334
   396.46         256.5131
   396.60         251.9401
   396.74         248.2761
   396.88         245.8030
   397.02         244.6799
   397.16         244.9299
   397.30         246.4555
   397.44         249.0469
   397.58         252.4047
   397.72         256.1875
   397.86         260.0577
   398.00         263.7084
   398.14         266.9006
   398.28         269.4886
   398.42         271.4387
   398.56         272.8317
   398.70         273.8024
   398.84         274.4563
   398.98         274.8388
   399.12         274.9797
   399.26         274.9229
   399.40         274.7209
   399.54         274.4239
   399.68         274.0626
   399.82         273.6556
   399.96         273.2037
   400.10         272.6971
   400.24         272.1353
   400.38         271.5189
   400.52         270.8426
   400.66         270.0990
   400.80         269.3012
   400.94         268.4861
   401.08         267.6768
   401.22         266.8651
   401.36         266.0182
   401.50         265.0941
   401.64         264.0678
   401.78         262.9446
   401.92         261.7512
   402.06         260.5190
   402.20         259.2783
   402.34         258.0684
   402.48         256.9421
   402.62         255.9599
   402.76         255.1959
   402.90         254.7300
   403.04         254.6119
   403.18         254.8409
   403.32         255.3771
   403.46         256.1530
   403.60         257.0607
   403.74         257.9590
   403.88         258.7319
   404.02         259.3196
   404.16         259.7096
   404.30         259.9213
   404.44         259.9838
   404.58         259.9135
   404.72         259.7132
   404.86         259.3890
   405.00         258.9592
   405.14         258.4518
   405.28         257.9027
   405.42         257.3394
   405.56         256.7654
   405.70         256.1514
   405.84         255.4531
   405.98         254.6479
   406.12         253.7422
   406.26         252.7595
   406.40         251.7276
   406.54         250.6725
   406.68         249.6235
   406.82         248.6141
   406.96         247.6791
   407.10         246.8663
   407.24         246.2223
   407.38         245.7679
   407.52         245.4873
   407.66         245.3270
   407.80         245.2106
   407.94         245.0504
   408.08         244.7550
   408.22         244.2536
   408.36         243.5041
   408.50         242.4788
   408.64         241.1459
   408.78         239.4451
   408.92         237.2801
   409.06         234.5571
   409.20         231.2608
   409.34         227.5080
   409.48         223.5210
   409.62         219.5740
   409.76         215.9550
   409.90         212.9329
   410.04         210.7472
   410.18         209.5871
   410.32         209.5589
   410.46         210.6612
   410.60         212.7732
   410.74         215.6801
   410.88         219.1023
   411.02         222.7105
   411.16         226.1584
   411.30         229.1385
   411.44         231.4400
   411.58         232.9798
   411.72         233.8093
   411.86         234.0902
   412.00         234.0241
   412.14         233.7808
   412.28         233.4893
   412.42         233.2485
   412.56         233.1305
   412.70         233.1744
   412.84         233.3715
   412.98         233.6682
   413.12         233.9894
   413.26         234.2704
   413.40         234.4656
   413.54         234.5341
   413.68         234.4418
   413.82         234.1778
   413.96         233.7445
   414.10         233.1519
   414.24         232.4205
   414.38         231.5893
   414.52         230.7173
   414.66         229.8664
   414.80         229.0931
   414.94         228.4441
   415.08         227.9369
   415.22         227.5611
   415.36         227.2900
   415.50         227.0862
   415.64         226.9133
   415.78         226.7475
   415.92         226.5811
   416.06         226.4078
   416.20         226.2137
   416.34         225.9957
   416.48         225.7610
   416.62         225.5118
   416.76         225.2514
   416.90         224.9844
   417.04         224.7115
   417.18         224.4249
   417.32         224.1043
   417.46         223.7248
   417.60         223.2643
   417.74         222.7141
   417.88         222.0908
   418.02         221.4185
   418.16         220.7125
   418.30         219.9806
   418.44         219.2191
   418.58         218.4045
   418.72         217.4953
   418.86         216.4568
   419.00         215.2845
   419.14         213.9929
   419.28         212.6148
   419.42         211.2150
   419.56         209.8788
   419.70         208.6996
   419.84         207.7610
   419.98         207.1230
   420.12         206.8220
   420.26         206.8702
   420.40         207.2473
   420.54         207.8843
   420.68         208.6673
   420.82         209.4744
   420.96         210.2061
   421.10         210.7888
   421.24         211.1793
   421.38         211.3699
   421.52         211.3861
   421.66         211.2712
   421.80         211.0698
   421.94         210.8256
   422.08         210.5814
   422.22         210.3678
   422.36         210.2064
   422.50         210.1136
   422.64         210.1036
   422.78         210.1806
   422.92         210.3332
   423.06         210.5447
   423.20         210.8003
   423.34         211.0926
   423.48         211.4240
   423.62         211.7914
   423.76         212.1698
   423.90         212.5198
   424.04         212.7988
   424.18         212.9617
   424.32         212.9686
   424.46         212.7943
   424.60         212.4328
   424.74         211.8990
   424.88         211.2295
   425.02         210.4822
   425.16         209.7227
   425.30         209.0070
   425.44         208.3712
   425.58         207.8397
   425.72         207.4308
   425.86         207.1393
   426.00         206.9294
   426.14         206.7477
   426.28         206.5398
   426.42         206.2670
   426.56         205.9185
   426.70         205.4991
   426.84         205.0179
   426.98         204.4999
   427.12         203.9901
   427.26         203.5392
   427.40         203.1936
   427.54         202.9839
   427.68         202.9014
   427.82         202.9057
   427.96         202.9514
   428.10         202.9946
   428.24         203.0055
   428.38         202.9760
   428.52         202.9131
   428.66         202.8337
   428.80         202.7589
   428.94         202.7060
   429.08         202.6831
   429.22         202.6816
   429.36         202.6734
   429.50         202.6206
   429.64         202.4957
   429.78         202.2871
   429.92         201.9836
   430.06         201.5811
   430.20         201.0924
   430.34         200.5381
   430.48         199.9543
   430.62         199.3863
   430.76         198.8745
   430.90         198.4540
   431.04         198.1456
   431.18         197.9466
   431.32         197.8338
   431.46         197.7814
   431.60         197.7701
   431.74         197.7750
   431.88         197.7528
   432.02         197.6544
   432.16         197.4390
   432.30         197.0731
   432.44         196.5164
   432.58         195.7078
   432.72         194.5600
   432.86         192.9661
   433.00         190.8395
   433.14         188.1783
   433.28         185.0941
   433.42         181.7920
   433.56         178.5242
   433.70         175.5528
   433.84         173.1311
   433.98         171.4725
   434.12         170.7220
   434.26         170.9436
   434.40         172.1146
   434.54         174.1287
   434.68         176.8051
   434.82         179.9059
   434.96         183.1578
   435.10         186.2836
   435.24         189.0323
   435.38         191.2158
   435.52         192.7528
   435.66         193.6765
   435.80         194.0962
   435.94         194.1442
   436.08         193.9462
   436.22         193.6097
   436.36         193.2207
   436.50         192.8417
   436.64         192.5065
   436.78         192.2280
   436.92         192.0074
   437.06         191.8331
   437.20         191.6866
   437.34         191.5529
   437.48         191.4209
   437.62         191.2646
   437.76         191.0435
   437.90         190.7266
   438.04         190.3087
   438.18         189.8158
   438.32         189.2969
   438.46         188.8050
   438.60         188.3880
   438.74         188.0825
   438.88         187.8976
   439.02         187.8143
   439.16         187.8047
   439.30         187.8412
   439.44         187.8932
   439.58         187.9322
   439.72         187.9323
   439.86         187.8651
   440.00         187.7017
   440.14         187.4219
   440.28         187.0196
   440.42         186.5158
   440.56         185.9514
   440.70         185.3575
   440.84         184.7561
   440.98         184.1631
   441.12         183.5810
   441.26         183.0043
   441.40         182.4200
   441.54         181.8044
   441.68         181.1272
   441.82         180.3582
   441.96         179.4823
   442.10         178.5138
   442.24         177.4902
   442.38         176.4602
   442.52         175.4850
   442.66         174.6265
   442.80         173.9227
   442.94         173.3849
   443.08         173.0155
   443.22         172.8116
   443.36         172.7616
   443.50         172.8464
   443.64         173.0325
   443.78         173.2746
   443.92         173.5306
   444.06         173.7690
   444.20         173.9720
   444.34         174.1332
   444.48         174.2525
   444.62         174.3385
   444.76         174.4034
   444.90         174.4495
   445.04         174.4701
   445.18         174.4502
   445.32         174.3642
   445.46         174.1861
   445.60         173.9070
   445.74         173.5279
   445.88         173.0345
   446.02         172.3952
   446.16         171.5896
   446.30         170.6354
   446.44         169.5921
   446.58         168.5423
   446.72         167.5698
   446.86         166.7373
   447.00         166.0724
   447.14         165.5767
   447.28         165.2479
   447.42         165.0904
   447.56         165.1042
   447.70         165.2722
   447.84         165.5589
   447.98         165.9221
   448.12         166.3140
   448.26         166.6771
   448.40         166.9535
   448.54         167.1010
   448.68         167.1064
   448.82         166.9880
   448.96         166.7796
   449.10         166.5093
   449.24         166.1979
   449.38         165.8640
   449.52         165.5295
   449.66         165.2273
   449.80         164.9976
   449.94         164.8760
   450.08         164.8808
   450.22         165.0026
   450.36         165.2014
   450.50         165.4243
   450.64         165.6255
   450.78         165.7611
   450.92         165.7918
   451.06         165.7051
   451.20         165.5071
   451.34         165.2102
   451.48         164.8390
   451.62         164.4233
   451.76         163.9904
   451.90         163.5665
   452.04         163.1752
   452.18         162.8329
   452.32         162.5422
   452.46         162.2850
   452.60         162.0303
   452.74         161.7425
   452.88         161.3776
   453.02         160.8821
   453.16         160.2150
   453.30         159.3683
   453.44         158.3661
   453.58         157.2667
   453.72         156.1576
   453.86         155.1329
   454.00         154.2796
   454.14         153.6673
   454.28         153.3371
   454.42         153.3070
   454.56         153.5735
   454.70         154.1106
   454.84         154.8708
   454.98         155.7875
   455.12         156.7762
   455.26         157.7472
   455.40         158.6254
   455.54         159.3607
   455.68         159.9344
   455.82         160.3611
   455.96         160.6707
   456.10         160.8907
   456.24         161.0408
   456.38         161.1287
   456.52         161.1534
   456.66         161.1109
   456.80         160.9966
   456.94         160.8186
   457.08         160.6017
   457.22         160.3769
   457.36         160.1754
   457.50         160.0179
   457.64         159.9024
   457.78         159.8109
   457.92         159.7287
   458.06         159.6512
   458.20         159.5724
   458.34         159.4781
   458.48         159.3513
   458.62         159.1756
   458.76         158.9356
   458.90         158.6159
   459.04         158.2085
   459.18         157.7259
   459.32         157.2009
   459.46         156.6692
   459.60         156.1689
   459.74         155.7377
   459.88         155.3970
   460.02         155.1528
   460.16         155.0021
   460.30         154.9395
   460.44         154.9611
   460.58         155.0570
   460.72         155.2029
   460.86         155.3656
   461.00         155.5180
   461.14         155.6390
   461.28         155.7066
   461.42         155.7054
   461.56         155.6340
   461.70         155.5000
   461.84         155.3146
   461.98         155.0835
   462.12         154.8056
   462.26         154.4855
   462.40         154.1394
   462.54         153.7937
   462.68         153.4847
   462.82         153.2492
   462.96         153.1078
   463.10         153.0595
   463.24         153.0826
   463.38         153.1310
   463.52         153.1446
   463.66         153.0670
   463.80         152.8502
   463.94         152.4620
   464.08         151.9021
   464.22         151.1962
   464.36         150.3856
   464.50         149.5256
   464.64         148.6814
   464.78         147.9219
   464.92         147.3114
   465.06         146.8986
   465.20         146.7045
   465.34         146.7139
   465.48         146.8780
   465.62         147.1309
   465.76         147.4060
   465.90         147.6455
   466.04         147.8120
   466.18         147.8956
   466.32         147.9114
   466.46         147.8835
   466.60         147.8285
   466.74         147.7524
   466.88         147.6512
   467.02         147.5184
   467.16         147.3333
   467.30         147.0421
   467.44         146.5742
   467.58         145.8810
   467.72         144.9609
   467.86         143.8599
   468.00         142.6604
   468.14         141.4593
   468.28         140.3568
   468.42         139.4570
   468.56         138.8548
   468.70         138.6149
   468.84         138.7579
   468.98         139.2665
   469.12         140.0906
   469.26         141.1541
   469.40         142.3661
   469.54         143.6226
   469.68         144.8073
   469.82         145.8042
   469.96         146.5270
   470.10         146.9462
   470.24         147.0882
   470.38         147.0107
   470.52         146.7684
   470.66         146.4002
   470.80         145.9369
   470.94         145.4158
   471.08         144.8865
   471.22         144.3948
   471.36         143.9695
   471.50         143.6264
   471.64         143.3696
   471.78         143.1908
   471.92         143.0725
   472.06         142.9854
   472.20         142.8964
   472.34         142.7800
   472.48         142.6219
   472.62         142.4192
   472.76         142.1779
   472.90         141.9127
   473.04         141.6413
   473.18         141.3707
   473.32         141.1023
   473.46         140.8385
   473.60         140.5869
   473.74         140.3537
   473.88         140.1356
   474.02         139.9259
   474.16         139.7203
   474.30         139.5143
   474.44         139.2987
   474.58         139.0656
   474.72         138.8122
   474.86         138.5363
   475.00         138.2341
   475.14         137.9075
   475.28         137.5669
   475.42         137.2193
   475.56         136.8733
   475.70         136.5440
   475.84         136.2460
   475.98         135.9891
   476.12         135.7789
   476.26         135.6241
   476.40         135.5289
   476.54         135.4812
   476.68         135.4574
   476.82         135.4316
   476.96         135.3871
   477.10         135.3184
   477.24         135.2303
   477.38         135.1284
   477.52         135.0116
   477.66         134.8794
   477.80         134.7392
   477.94         134.6037
   478.08         134.4916
   478.22         134.4275
   478.36         134.4288
   478.50         134.4924
   478.64         134.6005
   478.78         134.7357
   478.92         134.8812
   479.06         135.0052
   479.20         135.0639
   479.34         135.0314
   479.48         134.9094
   479.62         134.7092
   479.76         134.4408
   479.90         134.1116
   480.04         133.7356
   480.18         133.3421
   480.32         132.9684
   480.46         132.6490
   480.60         132.4122
   480.74         132.2750
   480.88         132.2352
   481.02         132.2651
   481.16         132.3219
   481.30         132.3678
   481.44         132.3784
   481.58         132.3329
   481.72         132.2097
   481.86         132.0047
   482.00         131.7379
   482.14         131.4391
   482.28         131.1406
   482.42         130.8722
   482.56         130.6561
   482.70         130.5131
   482.84         130.4511
   482.98         130.4479
   483.12         130.4552
   483.26         130.4187
   483.40         130.2927
   483.54         130.0478
   483.68         129.6732
   483.82         129.1837
   483.96         128.6212
   484.10         128.0343
   484.24         127.4548
   484.38         126.8945
   484.52         126.3486
   484.66         125.7801
   484.80         125.1053
   484.94         124.2094
   485.08         122.9813
   485.22         121.3551
   485.36         119.3404
   485.50         117.0242
   485.64         114.5561
   485.78         112.1316
   485.92         109.9729
   486.06         108.2954
   486.20         107.2681
   486.34         106.9823
   486.48         107.4392
   486.62         108.5590
   486.76         110.1987
   486.90         112.1741
   487.04         114.2784
   487.18         116.3050
   487.32         118.0711
   487.46         119.4438
   487.60         120.3758
   487.74         120.9066
   487.88         121.1276
   488.02         121.1492
   488.16         121.0711
   488.30         120.9600
   488.44         120.8568
   488.58         120.7869
   488.72         120.7582
   488.86         120.7620
   489.00         120.7758
   489.14         120.7803
   489.28         120.7730
   489.42         120.7618
   489.56         120.7533
   489.70         120.7479
   489.84         120.7532
   489.98         120.7842
   490.12         120.8502
   490.26         120.9574
   490.40         121.0983
   490.54         121.2533
   490.68         121.4088
   490.82         121.5570
   490.96         121.6813
   491.10         121.7585
   491.24         121.7705
   491.38         121.7100
   491.52         121.5822
   491.66         121.4026
   491.80         121.1994
   491.94         121.0064
   492.08         120.8492
   492.22         120.7430
   492.36         120.6927
   492.50         120.6944
   492.64         120.7254
   492.78         120.7503
   492.92         120.7421
   493.06         120.6936
   493.20         120.6193
   493.34         120.5426
   493.48         120.4833
   493.62         120.4547
   493.76         120.4721
   493.90         120.5564
   494.04         120.7165
   494.18         120.9405
   494.32         121.2063
   494.46         121.4861
   494.60         121.7456
   494.74         121.9501
   494.88         122.0727
   495.02         122.0944
   495.16         122.0005
   495.30         121.7890
   495.44         121.4797
   495.58         121.1064
   495.72         120.7052
   495.86         120.2982
   496.00         119.8926
   496.14         119.4930
   496.28         119.0988
   496.42         118.7055
   496.56         118.3155
   496.70         117.9385
   496.84         117.5870
   496.98         117.2706
   497.12         116.9894
   497.26         116.7356
   497.40         116.4984
   497.54         116.2717
   497.68         116.0587
   497.82         115.8667
   497.96         115.7036
   498.10         115.5710
   498.24         115.4608
   498.38         115.3618
   498.52         115.2616
   498.66         115.1525
   498.80         115.0314
   498.94         114.8947
   499.08         114.7434
   499.22         114.5870
   499.36         114.4374
   499.50         114.3007
   499.64         114.1764
   499.78         114.0618
   499.92         113.9549
   500.06         113.8560
   500.20         113.7675
   500.34         113.6832
   500.48         113.5869
   500.62         113.4646
   500.76         113.3089
   500.90         113.1181
   501.04         112.8970
   501.18         112.6509
   501.32         112.3821
   501.46         112.0948
   501.60         111.7969
   501.74         111.5050
   501.88         111.2378
   502.02         111.0059
   502.16         110.8080
   502.30         110.6344
   502.44         110.4789
   502.58         110.3451
   502.72         110.2411
   502.86         110.1742
   503.00         110.1444
   503.14         110.1439
   503.28         110.1610
   503.42         110.1826
   503.56         110.1990
   503.70         110.1979
   503.84         110.1613
   503.98         110.0761
   504.12         109.9407
   504.26         109.7655
   504.40         109.5717
   504.54         109.3797
   504.68         109.2019
   504.82         109.0432
   504.96         108.9014
   505.10         108.7748
   505.24         108.6635
   505.38         108.5620
   505.52         108.4609
   505.66         108.3494
   505.80         108.2216
   505.94         108.0804
   506.08         107.9330
   506.22         107.7817
   506.36         107.6211
   506.50         107.4473
   506.64         107.2590
   506.78         107.0571
   506.92         106.8452
   507.06         106.6233
   507.20         106.3839
   507.34         106.1221
   507.48         105.8415
   507.62         105.5517
   507.76         105.2661
   507.90         104.9956
   508.04         104.7491
   508.18         104.5359
   508.32         104.3625
   508.46         104.2319
   508.60         104.1464
   508.74         104.1053
   508.88         104.1021
   509.02         104.1262
   509.16         104.1643
   509.30         104.2039
   509.44         104.2375
   509.58         104.2592
   509.72         104.2598
   509.86         104.2331
   510.00         104.1772
   510.14         104.0876
   510.28         103.9575
   510.42         103.7861
   510.56         103.5811
   510.70         103.3593
   510.84         103.1406
   510.98         102.9391
   511.12         102.7642
   511.26         102.6192
   511.40         102.4980
   511.54         102.3864
   511.68         102.2648
   511.82         102.1162
   511.96         101.9370
   512.10         101.7368
   512.24         101.5310
   512.38         101.3371
   512.52         101.1727
   512.66         101.0528
   512.80         100.9918
   512.94         101.0067
   513.08         101.1066
   513.22         101.2845
   513.36         101.5231
   513.50         101.7971
   513.64         102.0711
   513.78         102.3078
   513.92         102.4773
   514.06         102.5570
   514.20         102.5342
   514.34         102.4137
   514.48         102.2162
   514.62         101.9648
   514.76         101.6755
   514.90         101.3549
   515.04         101.0033
   515.18         100.6250
   515.32         100.2364
   515.46         99.8622
   515.60         99.5217
   515.74         99.2213
   515.88         98.9634
   516.02         98.7571
   516.16         98.6116
   516.30         98.5255
   516.44         98.4947
   516.58         98.5220
   516.72         98.6045
   516.86         98.7306
   517.00         98.8809
   517.14         99.0246
   517.28         99.1297
   517.42         99.1723
   517.56         99.1390
   517.70         99.0292
   517.84         98.8531
   517.98         98.6252
   518.12         98.3568
   518.26         98.0586
   518.40         97.7467
   518.54         97.4436
   518.68         97.1732
   518.82         96.9507
   518.96         96.7828
   519.10         96.6717
   519.24         96.6096
   519.38         96.5790
   519.52         96.5607
   519.66         96.5330
   519.80         96.4766
   519.94         96.3803
   520.08         96.2354
   520.22         96.0337
   520.36         95.7783
   520.50         95.4898
   520.64         95.2009
   520.78         94.9412
   520.92         94.7270
   521.06         94.5688
   521.20         94.4745
   521.34         94.4416
   521.48         94.4582
   521.62         94.5070
   521.76         94.5636
   521.90         94.6070
   522.04         94.6303
   522.18         94.6285
   522.32         94.5951
   522.46         94.5262
   522.60         94.4195
   522.74         94.2738
   522.88         94.0892
   523.02         93.8758
   523.16         93.6494
   523.30         93.4196
   523.44         93.1918
   523.58         92.9737
   523.72         92.7716
   523.86         92.5804
   524.00         92.3918
   524.14         92.2055
   524.28         92.0235
   524.42         91.8451
   524.56         91.6751
   524.70         91.5184
   524.84         91.3712
   524.98         91.2283
   525.12         91.0893
   525.26         90.9594
   525.40         90.8454
   525.54         90.7517
   525.68         90.6898
   525.82         90.6685
   525.96         90.6808
   526.10         90.7112
   526.24         90.7415
   526.38         90.7545
   526.52         90.7380
   526.66         90.6848
   526.80         90.5896
   526.94         90.4461
   527.08         90.2566
   527.22         90.0368
   527.36         89.8077
   527.50         89.5881
   527.64         89.3943
   527.78         89.2410
   527.92         89.1374
   528.06         89.0841
   528.20         89.0743
   528.34         89.0934
   528.48         89.1178
   528.62         89.1210
   528.76         89.0802
   528.90         88.9796
   529.04         88.8122
   529.18         88.5792
   529.32         88.2940
   529.46         87.9808
   529.60         87.6646
   529.74         87.3734
   529.88         87.1333
   530.02         86.9588
   530.16         86.8537
   530.30         86.8182
   530.44         86.8494
   530.58         86.9339
   530.72         87.0478
   530.86         87.1647
   531.00         87.2649
   531.14         87.3389
   531.28         87.3854
   531.42         87.4050
   531.56         87.4033
   531.70         87.3868
   531.84         87.3556
   531.98         87.3071
   532.12         87.2379
   532.26         87.1479
   532.40         87.0404
   532.54         86.9181
   532.68         86.7847
   532.82         86.6479
   532.96         86.5154
   533.10         86.3883
   533.24         86.2605
   533.38         86.1263
   533.52         85.9855
   533.66         85.8421
   533.80         85.7034
   533.94         85.5752
   534.08         85.4571
   534.22         85.3444
   534.36         85.2304
   534.50         85.1084
   534.64         84.9761
   534.78         84.8367
   534.92         84.6979
   535.06         84.5679
   535.20         84.4539
   535.34         84.3603
   535.48         84.2814
   535.62         84.2025
   535.76         84.1113
   535.90         84.0049
   536.04         83.8915
   536.18         83.7790
   536.32         83.6699
   536.46         83.5661
   536.60         83.4647
   536.74         83.3585
   536.88         83.2459
   537.02         83.1299
   537.16         83.0137
   537.30         82.8972
   537.44         82.7812
   537.58         82.6704
   537.72         82.5695
   537.86         82.4795
   538.00         82.3976
   538.14         82.3212
   538.28         82.2543
   538.42         82.2064
   538.56         82.1813
   538.70         82.1722
   538.84         82.1647
   538.98         82.1458
   539.12         82.1096
   539.26         82.0512
   539.40         81.9667
   539.54         81.8515
   539.68         81.6972
   539.82         81.4915
   539.96         81.2139
   540.10         80.8389
   540.24         80.3452
   540.38         79.7323
   540.52         79.0270
   540.66         78.2764
   540.80         77.5377
   540.94         76.8706
   541.08         76.3261
   541.22         75.9430
   541.36         75.7489
   541.50         75.7558
   541.64         75.9583
   541.78         76.3344
   541.92         76.8441
   542.06         77.4360
   542.20         78.0524
   542.34         78.6375
   542.48         79.1456
   542.62         79.5472
   542.76         79.8329
   542.90         80.0134
   543.04         80.1121
   543.18         80.1466
   543.32         80.1193
   543.46         80.0270
   543.60         79.8681
   543.74         79.6445
   543.88         79.3631
   544.02         79.0359
   544.16         78.6780
   544.30         78.3101
   544.44         77.9540
   544.58         77.6289
   544.72         77.3506
   544.86         77.1298
   545.00         76.9732
   545.14         76.8819
   545.28         76.8503
   545.42         76.8695
   545.56         76.9327
   545.70         77.0345
   545.84         77.1634
   545.98         77.3007
   546.12         77.4284
   546.26         77.5317
   546.40         77.5983
   546.54         77.6236
   546.68         77.6077
   546.82         77.5501
   546.96         77.4496
   547.10         77.3058
   547.24         77.1218
   547.38         76.9015
   547.52         76.6472
   547.66         76.3619
   547.80         76.0540
   547.94         75.7388
   548.08         75.4354
   548.22         75.1604
   548.36         74.9248
   548.50         74.7375
   548.64         74.6101
   548.78         74.5513
   548.92         74.5584
   549.06         74.6201
   549.20         74.7198
   549.34         74.8323
   549.48         74.9286
   549.62         74.9852
   549.76         74.9849
   549.90         74.9145
   550.04         74.7735
   550.18         74.5782
   550.32         74.3563
   550.46         74.1394
   550.60         73.9543
   550.74         73.8154
   550.88         73.7252
   551.02         73.6756
   551.16         73.6538
   551.30         73.6468
   551.44         73.6419
   551.58         73.6251
   551.72         73.5843
   551.86         73.5120
   552.00         73.4046
   552.14         73.2650
   552.28         73.1056
   552.42         72.9468
   552.56         72.8122
   552.70         72.7218
   552.84         72.6814
   552.98         72.6819
   553.12         72.7092
   553.26         72.7464
   553.40         72.7764
   553.54         72.7864
   553.68         72.7699
   553.82         72.7249
   553.96         72.6542
   554.10         72.5637
   554.24         72.4578
   554.38         72.3447
   554.52         72.2380
   554.66         72.1505
   554.80         72.0905
   554.94         72.0581
   555.08         72.0446
   555.22         72.0331
   555.36         72.0045
   555.50         71.9442
   555.64         71.8431
   555.78         71.6966
   555.92         71.5057
   556.06         71.2778
   556.20         71.0279
   556.34         70.7753
   556.48         70.5370
   556.62         70.3261
   556.76         70.1501
   556.90         70.0137
   557.04         69.9220
   557.18         69.8738
   557.32         69.8632
   557.46         69.8857
   557.60         69.9393
   557.74         70.0205
   557.88         70.1203
   558.02         70.2190
   558.16         70.2906
   558.30         70.3123
   558.44         70.2741
   558.58         70.1785
   558.72         70.0358
   558.86         69.8618
   559.00         69.6738
   559.14         69.4871
   559.28         69.3162
   559.42         69.1741
   559.56         69.0736
   559.70         69.0222
   559.84         69.0152
   559.98         69.0423
   560.12         69.0877
   560.26         69.1284
   560.40         69.1403
   560.54         69.1045
   560.68         69.0154
   560.82         68.8839
   560.96         68.7305
   561.10         68.5761
   561.24         68.4335
   561.38         68.3052
   561.52         68.1881
   561.66         68.0772
   561.80         67.9665
   561.94         67.8511
   562.08         67.7293
   562.22         67.6018
   562.36         67.4660
   562.50         67.3161
   562.64         67.1498
   562.78         66.9709
   562.92         66.7893
   563.06         66.6195
   563.20         66.4747
   563.34         66.3644
   563.48         66.2916
   563.62         66.2542
   563.76         66.2449
   563.90         66.2509
   564.04         66.2614
   564.18         66.2706
   564.32         66.2740
   564.46         66.2676
   564.60         66.2461
   564.74         66.2028
   564.88         66.1332
   565.02         66.0379
   565.16         65.9218
   565.30         65.7930
   565.44         65.6631
   565.58         65.5412
   565.72         65.4288
   565.86         65.3193
   566.00         65.2061
   566.14         65.0882
   566.28         64.9679
   566.42         64.8469
   566.56         64.7299
   566.70         64.6270
   566.84         64.5458
   566.98         64.4899
   567.12         64.4632
   567.26         64.4658
   567.40         64.4963
   567.54         64.5536
   567.68         64.6312
   567.82         64.7169
   567.96         64.7983
   568.10         64.8643
   568.24         64.9065
   568.38         64.9273
   568.52         64.9411
   568.66         64.9655
   568.80         65.0102
   568.94         65.0711
   569.08         65.1329
   569.22         65.1778
   569.36         65.1888
   569.50         65.1510
   569.64         65.0576
   569.78         64.9065
   569.92         64.6987
   570.06         64.4407
   570.20         64.1449
   570.34         63.8289
   570.48         63.5186
   570.62         63.2441
   570.76         63.0311
   570.90         62.8965
   571.04         62.8454
   571.18         62.8662
   571.32         62.9334
   571.46         63.0166
   571.60         63.0890
   571.74         63.1330
   571.88         63.1415
   572.02         63.1187
   572.16         63.0754
   572.30         63.0210
   572.44         62.9590
   572.58         62.8935
   572.72         62.8294
   572.86         62.7720
   573.00         62.7296
   573.14         62.7065
   573.28         62.6969
   573.42         62.6889
   573.56         62.6722
   573.70         62.6417
   573.84         62.5970
   573.98         62.5381
   574.12         62.4651
   574.26         62.3781
   574.40         62.2775
   574.54         62.1668
   574.68         62.0530
   574.82         61.9436
   574.96         61.8446
   575.10         61.7625
   575.24         61.7034
   575.38         61.6678
   575.52         61.6523
   575.66         61.6485
   575.80         61.6415
   575.94         61.6185
   576.08         61.5716
   576.22         61.4960
   576.36         61.3878
   576.50         61.2422
   576.64         61.0509
   576.78         60.8052
   576.92         60.5019
   577.06         60.1464
   577.20         59.7554
   577.34         59.3561
   577.48         58.9776
   577.62         58.6433
   577.76         58.3720
   577.90         58.1758
   578.04         58.0610
   578.18         58.0273
   578.32         58.0644
   578.46         58.1572
   578.60         58.2845
   578.74         58.4161
   578.88         58.5162
   579.02         58.5502
   579.16         58.4922
   579.30         58.3328
   579.44         58.0862
   579.58         57.7877
   579.72         57.4795
   579.86         57.1984
   580.00         56.9670
   580.14         56.7910
   580.28         56.6707
   580.42         56.6105
   580.56         56.6167
   580.70         56.6912
   580.84         56.8260
   580.98         57.0078
   581.12         57.2239
   581.26         57.4606
   581.40         57.7016
   581.54         57.9331
   581.68         58.1487
   581.82         58.3474
   581.96         58.5276
   582.10         58.6822
   582.24         58.7986
   582.38         58.8634
   582.52         58.8702
   582.66         58.8230
   582.80         58.7375
   582.94         58.6349
   583.08         58.5294
   583.22         58.4251
   583.36         58.3227
   583.50         58.2302
   583.64         58.1596
   583.78         58.1169
   583.92         58.1022
   584.06         58.1158
   584.20         58.1583
   584.34         58.2266
   584.48         58.3127
   584.62         58.4077
   584.76         58.5046
   584.90         58.6004
   585.04         58.6946
   585.18         58.7835
   585.32         58.8591
   585.46         58.9131
   585.60         58.9402
   585.74         58.9417
   585.88         58.9266
   586.02         58.9057
   586.16         58.8798
   586.30         58.8261
   586.44         58.7070
   586.58         58.4963
   586.72         58.1900
   586.86         57.7989
   587.00         57.3457
   587.14         56.8633
   587.28         56.3895
   587.42         55.9623
   587.56         55.6093
   587.70         55.3345
   587.84         55.1153
   587.98         54.9206
   588.12         54.7360
   588.26         54.5573
   588.40         54.3698
   588.54         54.1483
   588.68         53.8753
   588.82         53.5560
   588.96         53.2172
   589.10         52.9037
   589.24         52.6732
   589.38         52.5768
   589.52         52.6423
   589.66         52.8688
   589.80         53.2328
   589.94         53.6981
   590.08         54.2236
   590.22         54.7631
   590.36         55.2740
   590.50         55.7291
   590.64         56.1233
   590.78         56.4602
   590.92         56.7317
   591.06         56.9246
   591.20         57.0404
   591.34         57.0992
   591.48         57.1252
   591.62         57.1312
   591.76         57.1219
   591.90         57.1023
   592.04         57.0796
   592.18         57.0589
   592.32         57.0411
   592.46         57.0266
   592.60         57.0164
   592.74         57.0081
   592.88         56.9953
   593.02         56.9670
   593.16         56.9108
   593.30         56.8163
   593.44         56.6741
   593.58         56.4773
   593.72         56.2249
   593.86         55.9242
   594.00         55.5909
   594.14         55.2433
   594.28         54.8945
   594.42         54.5531
   594.56         54.2282
   594.70         53.9333
   594.84         53.6850
   594.98         53.4940
   595.12         53.3616
   595.26         53.2841
   595.40         53.2604
   595.54         53.2908
   595.68         53.3709
   595.82         53.4932
   595.96         53.6475
   596.10         53.8206
   596.24         54.0016
   596.38         54.1820
   596.52         54.3534
   596.66         54.5106
   596.80         54.6478
   596.94         54.7568
   597.08         54.8327
   597.22         54.8774
   597.36         54.8955
   597.50         54.8870
   597.64         54.8443
   597.78         54.7598
   597.92         54.6342
   598.06         54.4760
   598.20         54.2963
   598.34         54.1066
   598.48         53.9186
   598.62         53.7428
   598.76         53.5892
   598.90         53.4667
   599.04         53.3800
   599.18         53.3265
   599.32         53.2974
   599.46         53.2785
   599.60         53.2571
   599.74         53.2255
   599.88         53.1781
   600.02         53.1098
   600.16         53.0180
   600.30         52.9065
   600.44         52.7858
   600.58         52.6703
   600.72         52.5748
   600.86         52.5110
   601.00         52.4840
   601.14         52.4896
   601.28         52.5167
   601.42         52.5546
   601.56         52.5974
   601.70         52.6373
   601.84         52.6611
   601.98         52.6560
   602.12         52.6155
   602.26         52.5378
   602.40         52.4242
   602.54         52.2773
   602.68         52.1033
   602.82         51.9098
   602.96         51.7037
   603.10         51.4986
   603.24         51.3150
   603.38         51.1742
   603.52         51.0933
   603.66         51.0788
   603.80         51.1243
   603.94         51.2167
   604.08         51.3420
   604.22         51.4808
   604.36         51.6081
   604.50         51.6995
   604.64         51.7400
   604.78         51.7254
   604.92         51.6583
   605.06         51.5459
   605.20         51.3968
   605.34         51.2232
   605.48         51.0405
   605.62         50.8648
   605.76         50.7115
   605.90         50.5870
   606.04         50.4894
   606.18         50.4143
   606.32         50.3566
   606.46         50.3112
   606.60         50.2734
   606.74         50.2371
   606.88         50.1956
   607.02         50.1434
   607.16         50.0769
   607.30         49.9979
   607.44         49.9111
   607.58         49.8198
   607.72         49.7282
   607.86         49.6413
   608.00         49.5617
   608.14         49.4874
   608.28         49.4151
   608.42         49.3459
   608.56         49.2839
   608.70         49.2322
   608.84         49.1907
   608.98         49.1572
   609.12         49.1275
   609.26         49.0990
   609.40         49.0736
   609.54         49.0570
   609.68         49.0553
   609.82         49.0729
   609.96         49.1113
   610.10         49.1666
   610.24         49.2317
   610.38         49.3000
   610.52         49.3636
   610.66         49.4143
   610.80         49.4485
   610.94         49.4698
   611.08         49.4837
   611.22         49.4921
   611.36         49.4932
   611.50         49.4825
   611.64         49.4569
   611.78         49.4174
   611.92         49.3707
   612.06         49.3260
   612.20         49.2904
   612.34         49.2686
   612.48         49.2606
   612.62         49.2637
   612.76         49.2740
   612.90         49.2853
   613.04         49.2896
   613.18         49.2793
   613.32         49.2491
   613.46         49.1974
   613.60         49.1268
   613.74         49.0441
   613.88         48.9564
   614.02         48.8711
   614.16         48.7966
   614.30         48.7426
   614.44         48.7176
   614.58         48.7250
   614.72         48.7617
   614.86         48.8200
   615.00         48.8902
   615.14         48.9624
   615.28         49.0283
   615.42         49.0810
   615.56         49.1126
   615.70         49.1172
   615.84         49.0924
   615.98         49.0376
   616.12         48.9544
   616.26         48.8456
   616.40         48.7128
   616.54         48.5561
   616.68         48.3790
   616.82         48.1897
   616.96         47.9976
   617.10         47.8135
   617.24         47.6461
   617.38         47.5010
   617.52         47.3796
   617.66         47.2798
   617.80         47.2001
   617.94         47.1400
   618.08         47.0995
   618.22         47.0777
   618.36         47.0738
   618.50         47.0864
   618.64         47.1126
   618.78         47.1496
   618.92         47.1936
   619.06         47.2388
   619.20         47.2776
   619.34         47.3031
   619.48         47.3105
   619.62         47.2961
   619.76         47.2588
   619.90         47.2005
   620.04         47.1264
   620.18         47.0430
   620.32         46.9588
   620.46         46.8837
   620.60         46.8234
   620.74         46.7792
   620.88         46.7498
   621.02         46.7316
   621.16         46.7209
   621.30         46.7167
   621.44         46.7187
   621.58         46.7236
   621.72         46.7272
   621.86         46.7286
   622.00         46.7307
   622.14         46.7355
   622.28         46.7424
   622.42         46.7485
   622.56         46.7492
   622.70         46.7388
   622.84         46.7149
   622.98         46.6814
   623.12         46.6458
   623.26         46.6163
   623.40         46.5992
   623.54         46.5981
   623.68         46.6146
   623.82         46.6490
   623.96         46.6994
   624.10         46.7607
   624.24         46.8284
   624.38         46.8987
   624.52         46.9664
   624.66         47.0247
   624.80         47.0664
   624.94         47.0859
   625.08         47.0799
   625.22         47.0474
   625.36         46.9887
   625.50         46.9072
   625.64         46.8078
   625.78         46.6926
   625.92         46.5622
   626.06         46.4171
   626.20         46.2593
   626.34         46.0923
   626.48         45.9173
   626.62         45.7336
   626.76         45.5413
   626.90         45.3399
   627.04         45.1260
   627.18         44.8941
   627.32         44.6414
   627.46         44.3721
   627.60         44.0984
   627.74         43.8367
   627.88         43.6025
   628.02         43.4105
   628.16         43.2748
   628.30         43.2058
   628.44         43.2073
   628.58         43.2763
   628.72         43.4055
   628.86         43.5849
   629.00         43.7995
   629.14         44.0300
   629.28         44.2560
   629.42         44.4575
   629.56         44.6149
   629.70         44.7129
   629.84         44.7430
   629.98         44.7064
   630.12         44.6131
   630.26         44.4764
   630.40         44.3094
   630.54         44.1266
   630.68         43.9453
   630.82         43.7820
   630.96         43.6496
   631.10         43.5563
   631.24         43.5055
   631.38         43.4961
   631.52         43.5224
   631.66         43.5747
   631.80         43.6430
   631.94         43.7182
   632.08         43.7927
   632.22         43.8628
   632.36         43.9280
   632.50         43.9875
   632.64         44.0402
   632.78         44.0868
   632.92         44.1270
   633.06         44.1572
   633.20         44.1728
   633.34         44.1706
   633.48         44.1506
   633.62         44.1155
   633.76         44.0694
   633.90         44.0168
   634.04         43.9630
   634.18         43.9145
   634.32         43.8778
   634.46         43.8574
   634.60         43.8540
   634.74         43.8661
   634.88         43.8902
   635.02         43.9198
   635.16         43.9480
   635.30         43.9704
   635.44         43.9823
   635.58         43.9767
   635.72         43.9490
   635.86         43.8979
   636.00         43.8254
   636.14         43.7350
   636.28         43.6291
   636.42         43.5094
   636.56         43.3796
   636.70         43.2461
   636.84         43.1172
   636.98         43.0007
   637.12         42.9010
   637.26         42.8210
   637.40         42.7634
   637.54         42.7279
   637.68         42.7101
   637.82         42.7055
   637.96         42.7115
   638.10         42.7252
   638.24         42.7462
   638.38         42.7756
   638.52         42.8110
   638.66         42.8460
   638.80         42.8733
   638.94         42.8875
   639.08         42.8848
   639.22         42.8628
   639.36         42.8206
   639.50         42.7584
   639.64         42.6782
   639.78         42.5836
   639.92         42.4803
   640.06         42.3728
   640.20         42.2648
   640.34         42.1618
   640.48         42.0709
   640.62         41.9986
   640.76         41.9486
   640.90         41.9215
   641.04         41.9153
   641.18         41.9263
   641.32         41.9516
   641.46         41.9903
   641.60         42.0405
   641.74         42.0986
   641.88         42.1607
   642.02         42.2240
   642.16         42.2861
   642.30         42.3444
   642.44         42.3968
   642.58         42.4404
   642.72         42.4725
   642.86         42.4925
   643.00         42.4989
   643.14         42.4891
   643.28         42.4601
   643.42         42.4094
   643.56         42.3364
   643.70         42.2414
   643.84         42.1275
   643.98         42.0023
   644.12         41.8753
   644.26         41.7556
   644.40         41.6513
   644.54         41.5665
   644.68         41.5004
   644.82         41.4519
   644.96         41.4204
   645.10         41.4030
   645.24         41.3923
   645.38         41.3815
   645.52         41.3656
   645.66         41.3395
   645.80         41.3002
   645.94         41.2506
   646.08         41.1979
   646.22         41.1496
   646.36         41.1111
   646.50         41.0872
   646.64         41.0814
   646.78         41.0935
   646.92         41.1206
   647.06         41.1589
   647.20         41.2044
   647.34         41.2522
   647.48         41.2960
   647.62         41.3288
   647.76         41.3435
   647.90         41.3361
   648.04         41.3084
   648.18         41.2658
   648.32         41.2146
   648.46         41.1619
   648.60         41.1153
   648.74         41.0783
   648.88         41.0500
   649.02         41.0243
   649.16         40.9947
   649.30         40.9574
   649.44         40.9094
   649.58         40.8483
   649.72         40.7745
   649.86         40.6922
   650.00         40.6065
   650.14         40.5266
   650.28         40.4634
   650.42         40.4247
   650.56         40.4144
   650.70         40.4326
   650.84         40.4734
   650.98         40.5258
   651.12         40.5763
   651.26         40.6142
   651.40         40.6325
   651.54         40.6273
   651.68         40.5981
   651.82         40.5499
   651.96         40.4898
   652.10         40.4235
   652.24         40.3571
   652.38         40.2980
   652.52         40.2509
   652.66         40.2165
   652.80         40.1926
   652.94         40.1770
   653.08         40.1676
   653.22         40.1628
   653.36         40.1603
   653.50         40.1577
   653.64         40.1523
   653.78         40.1430
   653.92         40.1305
   654.06         40.1134
   654.20         40.0863
   654.34         40.0416
   654.48         39.9708
   654.62         39.8640
   654.76         39.7067
   654.90         39.4811
   655.04         39.1702
   655.18         38.7603
   655.32         38.2486
   655.46         37.6499
   655.60         36.9966
   655.74         36.3345
   655.88         35.7166
   656.02         35.1972
   656.16         34.8247
   656.30         34.6354
   656.44         34.6485
   656.58         34.8624
   656.72         35.2550
   656.86         35.7898
   657.00         36.4193
   657.14         37.0903
   657.28         37.7488
   657.42         38.3463
   657.56         38.8494
   657.70         39.2434
   657.84         39.5292
   657.98         39.7193
   658.12         39.8337
   658.26         39.8956
   658.40         39.9269
   658.54         39.9434
   658.68         39.9536
   658.82         39.9605
   658.96         39.9636
   659.10         39.9593
   659.24         39.9439
   659.38         39.9180
   659.52         39.8845
   659.66         39.8454
   659.80         39.8020
   659.94         39.7540
   660.08         39.6983
   660.22         39.6301
   660.36         39.5452
   660.50         39.4418
   660.64         39.3237
   660.78         39.2006
   660.92         39.0838
   661.06         38.9829
   661.20         38.9038
   661.34         38.8506
   661.48         38.8249
   661.62         38.8245
   661.76         38.8441
   661.90         38.8780
   662.04         38.9204
   662.18         38.9629
   662.32         38.9944
   662.46         39.0052
   662.60         38.9886
   662.74         38.9421
   662.88         38.8698
   663.02         38.7823
   663.16         38.6921
   663.30         38.6094
   663.44         38.5402
   663.58         38.4878
   663.72         38.4528
   663.86         38.4328
   664.00         38.4220
   664.14         38.4115
   664.28         38.3945
   664.42         38.3680
   664.56         38.3304
   664.70         38.2800
   664.84         38.2140
   664.98         38.1299
   665.12         38.0278
   665.26         37.9095
   665.40         37.7796
   665.54         37.6455
   665.68         37.5156
   665.82         37.3975
   665.96         37.2984
   666.10         37.2229
   666.24         37.1715
   666.38         37.1392
   666.52         37.1156
   666.66         37.0869
   666.80         37.0390
   666.94         36.9634
   667.08         36.8571
   667.22         36.7201
   667.36         36.5570
   667.50         36.3768
   667.64         36.1937
   667.78         36.0261
   667.92         35.8917
   668.06         35.8043
   668.20         35.7718
   668.34         35.7945
   668.48         35.8669
   668.62         35.9768
   668.76         36.1063
   668.90         36.2374
   669.04         36.3566
   669.18         36.4542
   669.32         36.5260
   669.46         36.5752
   669.60         36.6095
   669.74         36.6347
   669.88         36.6535
   670.02         36.6689
   670.16         36.6846
   670.30         36.7053
   670.44         36.7338
   670.58         36.7683
   670.72         36.8047
   670.86         36.8404
   671.00         36.8745
   671.14         36.9062
   671.28         36.9352
   671.42         36.9613
   671.56         36.9849
   671.70         37.0054
   671.84         37.0210
   671.98         37.0285
   672.12         37.0251
   672.26         37.0078
   672.40         36.9739
   672.54         36.9214
   672.68         36.8516
   672.82         36.7670
   672.96         36.6694
   673.10         36.5608
   673.24         36.4449
   673.38         36.3284
   673.52         36.2193
   673.66         36.1247
   673.80         36.0484
   673.94         35.9917
   674.08         35.9539
   674.22         35.9331
   674.36         35.9257
   674.50         35.9273
   674.64         35.9317
   674.78         35.9314
   674.92         35.9207
   675.06         35.8968
   675.20         35.8606
   675.34         35.8169
   675.48         35.7724
   675.62         35.7356
   675.76         35.7158
   675.90         35.7194
   676.04         35.7468
   676.18         35.7935
   676.32         35.8507
   676.46         35.9068
   676.60         35.9503
   676.74         35.9725
   676.88         35.9666
   677.02         35.9299
   677.16         35.8642
   677.30         35.7737
   677.44         35.6675
   677.58         35.5579
   677.72         35.4554
   677.86         35.3674
   678.00         35.2976
   678.14         35.2466
   678.28         35.2128
   678.42         35.1922
   678.56         35.1815
   678.70         35.1787
   678.84         35.1814
   678.98         35.1868
   679.12         35.1928
   679.26         35.1979
   679.40         35.2011
   679.54         35.2033
   679.68         35.2070
   679.82         35.2139
   679.96         35.2232
   680.10         35.2326
   680.24         35.2392
   680.38         35.2407
   680.52         35.2367
   680.66         35.2273
   680.80         35.2133
   680.94         35.1956
   681.08         35.1742
   681.22         35.1472
   681.36         35.1104
   681.50         35.0587
   681.64         34.9906
   681.78         34.9098
   681.92         34.8229
   682.06         34.7384
   682.20         34.6657
   682.34         34.6119
   682.48         34.5810
   682.62         34.5738
   682.76         34.5889
   682.90         34.6210
   683.04         34.6618
   683.18         34.7032
   683.32         34.7378
   683.46         34.7611
   683.60         34.7716
   683.74         34.7712
   683.88         34.7646
   684.02         34.7563
   684.16         34.7501
   684.30         34.7480
   684.44         34.7499
   684.58         34.7546
   684.72         34.7596
   684.86         34.7610
   685.00         34.7537
   685.14         34.7316
   685.28         34.6867
   685.42         34.6057
   685.56         34.4661
   685.70         34.2396
   685.84         33.9025
   685.98         33.4423
   686.12         32.8597
   686.26         32.1693
   686.40         31.3971
   686.54         30.5782
   686.68         29.7564
   686.82         28.9836
   686.96         28.3160
   687.10         27.8041
   687.24         27.4818
   687.38         27.3585
   687.52         27.4198
   687.66         27.6315
   687.80         27.9433
   687.94         28.2959
   688.08         28.6285
   688.22         28.8919
   688.36         29.0600
   688.50         29.1305
   688.64         29.1169
   688.78         29.0403
   688.92         28.9249
   689.06         28.7976
   689.20         28.6865
   689.34         28.6176
   689.48         28.6102
   689.62         28.6715
   689.76         28.7944
   689.90         28.9635
   690.04         29.1640
   690.18         29.3835
   690.32         29.6128
   690.46         29.8444
   690.60         30.0729
   690.74         30.2944
   690.88         30.5094
   691.02         30.7194
   691.16         30.9230
   691.30         31.1176
   691.44         31.3005
   691.58         31.4693
   691.72         31.6226
   691.86         31.7591
   692.00         31.8796
   692.14         31.9855
   692.28         32.0767
   692.42         32.1523
   692.56         32.2123
   692.70         32.2567
   692.84         32.2843
   692.98         32.2954
   693.12         32.2927
   693.26         32.2809
   693.40         32.2664
   693.54         32.2540
   693.68         32.2450
   693.82         32.2395
   693.96         32.2391
   694.10         32.2453
   694.24         32.2574
   694.38         32.2739
   694.52         32.2958
   694.66         32.3236
   694.80         32.3532
   694.94         32.3772
   695.08         32.3899
   695.22         32.3890
   695.36         32.3745
   695.50         32.3484
   695.64         32.3162
   695.78         32.2843
   695.92         32.2583
   696.06         32.2417
   696.20         32.2366
   696.34         32.2445
   696.48         32.2657
   696.62         32.2972
   696.76         32.3344
   696.90         32.3735
   697.04         32.4124
   697.18         32.4488
   697.32         32.4763
   697.46         32.4854
   697.60         32.4686
   697.74         32.4242
   697.88         32.3547
   698.02         32.2638
   698.16         32.1555
   698.30         32.0353
   698.44         31.9086
   698.58         31.7804
   698.72         31.6573
   698.86         31.5459
   699.00         31.4503
   699.14         31.3722
   699.28         31.3129
   699.42         31.2734
   699.56         31.2521
   699.70         31.2446
   699.84         31.2456
   699.98         31.2490
   700.12         31.2503
   700.26         31.2494
   700.40         31.2486
   700.54         31.2472
   700.68         31.2403
   700.82         31.2229
   700.96         31.1932
   701.10         31.1508
   701.24         31.0952
   701.38         31.0263
   701.52         30.9455
   701.66         30.8558
   701.80         30.7620
   701.94         30.6699
   702.08         30.5853
   702.22         30.5126
   702.36         30.4559
   702.50         30.4199
   702.64         30.4068
   702.78         30.4178
   702.92         30.4538
   703.06         30.5122
   703.20         30.5862
   703.34         30.6673
   703.48         30.7480
   703.62         30.8203
   703.76         30.8763
   703.90         30.9097
   704.04         30.9178
   704.18         30.9007
   704.32         30.8600
   704.46         30.7982
   704.60         30.7192
   704.74         30.6280
   704.88         30.5300
   705.02         30.4306
   705.16         30.3301
   705.30         30.2231
   705.44         30.1014
   705.58         29.9595
   705.72         29.7987
   705.86         29.6267
   706.00         29.4555
   706.14         29.2985
   706.28         29.1682
   706.42         29.0770
   706.56         29.0346
   706.70         29.0460
   706.84         29.1118
   706.98         29.2267
   707.12         29.3790
   707.26         29.5506
   707.40         29.7222
   707.54         29.8747
   707.68         29.9912
   707.82         30.0596
   707.96         30.0768
   708.10         30.0504
   708.24         29.9943
   708.38         29.9229
   708.52         29.8463
   708.66         29.7694
   708.80         29.6939
   708.94         29.6206
   709.08         29.5496
   709.22         29.4794
   709.36         29.4076
   709.50         29.3314
   709.64         29.2481
   709.78         29.1575
   709.92         29.0624
   710.06         28.9696
   710.20         28.8869
   710.34         28.8218
   710.48         28.7796
   710.62         28.7615
   710.76         28.7666
   710.90         28.7942
   711.04         28.8419
   711.18         28.9021
   711.32         28.9647
   711.46         29.0201
   711.60         29.0610
   711.74         29.0807
   711.88         29.0758
   712.02         29.0486
   712.16         29.0053
   712.30         28.9547
   712.44         28.9052
   712.58         28.8627
   712.72         28.8311
   712.86         28.8101
   713.00         28.7972
   713.14         28.7890
   713.28         28.7823
   713.42         28.7744
   713.56         28.7625
   713.70         28.7428
   713.84         28.7132
   713.98         28.6769
   714.12         28.6385
   714.26         28.6021
   714.40         28.5723
   714.54         28.5545
   714.68         28.5513
   714.82         28.5587
   714.96         28.5703
   715.10         28.5785
   715.24         28.5768
   715.38         28.5597
   715.52         28.5227
   715.66         28.4649
   715.80         28.3873
   715.94         28.2902
   716.08         28.1740
   716.22         28.0394
   716.36         27.8870
   716.50         27.7167
   716.64         27.5274
   716.78         27.3184
   716.92         27.0930
   717.06         26.8592
   717.20         26.6253
   717.34         26.3969
   717.48         26.1812
   717.62         25.9904
   717.76         25.8369
   717.90         25.7299
   718.04         25.6721
   718.18         25.6611
   718.32         25.6922
   718.46         25.7583
   718.60         25.8482
   718.74         25.9484
   718.88         26.0449
   719.02         26.1277
   719.16         26.1907
   719.30         26.2297
   719.44         26.2446
   719.58         26.2413
   719.72         26.2289
   719.86         26.2186
   720.00         26.2235
   720.14         26.2589
   720.28         26.3352
   720.42         26.4526
   720.56         26.6032
   720.70         26.7765
   720.84         26.9611
   720.98         27.1453
   721.12         27.3166
   721.26         27.4617
   721.40         27.5707
   721.54         27.6413
   721.68         27.6757
   721.82         27.6775
   721.96         27.6523
   722.10         27.6059
   722.24         27.5420
   722.38         27.4651
   722.52         27.3810
   722.66         27.2951
   722.80         27.2083
   722.94         27.1185
   723.08         27.0253
   723.22         26.9312
   723.36         26.8393
   723.50         26.7525
   723.64         26.6750
   723.78         26.6099
   723.92         26.5557
   724.06         26.5103
   724.20         26.4702
   724.34         26.4317
   724.48         26.3939
   724.62         26.3569
   724.76         26.3198
   724.90         26.2853
   725.04         26.2596
   725.18         26.2455
   725.32         26.2403
   725.46         26.2409
   725.60         26.2476
   725.74         26.2627
   725.88         26.2862
   726.02         26.3142
   726.16         26.3404
   726.30         26.3553
   726.44         26.3473
   726.58         26.3083
   726.72         26.2391
   726.86         26.1464
   727.00         26.0395
   727.14         25.9277
   727.28         25.8205
   727.42         25.7274
   727.56         25.6556
   727.70         25.6085
   727.84         25.5880
   727.98         25.5965
   728.12         25.6333
   728.26         25.6936
   728.40         25.7700
   728.54         25.8540
   728.68         25.9380
   728.82         26.0163
   728.96         26.0845
   729.10         26.1393
   729.24         26.1798
   729.38         26.2058
   729.52         26.2150
   729.66         26.2056
   729.80         26.1783
   729.94         26.1371
   730.08         26.0864
   730.22         26.0308
   730.36         25.9763
   730.50         25.9292
   730.64         25.8937
   730.78         25.8717
   730.92         25.8650
   731.06         25.8755
   731.20         25.9018
   731.34         25.9383
   731.48         25.9774
   731.62         26.0123
   731.76         26.0394
   731.90         26.0584
   732.04         26.0709
   732.18         26.0773
   732.32         26.0767
   732.46         26.0685
   732.60         26.0517
   732.74         26.0261
   732.88         25.9920
   733.02         25.9498
   733.16         25.9016
   733.30         25.8503
   733.44         25.7993
   733.58         25.7536
   733.72         25.7157
   733.86         25.6839
   734.00         25.6568
   734.14         25.6358
   734.28         25.6234
   734.42         25.6212
   734.56         25.6285
   734.70         25.6422
   734.84         25.6587
   734.98         25.6755
   735.12         25.6890
   735.26         25.6943
   735.40         25.6880
   735.54         25.6675
   735.68         25.6318
   735.82         25.5837
   735.96         25.5275
   736.10         25.4682
   736.24         25.4115
   736.38         25.3627
   736.52         25.3274
   736.66         25.3100
   736.80         25.3111
   736.94         25.3272
   737.08         25.3529
   737.22         25.3816
   737.36         25.4078
   737.50         25.4273
   737.64         25.4357
   737.78         25.4306
   737.92         25.4137
   738.06         25.3883
   738.20         25.3578
   738.34         25.3241
   738.48         25.2860
   738.62         25.2402
   738.76         25.1850
   738.90         25.1219
   739.04         25.0539
   739.18         24.9848
   739.32         24.9208
   739.46         24.8709
   739.60         24.8434
   739.74         24.8419
   739.88         24.8652
   740.02         24.9090
   740.16         24.9654
   740.30         25.0255
   740.44         25.0816
   740.58         25.1263
   740.72         25.1534
   740.86         25.1597
   741.00         25.1455
   741.14         25.1139
   741.28         25.0708
   741.42         25.0248
   741.56         24.9854
   741.70         24.9600
   741.84         24.9531
   741.98         24.9656
   742.12         24.9934
   742.26         25.0294
   742.40         25.0662
   742.54         25.0980
   742.68         25.1208
   742.82         25.1322
   742.96         25.1322
   743.10         25.1208
   743.24         25.0980
   743.38         25.0662
   743.52         25.0294
   743.66         24.9934
   743.80         24.9656
   743.94         24.9531
   744.08         24.9600
   744.22         24.9854
