# File HD225160
# Wavelength [nm]    Normalized Amplitude
   349.70         565.1277
   349.84         565.9543
   349.98         566.1053
   350.12         565.5549
   350.26         564.3504
   350.40         562.6075
   350.54         560.5036
   350.68         558.3083
   350.82         556.3653
   350.96         555.0244
   351.10         554.5458
   351.24         555.0244
   351.38         556.3653
   351.52         558.3083
   351.66         560.5036
   351.80         562.6075
   351.94         564.3504
   352.08         565.5549
   352.22         566.1053
   352.36         565.9543
   352.50         565.1277
   352.64         563.6847
   352.78         561.7436
   352.92         559.4822
   353.06         557.0568
   353.20         554.5737
   353.34         552.1167
   353.48         549.7474
   353.62         547.4889
   353.76         545.3492
   353.90         543.3844
   354.04         541.6837
   354.18         540.3207
   354.32         539.3833
   354.46         538.9551
   354.60         539.0427
   354.74         539.5505
   354.88         540.3093
   355.02         541.1416
   355.16         541.8771
   355.30         542.3471
   355.44         542.4300
   355.58         542.0851
   355.72         541.3594
   355.86         540.3527
   356.00         539.1792
   356.14         537.9613
   356.28         536.8096
   356.42         535.7825
   356.56         534.8398
   356.70         533.8261
   356.84         532.5723
   356.98         530.9970
   357.12         529.0769
   357.26         526.8208
   357.40         524.2747
   357.54         521.5277
   357.68         518.7266
   357.82         516.0812
   357.96         513.8564
   358.10         512.3120
   358.24         511.5989
   358.38         511.7019
   358.52         512.4539
   358.66         513.6024
   358.80         514.8848
   358.94         516.0513
   359.08         516.9014
   359.22         517.3300
   359.36         517.3086
   359.50         516.8482
   359.64         515.9525
   359.78         514.6099
   359.92         512.8344
   360.06         510.6914
   360.20         508.3114
   360.34         505.8718
   360.48         503.5435
   360.62         501.4370
   360.76         499.5964
   360.90         498.0369
   361.04         496.7650
   361.18         495.7768
   361.32         495.0901
   361.46         494.7638
   361.60         494.8268
   361.74         495.2342
   361.88         495.8709
   362.02         496.5597
   362.16         497.1161
   362.30         497.4294
   362.44         497.5132
   362.58         497.4516
   362.72         497.2966
   362.86         497.0519
   363.00         496.7321
   363.14         496.3869
   363.28         496.0931
   363.42         495.9564
   363.56         496.0474
   363.70         496.3599
   363.84         496.8578
   363.98         497.5053
   364.12         498.2325
   364.26         498.9365
   364.40         499.5414
   364.54         499.9864
   364.68         500.1947
   364.82         500.1386
   364.96         499.8945
   365.10         499.5800
   365.24         499.2655
   365.38         498.9808
   365.52         498.7557
   365.66         498.6309
   365.80         498.6217
   365.94         498.6665
   366.08         498.6144
   366.22         498.2521
   366.36         497.3772
   366.50         495.8658
   366.64         493.7048
   366.78         490.9930
   366.92         487.9278
   367.06         484.7600
   367.20         481.7346
   367.34         479.1121
   367.48         477.1408
   367.62         475.9669
   367.76         475.5971
   367.90         475.9024
   368.04         476.6764
   368.18         477.6957
   368.32         478.7560
   368.46         479.6352
   368.60         480.0912
   368.74         479.9661
   368.88         479.2194
   369.02         477.8839
   369.16         476.0473
   369.30         473.8244
   369.44         471.3162
   369.58         468.6255
   369.72         465.8851
   369.86         463.2301
   370.00         460.7508
   370.14         458.4910
   370.28         456.5075
   370.42         454.8934
   370.56         453.7439
   370.70         453.1416
   370.84         453.1307
   370.98         453.6442
   371.12         454.4976
   371.26         455.5148
   371.40         456.5885
   371.54         457.6266
   371.68         458.5319
   371.82         459.2364
   371.96         459.6968
   372.10         459.8581
   372.24         459.6629
   372.38         459.0871
   372.52         458.1655
   372.66         457.0310
   372.80         455.9223
   372.94         455.1095
   373.08         454.7936
   373.22         455.0496
   373.36         455.8324
   373.50         456.9878
   373.64         458.2588
   373.78         459.3642
   373.92         460.0781
   374.06         460.2362
   374.20         459.7160
   374.34         458.4345
   374.48         456.3809
   374.62         453.6137
   374.76         450.2553
   374.90         446.5604
   375.04         442.9411
   375.18         439.8588
   375.32         437.6716
   375.46         436.5375
   375.60         436.3938
   375.74         436.9635
   375.88         437.8483
   376.02         438.6885
   376.16         439.2431
   376.30         439.4111
   376.44         439.2516
   376.58         438.9564
   376.72         438.7702
   376.86         438.9031
   377.00         439.4864
   377.14         440.5693
   377.28         442.1452
   377.42         444.2070
   377.56         446.7605
   377.70         449.7467
   377.84         452.9749
   377.98         456.1630
   378.12         458.9891
   378.26         461.1233
   378.40         462.2865
   378.54         462.3296
   378.68         461.2653
   378.82         459.2518
   378.96         456.5734
   379.10         453.5910
   379.24         450.6650
   379.38         448.1052
   379.52         446.1578
   379.66         445.0111
   379.80         444.8006
   379.94         445.5929
   380.08         447.3408
   380.22         449.8514
   380.36         452.8111
   380.50         455.8469
   380.64         458.5721
   380.78         460.6188
   380.92         461.7240
   381.06         461.8327
   381.20         461.1204
   381.34         459.9231
   381.48         458.6077
   381.62         457.4492
   381.76         456.5650
   381.90         455.9107
   382.04         455.2952
   382.18         454.4272
   382.32         453.0102
   382.46         450.8481
   382.60         447.9070
   382.74         444.3182
   382.88         440.3267
   383.02         436.2411
   383.16         432.4155
   383.30         429.2323
   383.44         427.0551
   383.58         426.1732
   383.72         426.7390
   383.86         428.7117
   384.00         431.8501
   384.14         435.7437
   384.28         439.8871
   384.42         443.7595
   384.56         446.8947
   384.70         448.9710
   384.84         449.8917
   384.98         449.7900
   385.12         448.9253
   385.26         447.5525
   385.40         445.8604
   385.54         443.9790
   385.68         442.0124
   385.82         440.0655
   385.96         438.2415
   386.10         436.6183
   386.24         435.2377
   386.38         434.0898
   386.52         433.1143
   386.66         432.2156
   386.80         431.2875
   386.94         430.2574
   387.08         429.0895
   387.22         427.7420
   387.36         426.1279
   387.50         424.0989
   387.64         421.4763
   387.78         418.1285
   387.92         414.0800
   388.06         409.5455
   388.20         404.8675
   388.34         400.4467
   388.48         396.6838
   388.62         393.9165
   388.76         392.3700
   388.90         392.1491
   389.04         393.2554
   389.18         395.6031
   389.32         399.0099
   389.46         403.1939
   389.60         407.7999
   389.74         412.4321
   389.88         416.7044
   390.02         420.2971
   390.16         422.9969
   390.30         424.7343
   390.44         425.6006
   390.58         425.7838
   390.72         425.4617
   390.86         424.7526
   391.00         423.7183
   391.14         422.3949
   391.28         420.8299
   391.42         419.1013
   391.56         417.3238
   391.70         415.6110
   391.84         413.9968
   391.98         412.4039
   392.12         410.7086
   392.26         408.8492
   392.40         406.8864
   392.54         404.9516
   392.68         403.1791
   392.82         401.6950
   392.96         400.6179
   393.10         400.0382
   393.24         399.9738
   393.38         400.3711
   393.52         401.1434
   393.66         402.1998
   393.80         403.4478
   393.94         404.7875
   394.08         406.1155
   394.22         407.3137
   394.36         408.2387
   394.50         408.7449
   394.64         408.7504
   394.78         408.2764
   394.92         407.4032
   395.06         406.1771
   395.20         404.5481
   395.34         402.3957
   395.48         399.5614
   395.62         395.8687
   395.76         391.1836
   395.90         385.5068
   396.04         379.0538
   396.18         372.2402
   396.32         365.5793
   396.46         359.5849
   396.60         354.7230
   396.74         351.3565
   396.88         349.6882
   397.02         349.7488
   397.16         351.4104
   397.30         354.4196
   397.44         358.4247
   397.58         363.0100
   397.72         367.7526
   397.86         372.2584
   398.00         376.1714
   398.14         379.2318
   398.28         381.3453
   398.42         382.5844
   398.56         383.1459
   398.70         383.2585
   398.84         383.0713
   398.98         382.6277
   399.12         381.9332
   399.26         381.0143
   399.40         379.9170
   399.54         378.6913
   399.68         377.3953
   399.82         376.0989
   399.96         374.8671
   400.10         373.7500
   400.24         372.7818
   400.38         371.9568
   400.52         371.2214
   400.66         370.4920
   400.80         369.6933
   400.94         368.7605
   401.08         367.6172
   401.22         366.1698
   401.36         364.3247
   401.50         362.0450
   401.64         359.3994
   401.78         356.5538
   401.92         353.7134
   402.06         351.0784
   402.20         348.8416
   402.34         347.1853
   402.48         346.2526
   402.62         346.1167
   402.76         346.7713
   402.90         348.1222
   403.04         349.9942
   403.18         352.1800
   403.32         354.4708
   403.46         356.6594
   403.60         358.5508
   403.74         359.9889
   403.88         360.8897
   404.02         361.2670
   404.16         361.2204
   404.30         360.8722
   404.44         360.3150
   404.58         359.6100
   404.72         358.8125
   404.86         357.9793
   405.00         357.1545
   405.14         356.3552
   405.28         355.5840
   405.42         354.8540
   405.56         354.1924
   405.70         353.6235
   405.84         353.1485
   405.98         352.7466
   406.12         352.3930
   406.26         352.0731
   406.40         351.7708
   406.54         351.4583
   406.68         351.1130
   406.82         350.7268
   406.96         350.3007
   407.10         349.8440
   407.24         349.3600
   407.38         348.8192
   407.52         348.1568
   407.66         347.2900
   407.80         346.1532
   407.94         344.7325
   408.08         343.0511
   408.22         341.1262
   408.36         338.9344
   408.50         336.4057
   408.64         333.4452
   408.78         329.9461
   408.92         325.8064
   409.06         320.9854
   409.20         315.5789
   409.34         309.8554
   409.48         304.2216
   409.62         299.1442
   409.76         295.0602
   409.90         292.3157
   410.04         291.1540
   410.18         291.7032
   410.32         293.9355
   410.46         297.6530
   410.60         302.5032
   410.74         308.0165
   410.88         313.6701
   411.02         318.9674
   411.16         323.5174
   411.30         327.0812
   411.44         329.5827
   411.58         331.1093
   411.72         331.8881
   411.86         332.2193
   412.00         332.3821
   412.14         332.5617
   412.28         332.8203
   412.42         333.1220
   412.56         333.3878
   412.70         333.5368
   412.84         333.4860
   412.98         333.1533
   413.12         332.4925
   413.26         331.5098
   413.40         330.2582
   413.54         328.8213
   413.68         327.2905
   413.82         325.7421
   413.96         324.2390
   414.10         322.8507
   414.24         321.6518
   414.38         320.6964
   414.52         320.0072
   414.66         319.5703
   414.80         319.3372
   414.94         319.2402
   415.08         319.2115
   415.22         319.1963
   415.36         319.1516
   415.50         319.0361
   415.64         318.8137
   415.78         318.4686
   415.92         318.0136
   416.06         317.4845
   416.20         316.9166
   416.34         316.3355
   416.48         315.7644
   416.62         315.2277
   416.76         314.7474
   416.90         314.3318
   417.04         313.9735
   417.18         313.6572
   417.32         313.3578
   417.46         313.0513
   417.60         312.7226
   417.74         312.3563
   417.88         311.9386
   418.02         311.4639
   418.16         310.9297
   418.30         310.3318
   418.44         309.6526
   418.58         308.8592
   418.72         307.9024
   418.86         306.7282
   419.00         305.3196
   419.14         303.7098
   419.28         301.9760
   419.42         300.2406
   419.56         298.6484
   419.70         297.3386
   419.84         296.4243
   419.98         295.9742
   420.12         296.0193
   420.26         296.5487
   420.40         297.4977
   420.54         298.7536
   420.68         300.1709
   420.82         301.5900
   420.96         302.8530
   421.10         303.8228
   421.24         304.4231
   421.38         304.6562
   421.52         304.5825
   421.66         304.2970
   421.80         303.8979
   421.94         303.4645
   422.08         303.0508
   422.22         302.6815
   422.36         302.3579
   422.50         302.0640
   422.64         301.7793
   422.78         301.4839
   422.92         301.1426
   423.06         300.7122
   423.20         300.1735
   423.34         299.5460
   423.48         298.8749
   423.62         298.2031
   423.76         297.5554
   423.90         296.9410
   424.04         296.3624
   424.18         295.8140
   424.32         295.2852
   424.46         294.7655
   424.60         294.2408
   424.74         293.7043
   424.88         293.1608
   425.02         292.6189
   425.16         292.0874
   425.30         291.5747
   425.44         291.0890
   425.58         290.6448
   425.72         290.2715
   425.86         290.0033
   426.00         289.8569
   426.14         289.8190
   426.28         289.8492
   426.42         289.8968
   426.56         289.9184
   426.70         289.8806
   426.84         289.7515
   426.98         289.5018
   427.12         289.1159
   427.26         288.5978
   427.40         287.9742
   427.54         287.2906
   427.68         286.6029
   427.82         285.9668
   427.96         285.4269
   428.10         285.0099
   428.24         284.7366
   428.38         284.6280
   428.52         284.6934
   428.66         284.9247
   428.80         285.2900
   428.94         285.7335
   429.08         286.1888
   429.22         286.5924
   429.36         286.8978
   429.50         287.0831
   429.64         287.1393
   429.78         287.0635
   429.92         286.8569
   430.06         286.5304
   430.20         286.1082
   430.34         285.6128
   430.48         285.0596
   430.62         284.4665
   430.76         283.8672
   430.90         283.3215
   431.04         282.8838
   431.18         282.5701
   431.32         282.3652
   431.46         282.2399
   431.60         282.1694
   431.74         282.1357
   431.88         282.1133
   432.02         282.0650
   432.16         281.9342
   432.30         281.6369
   432.44         281.0598
   432.58         280.0580
   432.72         278.4722
   432.86         276.1763
   433.00         273.1292
   433.14         269.4217
   433.28         265.2853
   433.42         261.0463
   433.56         257.0607
   433.70         253.6604
   433.84         251.1298
   433.98         249.6865
   434.12         249.4510
   434.26         250.4292
   434.40         252.5118
   434.54         255.4912
   434.68         259.0842
   434.82         262.9575
   434.96         266.7608
   435.10         270.1749
   435.24         272.9621
   435.38         275.0090
   435.52         276.3380
   435.66         277.0657
   435.80         277.3431
   435.94         277.3013
   436.08         277.0208
   436.22         276.5515
   436.36         275.9418
   436.50         275.2343
   436.64         274.4547
   436.78         273.6235
   436.92         272.7687
   437.06         271.9172
   437.20         271.0795
   437.34         270.2408
   437.48         269.3704
   437.62         268.4384
   437.76         267.4294
   437.90         266.3537
   438.04         265.2485
   438.18         264.1728
   438.32         263.1959
   438.46         262.3790
   438.60         261.7636
   438.74         261.3791
   438.88         261.2497
   439.02         261.3721
   439.16         261.7043
   439.30         262.1851
   439.44         262.7479
   439.58         263.3172
   439.72         263.8102
   439.86         264.1537
   440.00         264.3005
   440.14         264.2339
   440.28         263.9626
   440.42         263.5165
   440.56         262.9374
   440.70         262.2597
   440.84         261.5074
   440.98         260.6954
   441.12         259.8212
   441.26         258.8700
   441.40         257.8217
   441.54         256.6469
   441.68         255.3163
   441.82         253.8322
   441.96         252.2325
   442.10         250.5754
   442.24         248.9356
   442.38         247.3985
   442.52         246.0466
   442.66         244.9431
   442.80         244.1230
   442.94         243.5962
   443.08         243.3527
   443.22         243.3657
   443.36         243.5993
   443.50         244.0138
   443.64         244.5591
   443.78         245.1738
   443.92         245.7981
   444.06         246.3876
   444.20         246.9218
   444.34         247.4030
   444.48         247.8400
   444.62         248.2318
   444.76         248.5713
   444.90         248.8504
   445.04         249.0549
   445.18         249.1625
   445.32         249.1457
   445.46         248.9728
   445.60         248.5955
   445.74         247.9426
   445.88         246.9397
   446.02         245.5387
   446.16         243.7473
   446.30         241.6453
   446.44         239.3728
   446.58         237.1041
   446.72         235.0205
   446.86         233.2876
   447.00         232.0382
   447.14         231.3646
   447.28         231.3218
   447.42         231.9257
   447.56         233.1306
   447.70         234.8145
   447.84         236.7934
   447.98         238.8522
   448.12         240.7755
   448.26         242.3720
   448.40         243.5124
   448.54         244.1593
   448.68         244.3647
   448.82         244.2363
   448.96         243.8876
   449.10         243.4117
   449.24         242.8878
   449.38         242.3862
   449.52         241.9625
   449.66         241.6519
   449.80         241.4600
   449.94         241.3560
   450.08         241.2663
   450.22         241.0818
   450.36         240.6960
   450.50         240.0516
   450.64         239.1599
   450.78         238.0837
   450.92         236.9059
   451.06         235.7142
   451.20         234.6004
   451.34         233.6555
   451.48         232.9503
   451.62         232.5165
   451.76         232.3476
   451.90         232.4052
   452.04         232.6197
   452.18         232.8989
   452.32         233.1498
   452.46         233.2917
   452.60         233.2542
   452.74         232.9737
   452.88         232.4009
   453.02         231.5290
   453.16         230.4117
   453.30         229.1438
   453.44         227.8307
   453.58         226.5708
   453.72         225.4592
   453.86         224.5907
   454.00         224.0454
   454.14         223.8701
   454.28         224.0735
   454.42         224.6361
   454.56         225.5114
   454.70         226.6234
   454.84         227.8684
   454.98         229.1276
   455.12         230.2800
   455.26         231.2132
   455.40         231.8470
   455.54         232.1544
   455.68         232.1694
   455.82         231.9662
   455.96         231.6220
   456.10         231.1977
   456.24         230.7421
   456.38         230.3029
   456.52         229.9200
   456.66         229.6135
   456.80         229.3834
   456.94         229.2129
   457.08         229.0753
   457.22         228.9468
   457.36         228.8146
   457.50         228.6721
   457.64         228.5178
   457.78         228.3499
   457.92         228.1602
   458.06         227.9367
   458.20         227.6697
   458.34         227.3616
   458.48         227.0243
   458.62         226.6655
   458.76         226.2838
   458.90         225.8766
   459.04         225.4424
   459.18         224.9751
   459.32         224.4725
   459.46         223.9452
   459.60         223.4162
   459.74         222.9199
   459.88         222.4948
   460.02         222.1676
   460.16         221.9515
   460.30         221.8524
   460.44         221.8674
   460.58         221.9874
   460.72         222.1958
   460.86         222.4738
   461.00         222.8085
   461.14         223.1814
   461.28         223.5570
   461.42         223.8956
   461.56         224.1708
   461.70         224.3657
   461.84         224.4736
   461.98         224.5102
   462.12         224.5171
   462.26         224.5474
   462.40         224.6435
   462.54         224.8285
   462.68         225.1138
   462.82         225.5057
   462.96         225.9979
   463.10         226.5626
   463.24         227.1489
   463.38         227.6805
   463.52         228.0716
   463.66         228.2457
   463.80         228.1429
   463.94         227.7303
   464.08         227.0221
   464.22         226.0777
   464.36         224.9836
   464.50         223.8396
   464.64         222.7403
   464.78         221.7583
   464.92         220.9427
   465.06         220.3268
   465.20         219.9329
   465.34         219.7663
   465.48         219.8032
   465.62         219.9834
   465.76         220.2176
   465.90         220.4097
   466.04         220.4893
   466.18         220.4194
   466.32         220.1947
   466.46         219.8400
   466.60         219.3943
   466.74         218.8978
   466.88         218.3895
   467.02         217.9048
   467.16         217.4658
   467.30         217.0845
   467.44         216.7762
   467.58         216.5654
   467.72         216.4620
   467.86         216.4396
   468.00         216.4526
   468.14         216.4589
   468.28         216.4288
   468.42         216.3443
   468.56         216.1950
   468.70         215.9726
   468.84         215.6659
   468.98         215.2797
   469.12         214.8477
   469.26         214.4164
   469.40         214.0231
   469.54         213.6866
   469.68         213.4003
   469.82         213.1299
   469.96         212.8260
   470.10         212.4412
   470.24         211.9430
   470.38         211.3114
   470.52         210.5446
   470.66         209.6676
   470.80         208.7249
   470.94         207.7672
   471.08         206.8409
   471.22         205.9881
   471.36         205.2511
   471.50         204.6668
   471.64         204.2623
   471.78         204.0511
   471.92         204.0202
   472.06         204.1192
   472.20         204.2750
   472.34         204.4113
   472.48         204.4581
   472.62         204.3759
   472.76         204.1700
   472.90         203.8707
   473.04         203.5049
   473.18         203.0875
   473.32         202.6374
   473.46         202.1796
   473.60         201.7342
   473.74         201.3167
   473.88         200.9489
   474.02         200.6589
   474.16         200.4580
   474.30         200.3293
   474.44         200.2356
   474.58         200.1294
   474.72         199.9633
   474.86         199.6980
   475.00         199.3120
   475.14         198.8177
   475.28         198.2648
   475.42         197.7120
   475.56         197.2052
   475.70         196.7835
   475.84         196.4824
   475.98         196.3304
   476.12         196.3361
   476.26         196.4898
   476.40         196.7617
   476.54         197.0868
   476.68         197.3716
   476.82         197.5219
   476.96         197.4740
   477.10         197.2096
   477.24         196.7476
   477.38         196.1274
   477.52         195.3967
   477.66         194.6095
   477.80         193.8309
   477.94         193.1254
   478.08         192.5383
   478.22         192.0909
   478.36         191.7855
   478.50         191.6086
   478.64         191.5239
   478.78         191.4833
   478.92         191.4472
   479.06         191.3841
   479.20         191.2652
   479.34         191.0780
   479.48         190.8333
   479.62         190.5491
   479.76         190.2405
   479.90         189.9238
   480.04         189.6273
   480.18         189.3880
   480.32         189.2339
   480.46         189.1800
   480.60         189.2281
   480.74         189.3586
   480.88         189.5380
   481.02         189.7251
   481.16         189.8677
   481.30         189.9153
   481.44         189.8462
   481.58         189.6700
   481.72         189.4023
   481.86         189.0543
   482.00         188.6501
   482.14         188.2322
   482.28         187.8459
   482.42         187.5241
   482.56         187.2883
   482.70         187.1525
   482.84         187.1082
   482.98         187.1219
   483.12         187.1561
   483.26         187.1832
   483.40         187.1808
   483.54         187.1299
   483.68         187.0115
   483.82         186.8084
   483.96         186.5194
   484.10         186.1588
   484.24         185.7287
   484.38         185.1948
   484.52         184.4950
   484.66         183.5571
   484.80         182.3055
   484.94         180.6794
   485.08         178.6672
   485.22         176.3342
   485.36         173.8166
   485.50         171.2897
   485.64         168.9501
   485.78         166.9963
   485.92         165.5958
   486.06         164.8547
   486.20         164.8079
   486.34         165.4264
   486.48         166.6238
   486.62         168.2640
   486.76         170.1706
   486.90         172.1365
   487.04         173.9511
   487.18         175.4377
   487.32         176.4849
   487.46         177.0616
   487.60         177.2158
   487.74         177.0568
   487.88         176.7166
   488.02         176.3131
   488.16         175.9377
   488.30         175.6501
   488.44         175.4768
   488.58         175.4183
   488.72         175.4582
   488.86         175.5701
   489.00         175.7246
   489.14         175.8887
   489.28         176.0265
   489.42         176.1025
   489.56         176.0913
   489.70         175.9856
   489.84         175.8044
   489.98         175.5945
   490.12         175.4158
   490.26         175.3309
   490.40         175.3863
   490.54         175.5901
   490.68         175.9036
   490.82         176.2519
   490.96         176.5377
   491.10         176.6651
   491.24         176.5710
   491.38         176.2397
   491.52         175.7011
   491.66         175.0240
   491.80         174.3009
   491.94         173.6213
   492.08         173.0505
   492.22         172.6362
   492.36         172.4132
   492.50         172.3932
   492.64         172.5638
   492.78         172.8882
   492.92         173.3051
   493.06         173.7447
   493.20         174.1466
   493.34         174.4654
   493.48         174.6804
   493.62         174.8031
   493.76         174.8737
   493.90         174.9402
   494.04         175.0253
   494.18         175.1186
   494.32         175.2011
   494.46         175.2532
   494.60         175.2484
   494.74         175.1684
   494.88         175.0173
   495.02         174.8083
   495.16         174.5480
   495.30         174.2412
   495.44         173.8887
   495.58         173.4855
   495.72         173.0318
   495.86         172.5332
   496.00         171.9997
   496.14         171.4506
   496.28         170.9037
   496.42         170.3674
   496.56         169.8499
   496.70         169.3716
   496.84         168.9629
   496.98         168.6440
   497.12         168.4098
   497.26         168.2396
   497.40         168.1090
   497.54         167.9951
   497.68         167.8859
   497.82         167.7801
   497.96         167.6796
   498.10         167.5896
   498.24         167.5240
   498.38         167.5059
   498.52         167.5572
   498.66         167.6854
   498.80         167.8772
   498.94         168.1052
   499.08         168.3450
   499.22         168.5813
   499.36         168.7994
   499.50         168.9745
   499.64         169.0828
   499.78         169.1199
   499.92         169.0850
   500.06         168.9653
   500.20         168.7446
   500.34         168.4132
   500.48         167.9733
   500.62         167.4515
   500.76         166.8976
   500.90         166.3620
   501.04         165.8791
   501.18         165.4623
   501.32         165.1055
   501.46         164.7854
   501.60         164.4698
   501.74         164.1306
   501.88         163.7416
   502.02         163.2808
   502.16         162.7423
   502.30         162.1412
   502.44         161.5013
   502.58         160.8380
   502.72         160.1705
   502.86         159.5333
   503.00         158.9688
   503.14         158.5193
   503.28         158.2121
   503.42         158.0390
   503.56         157.9662
   503.70         157.9512
   503.84         157.9527
   503.98         157.9422
   504.12         157.9034
   504.26         157.8334
   504.40         157.7423
   504.54         157.6492
   504.68         157.5843
   504.82         157.5758
   504.96         157.6284
   505.10         157.7238
   505.24         157.8381
   505.38         157.9591
   505.52         158.0862
   505.66         158.2178
   505.80         158.3449
   505.94         158.4520
   506.08         158.5212
   506.22         158.5421
   506.36         158.5072
   506.50         158.4087
   506.64         158.2446
   506.78         158.0195
   506.92         157.7443
   507.06         157.4290
   507.20         157.0840
   507.34         156.7205
   507.48         156.3493
   507.62         155.9846
   507.76         155.6451
   507.90         155.3504
   508.04         155.1166
   508.18         154.9421
   508.32         154.8029
   508.46         154.6678
   508.60         154.5089
   508.74         154.3041
   508.88         154.0329
   509.02         153.6774
   509.16         153.2297
   509.30         152.6988
   509.44         152.1125
   509.58         151.5112
   509.72         150.9383
   509.86         150.4320
   510.00         150.0261
   510.14         149.7432
   510.28         149.5844
   510.42         149.5315
   510.56         149.5590
   510.70         149.6402
   510.84         149.7456
   510.98         149.8480
   511.12         149.9298
   511.26         149.9830
   511.40         150.0139
   511.54         150.0412
   511.68         150.0850
   511.82         150.1604
   511.96         150.2789
   512.10         150.4429
   512.24         150.6339
   512.38         150.8137
   512.52         150.9464
   512.66         151.0131
   512.80         151.0142
   512.94         150.9635
   513.08         150.8755
   513.22         150.7608
   513.36         150.6318
   513.50         150.5090
   513.64         150.4078
   513.78         150.3316
   513.92         150.2821
   514.06         150.2589
   514.20         150.2458
   514.34         150.2208
   514.48         150.1758
   514.62         150.1054
   514.76         149.9991
   514.90         149.8465
   515.04         149.6444
   515.18         149.3922
   515.32         149.0906
   515.46         148.7431
   515.60         148.3494
   515.74         147.9060
   515.88         147.4187
   516.02         146.9020
   516.16         146.3713
   516.30         145.8405
   516.44         145.3339
   516.58         144.8879
   516.72         144.5257
   516.86         144.2538
   517.00         144.0767
   517.14         143.9863
   517.28         143.9528
   517.42         143.9403
   517.56         143.9202
   517.70         143.8759
   517.84         143.8021
   517.98         143.7017
   518.12         143.5798
   518.26         143.4403
   518.40         143.2817
   518.54         143.1004
   518.68         142.8976
   518.82         142.6839
   518.96         142.4775
   519.10         142.2892
   519.24         142.1112
   519.38         141.9307
   519.52         141.7523
   519.66         141.5879
   519.80         141.4388
   519.94         141.3014
   520.08         141.1783
   520.22         141.0805
   520.36         141.0130
   520.50         140.9681
   520.64         140.9372
   520.78         140.9206
   520.92         140.9159
   521.06         140.9140
   521.20         140.9081
   521.34         140.8914
   521.48         140.8566
   521.62         140.7978
   521.76         140.7073
   521.90         140.5862
   522.04         140.4551
   522.18         140.3302
   522.32         140.2066
   522.46         140.0701
   522.60         139.9064
   522.74         139.7054
   522.88         139.4544
   523.02         139.1445
   523.16         138.7845
   523.30         138.3937
   523.44         137.9886
   523.58         137.5741
   523.72         137.1484
   523.86         136.7099
   524.00         136.2638
   524.14         135.8264
   524.28         135.4176
   524.42         135.0537
   524.56         134.7487
   524.70         134.5052
   524.84         134.3028
   524.98         134.1137
   525.12         133.9234
   525.26         133.7367
   525.40         133.5733
   525.54         133.4520
   525.68         133.3867
   525.82         133.3822
   525.96         133.4255
   526.10         133.4936
   526.24         133.5619
   526.38         133.6063
   526.52         133.6063
   526.66         133.5476
   526.80         133.4226
   526.94         133.2276
   527.08         132.9658
   527.22         132.6511
   527.36         132.3054
   527.50         131.9560
   527.64         131.6373
   527.78         131.3919
   527.92         131.2531
   528.06         131.2309
   528.20         131.3113
   528.34         131.4632
   528.48         131.6450
   528.62         131.8101
   528.76         131.9151
   528.90         131.9287
   529.04         131.8345
   529.18         131.6322
   529.32         131.3426
   529.46         131.0023
   529.60         130.6496
   529.74         130.3211
   529.88         130.0505
   530.02         129.8606
   530.16         129.7600
   530.30         129.7445
   530.44         129.8006
   530.58         129.9028
   530.72         130.0155
   530.86         130.1008
   531.00         130.1275
   531.14         130.0776
   531.28         129.9477
   531.42         129.7456
   531.56         129.4885
   531.70         129.1964
   531.84         128.8875
   531.98         128.5826
   532.12         128.3033
   532.26         128.0689
   532.40         127.8915
   532.54         127.7707
   532.68         127.6948
   532.82         127.6451
   532.96         127.6006
   533.10         127.5421
   533.24         127.4522
   533.38         127.3172
   533.52         127.1327
   533.66         126.9042
   533.80         126.6405
   533.94         126.3481
   534.08         126.0273
   534.22         125.6761
   534.36         125.2950
   534.50         124.8882
   534.64         124.4603
   534.78         124.0125
   534.92         123.5449
   535.06         123.0612
   535.20         122.5751
   535.34         122.1121
   535.48         121.7036
   535.62         121.3817
   535.76         121.1712
   535.90         121.0839
   536.04         121.1218
   536.18         121.2762
   536.32         121.5240
   536.46         121.8309
   536.60         122.1565
   536.74         122.4646
   536.88         122.7309
   537.02         122.9418
   537.16         123.0882
   537.30         123.1608
   537.44         123.1570
   537.58         123.0845
   537.72         122.9602
   537.86         122.8064
   538.00         122.6425
   538.14         122.4784
   538.28         122.3156
   538.42         122.1493
   538.56         121.9734
   538.70         121.7890
   538.84         121.6030
   538.98         121.4223
   539.12         121.2502
   539.26         121.0808
   539.40         120.9006
   539.54         120.6916
   539.68         120.4311
   539.82         120.0866
   539.96         119.6183
   540.10         118.9997
   540.24         118.2367
   540.38         117.3686
   540.52         116.4549
   540.66         115.5614
   540.80         114.7550
   540.94         114.1018
   541.08         113.6593
   541.22         113.4660
   541.36         113.5350
   541.50         113.8425
   541.64         114.3312
   541.78         114.9279
   541.92         115.5571
   542.06         116.1491
   542.20         116.6405
   542.34         116.9788
   542.48         117.1366
   542.62         117.1235
   542.76         116.9845
   542.90         116.7782
   543.04         116.5521
   543.18         116.3345
   543.32         116.1400
   543.46         115.9764
   543.60         115.8456
   543.74         115.7349
   543.88         115.6207
   544.02         115.4847
   544.16         115.3154
   544.30         115.1126
   544.44         114.8858
   544.58         114.6449
   544.72         114.4007
   544.86         114.1649
   545.00         113.9524
   545.14         113.7744
   545.28         113.6298
   545.42         113.5057
   545.56         113.3862
   545.70         113.2617
   545.84         113.1309
   545.98         112.9983
   546.12         112.8713
   546.26         112.7542
   546.40         112.6471
   546.54         112.5519
   546.68         112.4707
   546.82         112.4028
   546.96         112.3479
   547.10         112.3062
   547.24         112.2769
   547.38         112.2571
   547.52         112.2379
   547.66         112.2037
   547.80         112.1388
   547.94         112.0344
   548.08         111.8921
   548.22         111.7217
   548.36         111.5350
   548.50         111.3429
   548.64         111.1566
   548.78         110.9856
   548.92         110.8325
   549.06         110.6944
   549.20         110.5719
   549.34         110.4700
   549.48         110.3947
   549.62         110.3474
   549.76         110.3194
   549.90         110.2971
   550.04         110.2700
   550.18         110.2291
   550.32         110.1644
   550.46         110.0679
   550.60         109.9356
   550.74         109.7653
   550.88         109.5583
   551.02         109.3207
   551.16         109.0609
   551.30         108.7876
   551.44         108.5104
   551.58         108.2409
   551.72         107.9946
   551.86         107.7873
   552.00         107.6238
   552.14         107.4951
   552.28         107.3863
   552.42         107.2837
   552.56         107.1783
   552.70         107.0623
   552.84         106.9301
   552.98         106.7850
   553.12         106.6355
   553.26         106.4905
   553.40         106.3598
   553.54         106.2513
   553.68         106.1693
   553.82         106.1122
   553.96         106.0741
   554.10         106.0469
   554.24         106.0166
   554.38         105.9685
   554.52         105.8924
   554.66         105.7848
   554.80         105.6524
   554.94         105.5128
   555.08         105.3868
   555.22         105.2882
   555.36         105.2188
   555.50         105.1717
   555.64         105.1305
   555.78         105.0698
   555.92         104.9704
   556.06         104.8237
   556.20         104.6268
   556.34         104.3839
   556.48         104.1071
   556.62         103.8171
   556.76         103.5387
   556.90         103.2951
   557.04         103.1074
   557.18         102.9872
   557.32         102.9343
   557.46         102.9378
   557.60         102.9740
   557.74         103.0085
   557.88         103.0009
   558.02         102.9116
   558.16         102.7149
   558.30         102.4089
   558.44         102.0161
   558.58         101.5761
   558.72         101.1312
   558.86         100.7211
   559.00         100.3803
   559.14         100.1331
   559.28         99.9910
   559.42         99.9501
   559.56         99.9967
   559.70         100.1102
   559.84         100.2631
   559.98         100.4241
   560.12         100.5592
   560.26         100.6330
   560.40         100.6173
   560.54         100.5017
   560.68         100.2972
   560.82         100.0315
   560.96         99.7373
   561.10         99.4411
   561.24         99.1588
   561.38         98.8963
   561.52         98.6548
   561.66         98.4352
   561.80         98.2397
   561.94         98.0709
   562.08         97.9311
   562.22         97.8244
   562.36         97.7533
   562.50         97.7152
   562.64         97.7004
   562.78         97.6972
   562.92         97.6974
   563.06         97.6980
   563.20         97.6982
   563.34         97.6974
   563.48         97.6943
   563.62         97.6897
   563.76         97.6872
   563.90         97.6844
   564.04         97.6751
   564.18         97.6584
   564.32         97.6351
   564.46         97.6048
   564.60         97.5630
   564.74         97.5035
   564.88         97.4222
   565.02         97.3196
   565.16         97.2004
   565.30         97.0712
   565.44         96.9420
   565.58         96.8212
   565.72         96.7109
   565.86         96.6074
   566.00         96.5037
   566.14         96.3902
   566.28         96.2580
   566.42         96.0983
   566.56         95.9013
   566.70         95.6661
   566.84         95.3967
   566.98         95.0985
   567.12         94.7903
   567.26         94.4988
   567.40         94.2520
   567.54         94.0766
   567.68         93.9907
   567.82         93.9963
   567.96         94.0807
   568.10         94.2247
   568.24         94.4144
   568.38         94.6494
   568.52         94.9307
   568.66         95.2502
   568.80         95.5909
   568.94         95.9263
   569.08         96.2189
   569.22         96.4285
   569.36         96.5252
   569.50         96.4927
   569.64         96.3311
   569.78         96.0546
   569.92         95.6838
   570.06         95.2434
   570.20         94.7614
   570.34         94.2692
   570.48         93.8009
   570.62         93.3875
   570.76         93.0526
   570.90         92.8075
   571.04         92.6499
   571.18         92.5611
   571.32         92.5105
   571.46         92.4665
   571.60         92.4031
   571.74         92.3036
   571.88         92.1628
   572.02         91.9885
   572.16         91.7978
   572.30         91.6104
   572.44         91.4395
   572.58         91.2899
   572.72         91.1594
   572.86         91.0442
   573.00         90.9434
   573.14         90.8509
   573.28         90.7521
   573.42         90.6335
   573.56         90.4894
   573.70         90.3234
   573.84         90.1362
   573.98         89.9212
   574.12         89.6776
   574.26         89.4184
   574.40         89.1640
   574.54         88.9352
   574.68         88.7484
   574.82         88.6116
   574.96         88.5212
   575.10         88.4660
   575.24         88.4332
   575.38         88.4097
   575.52         88.3832
   575.66         88.3430
   575.80         88.2781
   575.94         88.1840
   576.08         88.0623
   576.22         87.9170
   576.36         87.7505
   576.50         87.5611
   576.64         87.3469
   576.78         87.1080
   576.92         86.8463
   577.06         86.5654
   577.20         86.2678
   577.34         85.9615
   577.48         85.6625
   577.62         85.3874
   577.76         85.1494
   577.90         84.9520
   578.04         84.7949
   578.18         84.6779
   578.32         84.5952
   578.46         84.5359
   578.60         84.4851
   578.74         84.4210
   578.88         84.3251
   579.02         84.1880
   579.16         84.0104
   579.30         83.8019
   579.44         83.5822
   579.58         83.3782
   579.72         83.2129
   579.86         83.0949
   580.00         83.0228
   580.14         82.9905
   580.28         82.9923
   580.42         83.0263
   580.56         83.0908
   580.70         83.1862
   580.84         83.3102
   580.98         83.4558
   581.12         83.6163
   581.26         83.7863
   581.40         83.9611
   581.54         84.1355
   581.68         84.2968
   581.82         84.4241
   581.96         84.4977
   582.10         84.5082
   582.24         84.4559
   582.38         84.3450
   582.52         84.1863
   582.66         84.0018
   582.80         83.8232
   582.94         83.6801
   583.08         83.5878
   583.22         83.5467
   583.36         83.5514
   583.50         83.5969
   583.64         83.6731
   583.78         83.7603
   583.92         83.8335
   584.06         83.8719
   584.20         83.8623
   584.34         83.7973
   584.48         83.6798
   584.62         83.5302
   584.76         83.3816
   584.90         83.2647
   585.04         83.1950
   585.18         83.1702
   585.32         83.1753
   585.46         83.1867
   585.60         83.1807
   585.74         83.1373
   585.88         83.0319
   586.02         82.8322
   586.16         82.4991
   586.30         81.9909
   586.44         81.2873
   586.58         80.4165
   586.72         79.4492
   586.86         78.4746
   587.00         77.5847
   587.14         76.8697
   587.28         76.4068
   587.42         76.2347
   587.56         76.3308
   587.70         76.6115
   587.84         76.9635
   587.98         77.2932
   588.12         77.5390
   588.26         77.6464
   588.40         77.5539
   588.54         77.2177
   588.68         76.6488
   588.82         75.9198
   588.96         75.1499
   589.10         74.4815
   589.24         74.0455
   589.38         73.9288
   589.52         74.1639
   589.66         74.7320
   589.80         75.5712
   589.94         76.5871
   590.08         77.6665
   590.22         78.6992
   590.36         79.6018
   590.50         80.3323
   590.64         80.8813
   590.78         81.2436
   590.92         81.4116
   591.06         81.3996
   591.20         81.2617
   591.34         81.0663
   591.48         80.8637
   591.62         80.6817
   591.76         80.5288
   591.90         80.4082
   592.04         80.3259
   592.18         80.2870
   592.32         80.2927
   592.46         80.3455
   592.60         80.4477
   592.74         80.5995
   592.88         80.7936
   593.02         81.0081
   593.16         81.2157
   593.30         81.3906
   593.44         81.5093
   593.58         81.5485
   593.72         81.4885
   593.86         81.3191
   594.00         81.0365
   594.14         80.6469
   594.28         80.1725
   594.42         79.6475
   594.56         79.1107
   594.70         78.5938
   594.84         78.1186
   594.98         77.7022
   595.12         77.3586
   595.26         77.0944
   595.40         76.9162
   595.54         76.8310
   595.68         76.8440
   595.82         76.9596
   595.96         77.1715
   596.10         77.4572
   596.24         77.7853
   596.38         78.1207
   596.52         78.4292
   596.66         78.6846
   596.80         78.8704
   596.94         78.9757
   597.08         78.9895
   597.22         78.9024
   597.36         78.7162
   597.50         78.4482
   597.64         78.1290
   597.78         77.7963
   597.92         77.4850
   598.06         77.2242
   598.20         77.0323
   598.34         76.9143
   598.48         76.8604
   598.62         76.8462
   598.76         76.8441
   598.90         76.8321
   599.04         76.7966
   599.18         76.7325
   599.32         76.6459
   599.46         76.5510
   599.60         76.4626
   599.74         76.3885
   599.88         76.3314
   600.02         76.2931
   600.16         76.2739
   600.30         76.2755
   600.44         76.2955
   600.58         76.3227
   600.72         76.3434
   600.86         76.3470
   601.00         76.3292
   601.14         76.2922
   601.28         76.2432
   601.42         76.1965
   601.56         76.1658
   601.70         76.1524
   601.84         76.1429
   601.98         76.1190
   602.12         76.0634
   602.26         75.9591
   602.40         75.7907
   602.54         75.5518
   602.68         75.2509
   602.82         74.9069
   602.96         74.5390
   603.10         74.1637
   603.24         73.8024
   603.38         73.4856
   603.52         73.2455
   603.66         73.1041
   603.80         73.0622
   603.94         73.1007
   604.08         73.1915
   604.22         73.3021
   604.36         73.4049
   604.50         73.4879
   604.64         73.5515
   604.78         73.5986
   604.92         73.6285
   605.06         73.6390
   605.20         73.6304
   605.34         73.6081
   605.48         73.5814
   605.62         73.5608
   605.76         73.5585
   605.90         73.5833
   606.04         73.6319
   606.18         73.6866
   606.32         73.7227
   606.46         73.7177
   606.60         73.6612
   606.74         73.5523
   606.88         73.3961
   607.02         73.2018
   607.16         72.9775
   607.30         72.7309
   607.44         72.4722
   607.58         72.2124
   607.72         71.9636
   607.86         71.7372
   608.00         71.5413
   608.14         71.3759
   608.28         71.2321
   608.42         71.1002
   608.56         70.9758
   608.70         70.8584
   608.84         70.7474
   608.98         70.6464
   609.12         70.5666
   609.26         70.5201
   609.40         70.5148
   609.54         70.5525
   609.68         70.6315
   609.82         70.7489
   609.96         70.8986
   610.10         71.0668
   610.24         71.2325
   610.38         71.3748
   610.52         71.4763
   610.66         71.5230
   610.80         71.5104
   610.94         71.4487
   611.08         71.3578
   611.22         71.2588
   611.36         71.1658
   611.50         71.0842
   611.64         71.0180
   611.78         70.9724
   611.92         70.9493
   612.06         70.9453
   612.20         70.9549
   612.34         70.9721
   612.48         70.9847
   612.62         70.9744
   612.76         70.9261
   612.90         70.8349
   613.04         70.7075
   613.18         70.5589
   613.32         70.4061
   613.46         70.2643
   613.60         70.1418
   613.74         70.0411
   613.88         69.9620
   614.02         69.9017
   614.16         69.8572
   614.30         69.8291
   614.44         69.8173
   614.58         69.8118
   614.72         69.7978
   614.86         69.7663
   615.00         69.7134
   615.14         69.6351
   615.28         69.5306
   615.42         69.4084
   615.56         69.2794
   615.70         69.1456
   615.84         69.0017
   615.98         68.8421
   616.12         68.6647
   616.26         68.4724
   616.40         68.2717
   616.54         68.0670
   616.68         67.8605
   616.82         67.6565
   616.96         67.4622
   617.10         67.2870
   617.24         67.1405
   617.38         67.0337
   617.52         66.9768
   617.66         66.9714
   617.80         67.0115
   617.94         67.0882
   618.08         67.1904
   618.22         67.3021
   618.36         67.4079
   618.50         67.4991
   618.64         67.5698
   618.78         67.6119
   618.92         67.6171
   619.06         67.5780
   619.20         67.4902
   619.34         67.3574
   619.48         67.1955
   619.62         67.0268
   619.76         66.8740
   619.90         66.7563
   620.04         66.6872
   620.18         66.6729
   620.32         66.7094
   620.46         66.7826
   620.60         66.8731
   620.74         66.9587
   620.88         67.0175
   621.02         67.0338
   621.16         66.9996
   621.30         66.9146
   621.44         66.7873
   621.58         66.6313
   621.72         66.4594
   621.86         66.2830
   622.00         66.1159
   622.14         65.9705
   622.28         65.8496
   622.42         65.7487
   622.56         65.6616
   622.70         65.5814
   622.84         65.5047
   622.98         65.4347
   623.12         65.3791
   623.26         65.3474
   623.40         65.3454
   623.54         65.3751
   623.68         65.4386
   623.82         65.5340
   623.96         65.6534
   624.10         65.7876
   624.24         65.9279
   624.38         66.0648
   624.52         66.1890
   624.66         66.2945
   624.80         66.3769
   624.94         66.4339
   625.08         66.4665
   625.22         66.4752
   625.36         66.4582
   625.50         66.4169
   625.64         66.3536
   625.78         66.2648
   625.92         66.1432
   626.06         65.9848
   626.20         65.7939
   626.34         65.5795
   626.48         65.3469
   626.62         65.0945
   626.76         64.8157
   626.90         64.5001
   627.04         64.1335
   627.18         63.7037
   627.32         63.2107
   627.46         62.6701
   627.60         62.1113
   627.74         61.5708
   627.88         61.0859
   628.02         60.6931
   628.16         60.4249
   628.30         60.3040
   628.44         60.3404
   628.58         60.5319
   628.72         60.8652
   628.86         61.3138
   629.00         61.8351
   629.14         62.3760
   629.28         62.8822
   629.42         63.3069
   629.56         63.6165
   629.70         63.7908
   629.84         63.8254
   629.98         63.7351
   630.12         63.5514
   630.26         63.3107
   630.40         63.0463
   630.54         62.7882
   630.68         62.5624
   630.82         62.3881
   630.96         62.2762
   631.10         62.2295
   631.24         62.2441
   631.38         62.3100
   631.52         62.4109
   631.66         62.5262
   631.80         62.6384
   631.94         62.7346
   632.08         62.8080
   632.22         62.8581
   632.36         62.8885
   632.50         62.9055
   632.64         62.9177
   632.78         62.9315
   632.92         62.9467
   633.06         62.9558
   633.20         62.9466
   633.34         62.9088
   633.48         62.8392
   633.62         62.7416
   633.76         62.6239
   633.90         62.4962
   634.04         62.3685
   634.18         62.2489
   634.32         62.1440
   634.46         62.0591
   634.60         61.9964
   634.74         61.9593
   634.88         61.9522
   635.02         61.9729
   635.16         62.0123
   635.30         62.0598
   635.44         62.1057
   635.58         62.1406
   635.72         62.1577
   635.86         62.1536
   636.00         62.1276
   636.14         62.0782
   636.28         62.0032
   636.42         61.9012
   636.56         61.7724
   636.70         61.6164
   636.84         61.4335
   636.98         61.2269
   637.12         61.0044
   637.26         60.7788
   637.40         60.5668
   637.54         60.3822
   637.68         60.2331
   637.82         60.1268
   637.96         60.0695
   638.10         60.0605
   638.24         60.0940
   638.38         60.1607
   638.52         60.2463
   638.66         60.3348
   638.80         60.4133
   638.94         60.4730
   639.08         60.5076
   639.22         60.5127
   639.36         60.4856
   639.50         60.4278
   639.64         60.3466
   639.78         60.2538
   639.92         60.1612
   640.06         60.0767
   640.20         60.0048
   640.34         59.9485
   640.48         59.9078
   640.62         59.8798
   640.76         59.8618
   640.90         59.8525
   641.04         59.8490
   641.18         59.8470
   641.32         59.8430
   641.46         59.8360
   641.60         59.8277
   641.74         59.8210
   641.88         59.8212
   642.02         59.8335
   642.16         59.8604
   642.30         59.9018
   642.44         59.9546
   642.58         60.0088
   642.72         60.0489
   642.86         60.0618
   643.00         60.0378
   643.14         59.9714
   643.28         59.8653
   643.42         59.7289
   643.56         59.5727
   643.70         59.4027
   643.84         59.2239
   643.98         59.0458
   644.12         58.8779
   644.26         58.7279
   644.40         58.6004
   644.54         58.4959
   644.68         58.4105
   644.82         58.3396
   644.96         58.2831
   645.10         58.2407
   645.24         58.2068
   645.38         58.1789
   645.52         58.1621
   645.66         58.1620
   645.80         58.1784
   645.94         58.2058
   646.08         58.2335
   646.22         58.2472
   646.36         58.2343
   646.50         58.1915
   646.64         58.1242
   646.78         58.0410
   646.92         57.9557
   647.06         57.8836
   647.20         57.8333
   647.34         57.8045
   647.48         57.7931
   647.62         57.7947
   647.76         57.8050
   647.90         57.8209
   648.04         57.8440
   648.18         57.8756
   648.32         57.9110
   648.46         57.9418
   648.60         57.9625
   648.74         57.9718
   648.88         57.9727
   649.02         57.9721
   649.16         57.9772
   649.30         57.9919
   649.44         58.0155
   649.58         58.0411
   649.72         58.0579
   649.86         58.0572
   650.00         58.0405
   650.14         58.0191
   650.28         58.0049
   650.42         58.0038
   650.56         58.0173
   650.70         58.0433
   650.84         58.0774
   650.98         58.1126
   651.12         58.1403
   651.26         58.1507
   651.40         58.1341
   651.54         58.0819
   651.68         57.9868
   651.82         57.8446
   651.96         57.6571
   652.10         57.4352
   652.24         57.1976
   652.38         56.9709
   652.52         56.7848
   652.66         56.6623
   652.80         56.6163
   652.94         56.6513
   653.08         56.7654
   653.22         56.9507
   653.36         57.1906
   653.50         57.4638
   653.64         57.7481
   653.78         58.0235
   653.92         58.2768
   654.06         58.4986
   654.20         58.6795
   654.34         58.8128
   654.48         58.8951
   654.62         58.9273
   654.76         58.9135
   654.90         58.8633
   655.04         58.7939
   655.18         58.7269
   655.32         58.6862
   655.46         58.6960
   655.60         58.7739
   655.74         58.9270
   655.88         59.1499
   656.02         59.4276
   656.16         59.7414
   656.30         60.0689
   656.44         60.3817
   656.58         60.6461
   656.72         60.8272
   656.86         60.8986
   657.00         60.8485
   657.14         60.6804
   657.28         60.4137
   657.42         60.0791
   657.56         59.7127
   657.70         59.3475
   657.84         59.0049
   657.98         58.6928
   658.12         58.4092
   658.26         58.1463
   658.40         57.8973
   658.54         57.6572
   658.68         57.4238
   658.82         57.1977
   658.96         56.9792
   659.10         56.7682
   659.24         56.5659
   659.38         56.3748
   659.52         56.1989
   659.66         56.0440
   659.80         55.9156
   659.94         55.8128
   660.08         55.7278
   660.22         55.6511
   660.36         55.5748
   660.50         55.4934
   660.64         55.4077
   660.78         55.3208
   660.92         55.2345
   661.06         55.1502
   661.20         55.0683
   661.34         54.9903
   661.48         54.9192
   661.62         54.8567
   661.76         54.8026
   661.90         54.7546
   662.04         54.7113
   662.18         54.6751
   662.32         54.6470
   662.46         54.6240
   662.60         54.6009
   662.74         54.5741
   662.88         54.5438
   663.02         54.5105
   663.16         54.4731
   663.30         54.4308
   663.44         54.3814
   663.58         54.3234
   663.72         54.2565
   663.86         54.1820
   664.00         54.1031
   664.14         54.0215
   664.28         53.9349
   664.42         53.8404
   664.56         53.7339
   664.70         53.6123
   664.84         53.4756
   664.98         53.3272
   665.12         53.1769
   665.26         53.0349
   665.40         52.9088
   665.54         52.8057
   665.68         52.7298
   665.82         52.6818
   665.96         52.6576
   666.10         52.6454
   666.24         52.6259
   666.38         52.5740
   666.52         52.4638
   666.66         52.2763
   666.80         52.0039
   666.94         51.6536
   667.08         51.2471
   667.22         50.8146
   667.36         50.3909
   667.50         50.0098
   667.64         49.7000
   667.78         49.4836
   667.92         49.3728
   668.06         49.3710
   668.20         49.4733
   668.34         49.6623
   668.48         49.9133
   668.62         50.1985
   668.76         50.4915
   668.90         50.7719
   669.04         51.0290
   669.18         51.2620
   669.32         51.4743
   669.46         51.6680
   669.60         51.8427
   669.74         51.9936
   669.88         52.1138
   670.02         52.2003
   670.16         52.2546
   670.30         52.2815
   670.44         52.2850
   670.58         52.2646
   670.72         52.2181
   670.86         52.1459
   671.00         52.0542
   671.14         51.9529
   671.28         51.8519
   671.42         51.7577
   671.56         51.6734
   671.70         51.5977
   671.84         51.5262
   671.98         51.4541
   672.12         51.3793
   672.26         51.3022
   672.40         51.2224
   672.54         51.1391
   672.68         51.0539
   672.82         50.9680
   672.96         50.8792
   673.10         50.7841
   673.24         50.6831
   673.38         50.5814
   673.52         50.4862
   673.66         50.4044
   673.80         50.3409
   673.94         50.2980
   674.08         50.2750
   674.22         50.2695
   674.36         50.2788
   674.50         50.2998
   674.64         50.3270
   674.78         50.3522
   674.92         50.3653
   675.06         50.3559
   675.20         50.3183
   675.34         50.2545
   675.48         50.1697
   675.62         50.0696
   675.76         49.9643
   675.90         49.8669
   676.04         49.7889
   676.18         49.7370
   676.32         49.7127
   676.46         49.7134
   676.60         49.7337
   676.74         49.7664
   676.88         49.8044
   677.02         49.8421
   677.16         49.8734
   677.30         49.8925
   677.44         49.8944
   677.58         49.8760
   677.72         49.8387
   677.86         49.7891
   678.00         49.7337
   678.14         49.6754
   678.28         49.6181
   678.42         49.5673
   678.56         49.5285
   678.70         49.5063
   678.84         49.5015
   678.98         49.5095
   679.12         49.5223
   679.26         49.5304
   679.40         49.5250
   679.54         49.5009
   679.68         49.4572
   679.82         49.3971
   679.96         49.3250
   680.10         49.2452
   680.24         49.1640
   680.38         49.0895
   680.52         49.0290
   680.66         48.9871
   680.80         48.9654
   680.94         48.9623
   681.08         48.9704
   681.22         48.9795
   681.36         48.9806
   681.50         48.9647
   681.64         48.9271
   681.78         48.8691
   681.92         48.7969
   682.06         48.7200
   682.20         48.6455
   682.34         48.5754
   682.48         48.5084
   682.62         48.4402
   682.76         48.3670
   682.90         48.2873
   683.04         48.2013
   683.18         48.1103
   683.32         48.0171
   683.46         47.9256
   683.60         47.8402
   683.74         47.7665
   683.88         47.7124
   684.02         47.6816
   684.16         47.6707
   684.30         47.6762
   684.44         47.6945
   684.58         47.7226
   684.72         47.7556
   684.86         47.7858
   685.00         47.8084
   685.14         47.8208
   685.28         47.8192
   685.42         47.7928
   685.56         47.7142
   685.70         47.5378
   685.84         47.2162
   685.98         46.7164
   686.12         46.0255
   686.26         45.1523
   686.40         44.1307
   686.54         43.0150
   686.68         41.8728
   686.82         40.7816
   686.96         39.8255
   687.10         39.0792
   687.24         38.5929
   687.38         38.3828
   687.52         38.4325
   687.66         38.6968
   687.80         39.1041
   687.94         39.5698
   688.08         40.0095
   688.22         40.3518
   688.36         40.5565
   688.50         40.6208
   688.64         40.5699
   688.78         40.4444
   688.92         40.2890
   689.06         40.1476
   689.20         40.0572
   689.34         40.0433
   689.48         40.1215
   689.62         40.2955
   689.76         40.5532
   689.90         40.8709
   690.04         41.2214
   690.18         41.5805
   690.32         41.9310
   690.46         42.2628
   690.60         42.5707
   690.74         42.8519
   690.88         43.1058
   691.02         43.3335
   691.16         43.5353
   691.30         43.7149
   691.44         43.8774
   691.58         44.0266
   691.72         44.1665
   691.86         44.2989
   692.00         44.4256
   692.14         44.5486
   692.28         44.6677
   692.42         44.7786
   692.56         44.8738
   692.70         44.9447
   692.84         44.9843
   692.98         44.9907
   693.12         44.9678
   693.26         44.9224
   693.40         44.8647
   693.54         44.8076
   693.68         44.7623
   693.82         44.7375
   693.96         44.7404
   694.10         44.7729
   694.24         44.8308
   694.38         44.9083
   694.52         44.9985
   694.66         45.0935
   694.80         45.1826
   694.94         45.2537
   695.08         45.2988
   695.22         45.3165
   695.36         45.3100
   695.50         45.2856
   695.64         45.2526
   695.78         45.2213
   695.92         45.2012
   696.06         45.2025
   696.20         45.2336
   696.34         45.2970
   696.48         45.3901
   696.62         45.5048
   696.76         45.6301
   696.90         45.7558
   697.04         45.8732
   697.18         45.9722
   697.32         46.0438
   697.46         46.0817
   697.60         46.0824
   697.74         46.0455
   697.88         45.9728
   698.02         45.8666
   698.16         45.7322
   698.30         45.5789
   698.44         45.4175
   698.58         45.2587
   698.72         45.1094
   698.86         44.9725
   699.00         44.8493
   699.14         44.7419
   699.28         44.6530
   699.42         44.5866
   699.56         44.5458
   699.70         44.5284
   699.84         44.5295
   699.98         44.5444
   700.12         44.5659
   700.26         44.5850
   700.40         44.5946
   700.54         44.5902
   700.68         44.5682
   700.82         44.5261
   700.96         44.4644
   701.10         44.3850
   701.24         44.2910
   701.38         44.1868
   701.52         44.0784
   701.66         43.9702
   701.80         43.8638
   701.94         43.7606
   702.08         43.6643
   702.22         43.5785
   702.36         43.5051
   702.50         43.4456
   702.64         43.4002
   702.78         43.3668
   702.92         43.3430
   703.06         43.3292
   703.20         43.3269
   703.34         43.3356
   703.48         43.3546
   703.62         43.3832
   703.76         43.4184
   703.90         43.4563
   704.04         43.4935
   704.18         43.5252
   704.32         43.5464
   704.46         43.5551
   704.60         43.5525
   704.74         43.5378
   704.88         43.5038
   705.02         43.4344
   705.16         43.3092
   705.30         43.1124
   705.44         42.8396
   705.58         42.4987
   705.72         42.1093
   705.86         41.6996
   706.00         41.3023
   706.14         40.9521
   706.28         40.6812
   706.42         40.5145
   706.56         40.4662
   706.70         40.5381
   706.84         40.7193
   706.98         40.9897
   707.12         41.3217
   707.26         41.6788
   707.40         42.0218
   707.54         42.3164
   707.68         42.5400
   707.82         42.6872
   707.96         42.7707
   708.10         42.8115
   708.24         42.8305
   708.38         42.8457
   708.52         42.8698
   708.66         42.9065
   708.80         42.9504
   708.94         42.9904
   709.08         43.0136
   709.22         43.0075
   709.36         42.9620
   709.50         42.8700
   709.64         42.7291
   709.78         42.5451
   709.92         42.3324
   710.06         42.1108
   710.20         41.9018
   710.34         41.7240
   710.48         41.5891
   710.62         41.5015
   710.76         41.4575
   710.90         41.4489
   711.04         41.4671
   711.18         41.5023
   711.32         41.5439
   711.46         41.5831
   711.60         41.6166
   711.74         41.6457
   711.88         41.6720
   712.02         41.6974
   712.16         41.7247
   712.30         41.7587
   712.44         41.8042
   712.58         41.8600
   712.72         41.9196
   712.86         41.9759
   713.00         42.0225
   713.14         42.0548
   713.28         42.0707
   713.42         42.0678
   713.56         42.0458
   713.70         42.0085
   713.84         41.9621
   713.98         41.9115
   714.12         41.8585
   714.26         41.8050
   714.40         41.7554
   714.54         41.7143
   714.68         41.6847
   714.82         41.6660
   714.96         41.6563
   715.10         41.6520
   715.24         41.6463
   715.38         41.6311
   715.52         41.5989
   715.66         41.5445
   715.80         41.4635
   715.94         41.3490
   716.08         41.1950
   716.22         40.9994
   716.36         40.7628
   716.50         40.4850
   716.64         40.1672
   716.78         39.8171
   716.92         39.4510
   717.06         39.0903
   717.20         38.7544
   717.34         38.4539
   717.48         38.1939
   717.62         37.9803
   717.76         37.8201
   717.90         37.7178
   718.04         37.6710
   718.18         37.6695
   718.32         37.7006
   718.46         37.7518
   718.60         37.8132
   718.74         37.8775
   718.88         37.9400
   719.02         37.9984
   719.16         38.0517
   719.30         38.0972
   719.44         38.1294
   719.58         38.1437
   719.72         38.1408
   719.86         38.1256
   720.00         38.1099
   720.14         38.1149
   720.28         38.1635
   720.42         38.2700
   720.56         38.4373
   720.70         38.6584
   720.84         38.9228
   720.98         39.2208
   721.12         39.5388
   721.26         39.8574
   721.40         40.1542
   721.54         40.4067
   721.68         40.5956
   721.82         40.7097
   721.96         40.7493
   722.10         40.7214
   722.24         40.6345
   722.38         40.5016
   722.52         40.3416
   722.66         40.1717
   722.80         39.9992
   722.94         39.8218
   723.08         39.6375
   723.22         39.4495
   723.36         39.2627
   723.50         39.0832
   723.64         38.9183
   723.78         38.7707
   723.92         38.6365
   724.06         38.5101
   724.20         38.3868
   724.34         38.2659
   724.48         38.1517
   724.62         38.0453
   724.76         37.9420
   724.90         37.8431
   725.04         37.7608
   725.18         37.7041
   725.32         37.6687
   725.46         37.6458
   725.60         37.6354
   725.74         37.6467
   725.88         37.6879
   726.02         37.7593
   726.16         37.8537
   726.30         37.9603
   726.44         38.0635
   726.58         38.1482
   726.72         38.2055
   726.86         38.2307
   727.00         38.2216
   727.14         38.1791
   727.28         38.1083
   727.42         38.0192
   727.56         37.9240
   727.70         37.8285
   727.84         37.7322
   727.98         37.6373
   728.12         37.5544
   728.26         37.4970
   728.40         37.4705
   728.54         37.4696
   728.68         37.4853
   728.82         37.5107
   728.96         37.5394
   729.10         37.5643
   729.24         37.5815
   729.38         37.5942
   729.52         37.6101
   729.66         37.6372
   729.80         37.6812
   729.94         37.7419
   730.08         37.8108
   730.22         37.8771
   730.36         37.9341
   730.50         37.9810
   730.64         38.0214
   730.78         38.0592
   730.92         38.0946
   731.06         38.1241
   731.20         38.1436
   731.34         38.1490
   731.48         38.1334
   731.62         38.0889
   731.76         38.0111
   731.90         37.9018
   732.04         37.7704
   732.18         37.6287
   732.32         37.4851
   732.46         37.3456
   732.60         37.2169
   732.74         37.1100
   732.88         37.0393
   733.02         37.0170
   733.16         37.0476
   733.30         37.1282
   733.44         37.2505
   733.58         37.4005
   733.72         37.5575
   733.86         37.6981
   734.00         37.8027
   734.14         37.8604
   734.28         37.8669
   734.42         37.8242
   734.56         37.7423
   734.70         37.6374
   734.84         37.5248
   734.98         37.4152
   735.12         37.3162
   735.26         37.2337
   735.40         37.1706
   735.54         37.1232
   735.68         37.0814
   735.82         37.0348
   735.96         36.9752
   736.10         36.8961
   736.24         36.7926
   736.38         36.6666
   736.52         36.5305
   736.66         36.4010
   736.80         36.2893
   736.94         36.2012
   737.08         36.1423
   737.22         36.1199
   737.36         36.1372
   737.50         36.1894
   737.64         36.2671
   737.78         36.3614
   737.92         36.4656
   738.06         36.5742
   738.20         36.6801
   738.34         36.7773
   738.48         36.8608
   738.62         36.9242
   738.76         36.9617
   738.90         36.9723
   739.04         36.9595
   739.18         36.9268
   739.32         36.8780
   739.46         36.8199
   739.60         36.7629
   739.74         36.7177
   739.88         36.6893
   740.02         36.6742
   740.16         36.6652
   740.30         36.6565
   740.44         36.6437
   740.58         36.6232
   740.72         36.5938
   740.86         36.5588
   741.00         36.5270
   741.14         36.5103
   741.28         36.5184
   741.42         36.5561
   741.56         36.6235
   741.70         36.7163
   741.84         36.8276
   741.98         36.9501
   742.12         37.0768
   742.26         37.2006
   742.40         37.3124
   742.54         37.4029
   742.68         37.4650
   742.82         37.4958
   742.96         37.4958
   743.10         37.4650
   743.24         37.4029
   743.38         37.3124
   743.52         37.2006
   743.66         37.0768
   743.80         36.9501
   743.94         36.8276
   744.08         36.7163
   744.22         36.6235
