# File HD23524
# Wavelength [nm]    Normalized Amplitude
   349.70         4.3988
   349.84         4.3683
   349.98         4.3623
   350.12         4.3800
   350.26         4.4186
   350.40         4.4728
   350.54         4.5351
   350.68         4.5969
   350.82         4.6498
   350.96         4.6860
   351.10         4.6989
   351.24         4.6860
   351.38         4.6498
   351.52         4.5969
   351.66         4.5351
   351.80         4.4728
   351.94         4.4186
   352.08         4.3800
   352.22         4.3623
   352.36         4.3683
   352.50         4.3988
   352.64         4.4531
   352.78         4.5285
   352.92         4.6203
   353.06         4.7225
   353.20         4.8281
   353.34         4.9294
   353.48         5.0201
   353.62         5.0963
   353.76         5.1561
   353.90         5.1984
   354.04         5.2230
   354.18         5.2310
   354.32         5.2244
   354.46         5.2054
   354.60         5.1762
   354.74         5.1388
   354.88         5.0956
   355.02         5.0491
   355.16         5.0002
   355.30         4.9488
   355.44         4.8938
   355.58         4.8331
   355.72         4.7646
   355.86         4.6868
   356.00         4.6008
   356.14         4.5095
   356.28         4.4168
   356.42         4.3262
   356.56         4.2397
   356.70         4.1590
   356.84         4.0854
   356.98         4.0189
   357.12         3.9574
   357.26         3.8978
   357.40         3.8373
   357.54         3.7747
   357.68         3.7116
   357.82         3.6531
   357.96         3.6071
   358.10         3.5829
   358.24         3.5892
   358.38         3.6333
   358.52         3.7208
   358.66         3.8538
   358.80         4.0282
   358.94         4.2325
   359.08         4.4497
   359.22         4.6608
   359.36         4.8487
   359.50         4.9986
   359.64         5.1000
   359.78         5.1475
   359.92         5.1434
   360.06         5.0974
   360.20         5.0240
   360.34         4.9380
   360.48         4.8497
   360.62         4.7643
   360.76         4.6862
   360.90         4.6201
   361.04         4.5716
   361.18         4.5454
   361.32         4.5445
   361.46         4.5689
   361.60         4.6149
   361.74         4.6769
   361.88         4.7477
   362.02         4.8194
   362.16         4.8852
   362.30         4.9419
   362.44         4.9897
   362.58         5.0299
   362.72         5.0637
   362.86         5.0909
   363.00         5.1099
   363.14         5.1192
   363.28         5.1198
   363.42         5.1149
   363.56         5.1077
   363.70         5.0999
   363.84         5.0931
   363.98         5.0898
   364.12         5.0920
   364.26         5.1016
   364.40         5.1217
   364.54         5.1582
   364.68         5.2186
   364.82         5.3092
   364.96         5.4320
   365.10         5.5837
   365.24         5.7566
   365.38         5.9391
   365.52         6.1177
   365.66         6.2788
   365.80         6.4119
   365.94         6.5115
   366.08         6.5781
   366.22         6.6153
   366.36         6.6290
   366.50         6.6244
   366.64         6.6038
   366.78         6.5675
   366.92         6.5160
   367.06         6.4511
   367.20         6.3753
   367.34         6.2897
   367.48         6.1944
   367.62         6.0913
   367.76         5.9856
   367.90         5.8856
   368.04         5.8003
   368.18         5.7372
   368.32         5.7024
   368.46         5.6991
   368.60         5.7273
   368.74         5.7842
   368.88         5.8630
   369.02         5.9541
   369.16         6.0453
   369.30         6.1231
   369.44         6.1756
   369.58         6.1942
   369.72         6.1750
   369.86         6.1204
   370.00         6.0407
   370.14         5.9521
   370.28         5.8720
   370.42         5.8144
   370.56         5.7853
   370.70         5.7810
   370.84         5.7907
   370.98         5.8031
   371.12         5.8086
   371.26         5.8014
   371.40         5.7773
   371.54         5.7337
   371.68         5.6703
   371.82         5.5897
   371.96         5.4957
   372.10         5.3931
   372.24         5.2862
   372.38         5.1788
   372.52         5.0746
   372.66         4.9759
   372.80         4.8830
   372.94         4.7946
   373.08         4.7082
   373.22         4.6207
   373.36         4.5303
   373.50         4.4396
   373.64         4.3545
   373.78         4.2820
   373.92         4.2298
   374.06         4.2049
   374.20         4.2128
   374.34         4.2557
   374.48         4.3297
   374.62         4.4263
   374.76         4.5361
   374.90         4.6528
   375.04         4.7727
   375.18         4.8922
   375.32         5.0062
   375.46         5.1081
   375.60         5.1911
   375.74         5.2513
   375.88         5.2902
   376.02         5.3157
   376.16         5.3402
   376.30         5.3777
   376.44         5.4407
   376.58         5.5379
   376.72         5.6709
   376.86         5.8356
   377.00         6.0224
   377.14         6.2182
   377.28         6.4090
   377.42         6.5810
   377.56         6.7214
   377.70         6.8190
   377.84         6.8677
   377.98         6.8665
   378.12         6.8191
   378.26         6.7323
   378.40         6.6140
   378.54         6.4727
   378.68         6.3181
   378.82         6.1618
   378.96         6.0166
   379.10         5.8964
   379.24         5.8129
   379.38         5.7730
   379.52         5.7766
   379.66         5.8192
   379.80         5.8929
   379.94         5.9875
   380.08         6.0900
   380.22         6.1858
   380.36         6.2604
   380.50         6.3022
   380.64         6.3025
   380.78         6.2558
   380.92         6.1610
   381.06         6.0228
   381.20         5.8502
   381.34         5.6541
   381.48         5.4453
   381.62         5.2334
   381.76         5.0264
   381.90         4.8293
   382.04         4.6454
   382.18         4.4780
   382.32         4.3318
   382.46         4.2092
   382.60         4.1091
   382.74         4.0283
   382.88         3.9664
   383.02         3.9273
   383.16         3.9170
   383.30         3.9402
   383.44         3.9989
   383.58         4.0925
   383.72         4.2172
   383.86         4.3664
   384.00         4.5319
   384.14         4.7056
   384.28         4.8790
   384.42         5.0426
   384.56         5.1859
   384.70         5.2994
   384.84         5.3770
   384.98         5.4182
   385.12         5.4272
   385.26         5.4121
   385.40         5.3832
   385.54         5.3515
   385.68         5.3256
   385.82         5.3092
   385.96         5.3023
   386.10         5.3043
   386.24         5.3149
   386.38         5.3324
   386.52         5.3538
   386.66         5.3753
   386.80         5.3927
   386.94         5.4038
   387.08         5.4079
   387.22         5.4061
   387.36         5.4004
   387.50         5.3940
   387.64         5.3908
   387.78         5.3948
   387.92         5.4090
   388.06         5.4355
   388.20         5.4757
   388.34         5.5298
   388.48         5.5977
   388.62         5.6796
   388.76         5.7749
   388.90         5.8796
   389.04         5.9863
   389.18         6.0864
   389.32         6.1736
   389.46         6.2444
   389.60         6.2984
   389.74         6.3385
   389.88         6.3697
   390.02         6.3990
   390.16         6.4341
   390.30         6.4816
   390.44         6.5440
   390.58         6.6177
   390.72         6.6940
   390.86         6.7609
   391.00         6.8072
   391.14         6.8242
   391.28         6.8048
   391.42         6.7435
   391.56         6.6361
   391.70         6.4808
   391.84         6.2803
   391.98         6.0422
   392.12         5.7781
   392.26         5.5010
   392.40         5.2230
   392.54         4.9558
   392.68         4.7108
   392.82         4.4985
   392.96         4.3285
   393.10         4.2086
   393.24         4.1447
   393.38         4.1408
   393.52         4.1988
   393.66         4.3176
   393.80         4.4920
   393.94         4.7123
   394.08         4.9659
   394.22         5.2392
   394.36         5.5189
   394.50         5.7925
   394.64         6.0485
   394.78         6.2738
   394.92         6.4540
   395.06         6.5765
   395.20         6.6323
   395.34         6.6169
   395.48         6.5306
   395.62         6.3793
   395.76         6.1745
   395.90         5.9330
   396.04         5.6752
   396.18         5.4239
   396.32         5.2024
   396.46         5.0334
   396.60         4.9361
   396.74         4.9234
   396.88         5.0002
   397.02         5.1634
   397.16         5.4019
   397.30         5.6983
   397.44         6.0321
   397.58         6.3832
   397.72         6.7343
   397.86         7.0719
   398.00         7.3858
   398.14         7.6687
   398.28         7.9155
   398.42         8.1230
   398.56         8.2916
   398.70         8.4255
   398.84         8.5321
   398.98         8.6197
   399.12         8.6944
   399.26         8.7583
   399.40         8.8119
   399.54         8.8567
   399.68         8.8964
   399.82         8.9359
   399.96         8.9805
   400.10         9.0346
   400.24         9.1000
   400.38         9.1756
   400.52         9.2583
   400.66         9.3436
   400.80         9.4272
   400.94         9.5056
   401.08         9.5765
   401.22         9.6396
   401.36         9.6958
   401.50         9.7448
   401.64         9.7827
   401.78         9.8029
   401.92         9.7998
   402.06         9.7714
   402.20         9.7202
   402.34         9.6531
   402.48         9.5793
   402.62         9.5082
   402.76         9.4471
   402.90         9.4006
   403.04         9.3694
   403.18         9.3496
   403.32         9.3350
   403.46         9.3209
   403.60         9.3052
   403.74         9.2888
   403.88         9.2734
   404.02         9.2591
   404.16         9.2434
   404.30         9.2235
   404.44         9.1990
   404.58         9.1732
   404.72         9.1517
   404.86         9.1388
   405.00         9.1331
   405.14         9.1278
   405.28         9.1148
   405.42         9.0881
   405.56         9.0468
   405.70         8.9934
   405.84         8.9330
   405.98         8.8744
   406.12         8.8290
   406.26         8.8036
   406.40         8.7976
   406.54         8.8055
   406.68         8.8214
   406.82         8.8430
   406.96         8.8703
   407.10         8.9044
   407.24         8.9464
   407.38         8.9984
   407.52         9.0628
   407.66         9.1427
   407.80         9.2418
   407.94         9.3619
   408.08         9.5006
   408.22         9.6502
   408.36         9.7983
   408.50         9.9313
   408.64         10.0378
   408.78         10.1079
   408.92         10.1334
   409.06         10.1112
   409.20         10.0466
   409.34         9.9510
   409.48         9.8382
   409.62         9.7214
   409.76         9.6130
   409.90         9.5256
   410.04         9.4710
   410.18         9.4572
   410.32         9.4874
   410.46         9.5583
   410.60         9.6614
   410.74         9.7859
   410.88         9.9194
   411.02         10.0503
   411.16         10.1696
   411.30         10.2704
   411.44         10.3480
   411.58         10.4004
   411.72         10.4282
   411.86         10.4325
   412.00         10.4136
   412.14         10.3726
   412.28         10.3142
   412.42         10.2462
   412.56         10.1780
   412.70         10.1181
   412.84         10.0712
   412.98         10.0363
   413.12         10.0095
   413.26         9.9884
   413.40         9.9733
   413.54         9.9652
   413.68         9.9643
   413.82         9.9693
   413.96         9.9778
   414.10         9.9859
   414.24         9.9890
   414.38         9.9840
   414.52         9.9702
   414.66         9.9511
   414.80         9.9341
   414.94         9.9266
   415.08         9.9336
   415.22         9.9566
   415.36         9.9940
   415.50         10.0422
   415.64         10.0971
   415.78         10.1563
   415.92         10.2156
   416.06         10.2677
   416.20         10.3031
   416.34         10.3144
   416.48         10.2977
   416.62         10.2526
   416.76         10.1820
   416.90         10.0921
   417.04         9.9925
   417.18         9.8938
   417.32         9.8054
   417.46         9.7326
   417.60         9.6780
   417.74         9.6426
   417.88         9.6266
   418.02         9.6293
   418.16         9.6484
   418.30         9.6790
   418.44         9.7129
   418.58         9.7403
   418.72         9.7538
   418.86         9.7501
   419.00         9.7291
   419.14         9.6932
   419.28         9.6470
   419.42         9.5974
   419.56         9.5526
   419.70         9.5212
   419.84         9.5116
   419.98         9.5297
   420.12         9.5777
   420.26         9.6540
   420.40         9.7532
   420.54         9.8670
   420.68         9.9849
   420.82         10.0957
   420.96         10.1877
   421.10         10.2496
   421.24         10.2705
   421.38         10.2416
   421.52         10.1597
   421.66         10.0300
   421.80         9.8658
   421.94         9.6841
   422.08         9.5016
   422.22         9.3323
   422.36         9.1859
   422.50         9.0690
   422.64         8.9850
   422.78         8.9362
   422.92         8.9248
   423.06         8.9526
   423.20         9.0193
   423.34         9.1192
   423.48         9.2408
   423.62         9.3677
   423.76         9.4824
   423.90         9.5719
   424.04         9.6308
   424.18         9.6616
   424.32         9.6704
   424.46         9.6627
   424.60         9.6408
   424.74         9.6040
   424.88         9.5528
   425.02         9.4928
   425.16         9.4346
   425.30         9.3902
   425.44         9.3695
   425.58         9.3761
   425.72         9.4064
   425.86         9.4497
   426.00         9.4915
   426.14         9.5180
   426.28         9.5208
   426.42         9.4990
   426.56         9.4579
   426.70         9.4059
   426.84         9.3511
   426.98         9.3013
   427.12         9.2622
   427.26         9.2362
   427.40         9.2241
   427.54         9.2264
   427.68         9.2408
   427.82         9.2608
   427.96         9.2773
   428.10         9.2818
   428.24         9.2680
   428.38         9.2314
   428.52         9.1696
   428.66         9.0825
   428.80         8.9732
   428.94         8.8465
   429.08         8.7068
   429.22         8.5570
   429.36         8.3982
   429.50         8.2314
   429.64         8.0579
   429.78         7.8810
   429.92         7.7082
   430.06         7.5514
   430.20         7.4269
   430.34         7.3534
   430.48         7.3503
   430.62         7.4328
   430.76         7.6064
   430.90         7.8641
   431.04         8.1865
   431.18         8.5448
   431.32         8.9079
   431.46         9.2488
   431.60         9.5482
   431.74         9.7949
   431.88         9.9848
   432.02         10.1206
   432.16         10.2112
   432.30         10.2700
   432.44         10.3115
   432.58         10.3472
   432.72         10.3837
   432.86         10.4230
   433.00         10.4641
   433.14         10.5026
   433.28         10.5327
   433.42         10.5496
   433.56         10.5521
   433.70         10.5427
   433.84         10.5261
   433.98         10.5093
   434.12         10.5007
   434.26         10.5081
   434.40         10.5351
   434.54         10.5820
   434.68         10.6457
   434.82         10.7205
   434.96         10.7997
   435.10         10.8783
   435.24         10.9553
   435.38         11.0333
   435.52         11.1166
   435.66         11.2082
   435.80         11.3078
   435.94         11.4116
   436.08         11.5117
   436.22         11.5966
   436.36         11.6541
   436.50         11.6753
   436.64         11.6577
   436.78         11.6049
   436.92         11.5207
   437.06         11.4055
   437.20         11.2585
   437.34         11.0819
   437.48         10.8841
   437.62         10.6774
   437.76         10.4757
   437.90         10.2922
   438.04         10.1388
   438.18         10.0257
   438.32         9.9609
   438.46         9.9495
   438.60         9.9926
   438.74         10.0858
   438.88         10.2196
   439.02         10.3805
   439.16         10.5500
   439.30         10.7062
   439.44         10.8291
   439.58         10.9052
   439.72         10.9326
   439.86         10.9219
   440.00         10.8916
   440.14         10.8584
   440.28         10.8337
   440.42         10.8251
   440.56         10.8399
   440.70         10.8849
   440.84         10.9637
   440.98         11.0737
   441.12         11.2070
   441.26         11.3524
   441.40         11.4975
   441.54         11.6312
   441.68         11.7454
   441.82         11.8358
   441.96         11.9017
   442.10         11.9448
   442.24         11.9662
   442.38         11.9674
   442.52         11.9507
   442.66         11.9200
   442.80         11.8796
   442.94         11.8340
   443.08         11.7899
   443.22         11.7548
   443.36         11.7338
   443.50         11.7281
   443.64         11.7368
   443.78         11.7589
   443.92         11.7928
   444.06         11.8333
   444.20         11.8711
   444.34         11.8950
   444.48         11.8943
   444.62         11.8615
   444.76         11.7939
   444.90         11.6947
   445.04         11.5729
   445.18         11.4415
   445.32         11.3134
   445.46         11.2001
   445.60         11.1111
   445.74         11.0561
   445.88         11.0430
   446.02         11.0761
   446.16         11.1553
   446.30         11.2766
   446.44         11.4321
   446.58         11.6110
   446.72         11.7993
   446.86         11.9827
   447.00         12.1498
   447.14         12.2949
   447.28         12.4171
   447.42         12.5177
   447.56         12.5976
   447.70         12.6572
   447.84         12.6975
   447.98         12.7199
   448.12         12.7256
   448.26         12.7162
   448.40         12.6956
   448.54         12.6698
   448.68         12.6456
   448.82         12.6289
   448.96         12.6241
   449.10         12.6348
   449.24         12.6636
   449.38         12.7114
   449.52         12.7784
   449.66         12.8646
   449.80         12.9674
   449.94         13.0801
   450.08         13.1917
   450.22         13.2903
   450.36         13.3671
   450.50         13.4185
   450.64         13.4446
   450.78         13.4480
   450.92         13.4331
   451.06         13.4049
   451.20         13.3663
   451.34         13.3169
   451.48         13.2525
   451.62         13.1691
   451.76         13.0653
   451.90         12.9416
   452.04         12.7999
   452.18         12.6435
   452.32         12.4795
   452.46         12.3192
   452.60         12.1762
   452.74         12.0634
   452.88         11.9911
   453.02         11.9657
   453.16         11.9884
   453.30         12.0536
   453.44         12.1493
   453.58         12.2591
   453.72         12.3661
   453.86         12.4562
   454.00         12.5199
   454.14         12.5534
   454.28         12.5606
   454.42         12.5507
   454.56         12.5350
   454.70         12.5247
   454.84         12.5299
   454.98         12.5582
   455.12         12.6117
   455.26         12.6869
   455.40         12.7764
   455.54         12.8730
   455.68         12.9704
   455.82         13.0616
   455.96         13.1399
   456.10         13.2012
   456.24         13.2450
   456.38         13.2736
   456.52         13.2895
   456.66         13.2933
   456.80         13.2852
   456.94         13.2665
   457.08         13.2386
   457.22         13.2013
   457.36         13.1541
   457.50         13.0978
   457.64         13.0346
   457.78         12.9682
   457.92         12.9047
   458.06         12.8505
   458.20         12.8102
   458.34         12.7843
   458.48         12.7709
   458.62         12.7676
   458.76         12.7725
   458.90         12.7828
   459.04         12.7952
   459.18         12.8064
   459.32         12.8154
   459.46         12.8255
   459.60         12.8420
   459.74         12.8699
   459.88         12.9121
   460.02         12.9699
   460.16         13.0428
   460.30         13.1280
   460.44         13.2200
   460.58         13.3124
   460.72         13.3994
   460.86         13.4760
   461.00         13.5385
   461.14         13.5848
   461.28         13.6146
   461.42         13.6288
   461.56         13.6299
   461.70         13.6223
   461.84         13.6104
   461.98         13.5988
   462.12         13.5911
   462.26         13.5885
   462.40         13.5892
   462.54         13.5892
   462.68         13.5847
   462.82         13.5738
   462.96         13.5560
   463.10         13.5311
   463.24         13.4983
   463.38         13.4561
   463.52         13.4025
   463.66         13.3367
   463.80         13.2603
   463.94         13.1776
   464.08         13.0941
   464.22         13.0147
   464.36         12.9434
   464.50         12.8839
   464.64         12.8415
   464.78         12.8205
   464.92         12.8216
   465.06         12.8429
   465.20         12.8806
   465.34         12.9278
   465.48         12.9746
   465.62         13.0100
   465.76         13.0258
   465.90         13.0182
   466.04         12.9887
   466.18         12.9431
   466.32         12.8896
   466.46         12.8368
   466.60         12.7910
   466.74         12.7561
   466.88         12.7349
   467.02         12.7306
   467.16         12.7459
   467.30         12.7813
   467.44         12.8328
   467.58         12.8928
   467.72         12.9527
   467.86         13.0036
   468.00         13.0389
   468.14         13.0584
   468.28         13.0673
   468.42         13.0708
   468.56         13.0711
   468.70         13.0669
   468.84         13.0551
   468.98         13.0315
   469.12         12.9924
   469.26         12.9365
   469.40         12.8665
   469.54         12.7869
   469.68         12.7027
   469.82         12.6192
   469.96         12.5422
   470.10         12.4760
   470.24         12.4247
   470.38         12.3929
   470.52         12.3861
   470.66         12.4105
   470.80         12.4695
   470.94         12.5609
   471.08         12.6774
   471.22         12.8098
   471.36         12.9483
   471.50         13.0831
   471.64         13.2033
   471.78         13.2990
   471.92         13.3633
   472.06         13.3912
   472.20         13.3802
   472.34         13.3318
   472.48         13.2522
   472.62         13.1508
   472.76         13.0396
   472.90         12.9321
   473.04         12.8414
   473.18         12.7781
   473.32         12.7491
   473.46         12.7572
   473.60         12.8011
   473.74         12.8765
   473.88         12.9770
   474.02         13.0935
   474.16         13.2138
   474.30         13.3250
   474.44         13.4172
   474.58         13.4858
   474.72         13.5300
   474.86         13.5516
   475.00         13.5532
   475.14         13.5376
   475.28         13.5081
   475.42         13.4673
   475.56         13.4177
   475.70         13.3626
   475.84         13.3063
   475.98         13.2528
   476.12         13.2061
   476.26         13.1697
   476.40         13.1474
   476.54         13.1425
   476.68         13.1566
   476.82         13.1902
   476.96         13.2431
   477.10         13.3136
   477.24         13.3977
   477.38         13.4872
   477.52         13.5704
   477.66         13.6354
   477.80         13.6735
   477.94         13.6826
   478.08         13.6661
   478.22         13.6310
   478.36         13.5855
   478.50         13.5376
   478.64         13.4948
   478.78         13.4643
   478.92         13.4513
   479.06         13.4569
   479.20         13.4782
   479.34         13.5096
   479.48         13.5433
   479.62         13.5713
   479.76         13.5873
   479.90         13.5886
   480.04         13.5755
   480.18         13.5520
   480.32         13.5248
   480.46         13.5024
   480.60         13.4919
   480.74         13.4963
   480.88         13.5145
   481.02         13.5429
   481.16         13.5767
   481.30         13.6109
   481.44         13.6401
   481.58         13.6585
   481.72         13.6616
   481.86         13.6480
   482.00         13.6196
   482.14         13.5805
   482.28         13.5370
   482.42         13.4958
   482.56         13.4621
   482.70         13.4388
   482.84         13.4255
   482.98         13.4196
   483.12         13.4179
   483.26         13.4177
   483.40         13.4173
   483.54         13.4154
   483.68         13.4104
   483.82         13.4007
   483.96         13.3858
   484.10         13.3662
   484.24         13.3408
   484.38         13.3075
   484.52         13.2650
   484.66         13.2115
   484.80         13.1432
   484.94         13.0550
   485.08         12.9436
   485.22         12.8090
   485.36         12.6561
   485.50         12.4938
   485.64         12.3337
   485.78         12.1874
   485.92         12.0621
   486.06         11.9596
   486.20         11.8798
   486.34         11.8235
   486.48         11.7920
   486.62         11.7850
   486.76         11.7999
   486.90         11.8338
   487.04         11.8856
   487.18         11.9535
   487.32         12.0328
   487.46         12.1160
   487.60         12.1976
   487.74         12.2747
   487.88         12.3438
   488.02         12.3998
   488.16         12.4393
   488.30         12.4624
   488.44         12.4732
   488.58         12.4784
   488.72         12.4874
   488.86         12.5097
   489.00         12.5532
   489.14         12.6212
   489.28         12.7122
   489.42         12.8235
   489.56         12.9505
   489.70         13.0838
   489.84         13.2097
   489.98         13.3149
   490.12         13.3903
   490.26         13.4320
   490.40         13.4418
   490.54         13.4246
   490.68         13.3860
   490.82         13.3297
   490.96         13.2565
   491.10         13.1661
   491.24         13.0596
   491.38         12.9412
   491.52         12.8193
   491.66         12.7058
   491.80         12.6135
   491.94         12.5542
   492.08         12.5364
   492.22         12.5622
   492.36         12.6256
   492.50         12.7158
   492.64         12.8207
   492.78         12.9269
   492.92         13.0218
   493.06         13.0963
   493.20         13.1444
   493.34         13.1632
   493.48         13.1560
   493.62         13.1334
   493.76         13.1102
   493.90         13.1012
   494.04         13.1192
   494.18         13.1710
   494.32         13.2554
   494.46         13.3629
   494.60         13.4758
   494.74         13.5726
   494.88         13.6346
   495.02         13.6518
   495.16         13.6241
   495.30         13.5586
   495.44         13.4665
   495.58         13.3606
   495.72         13.2534
   495.86         13.1543
   496.00         13.0701
   496.14         13.0068
   496.28         12.9694
   496.42         12.9614
   496.56         12.9830
   496.70         13.0287
   496.84         13.0869
   496.98         13.1436
   497.12         13.1841
   497.26         13.1964
   497.40         13.1758
   497.54         13.1253
   497.68         13.0524
   497.82         12.9654
   497.96         12.8732
   498.10         12.7837
   498.24         12.7045
   498.38         12.6438
   498.52         12.6085
   498.66         12.6040
   498.80         12.6321
   498.94         12.6900
   499.08         12.7693
   499.22         12.8575
   499.36         12.9391
   499.50         12.9987
   499.64         13.0252
   499.78         13.0142
   499.92         12.9692
   500.06         12.8982
   500.20         12.8106
   500.34         12.7140
   500.48         12.6136
   500.62         12.5130
   500.76         12.4149
   500.90         12.3232
   501.04         12.2431
   501.18         12.1783
   501.32         12.1316
   501.46         12.1041
   501.60         12.0946
   501.74         12.1006
   501.88         12.1200
   502.02         12.1520
   502.16         12.1978
   502.30         12.2593
   502.44         12.3363
   502.58         12.4238
   502.72         12.5140
   502.86         12.5974
   503.00         12.6633
   503.14         12.7039
   503.28         12.7181
   503.42         12.7106
   503.56         12.6889
   503.70         12.6596
   503.84         12.6272
   503.98         12.5954
   504.12         12.5679
   504.26         12.5474
   504.40         12.5374
   504.54         12.5416
   504.68         12.5627
   504.82         12.6018
   504.96         12.6573
   505.10         12.7252
   505.24         12.8003
   505.38         12.8776
   505.52         12.9506
   505.66         13.0144
   505.80         13.0681
   505.94         13.1126
   506.08         13.1457
   506.22         13.1623
   506.36         13.1572
   506.50         13.1285
   506.64         13.0791
   506.78         13.0139
   506.92         12.9371
   507.06         12.8523
   507.20         12.7633
   507.34         12.6744
   507.48         12.5903
   507.62         12.5159
   507.76         12.4554
   507.90         12.4132
   508.04         12.3936
   508.18         12.4002
   508.32         12.4346
   508.46         12.4949
   508.60         12.5742
   508.74         12.6617
   508.88         12.7459
   509.02         12.8185
   509.16         12.8746
   509.30         12.9111
   509.44         12.9260
   509.58         12.9190
   509.72         12.8932
   509.86         12.8541
   510.00         12.8089
   510.14         12.7649
   510.28         12.7281
   510.42         12.7030
   510.56         12.6936
   510.70         12.7027
   510.84         12.7297
   510.98         12.7706
   511.12         12.8196
   511.26         12.8701
   511.40         12.9156
   511.54         12.9499
   511.68         12.9682
   511.82         12.9656
   511.96         12.9389
   512.10         12.8880
   512.24         12.8164
   512.38         12.7306
   512.52         12.6392
   512.66         12.5503
   512.80         12.4698
   512.94         12.4009
   513.08         12.3459
   513.22         12.3052
   513.36         12.2770
   513.50         12.2579
   513.64         12.2443
   513.78         12.2336
   513.92         12.2241
   514.06         12.2150
   514.20         12.2060
   514.34         12.1987
   514.48         12.1960
   514.62         12.2012
   514.76         12.2161
   514.90         12.2391
   515.04         12.2661
   515.18         12.2919
   515.32         12.3097
   515.46         12.3105
   515.60         12.2836
   515.74         12.2197
   515.88         12.1130
   516.02         11.9616
   516.16         11.7671
   516.30         11.5375
   516.44         11.2889
   516.58         11.0432
   516.72         10.8232
   516.86         10.6487
   517.00         10.5324
   517.14         10.4764
   517.28         10.4725
   517.42         10.5080
   517.56         10.5703
   517.70         10.6488
   517.84         10.7330
   517.98         10.8123
   518.12         10.8778
   518.26         10.9264
   518.40         10.9625
   518.54         10.9952
   518.68         11.0347
   518.82         11.0916
   518.96         11.1756
   519.10         11.2905
   519.24         11.4294
   519.38         11.5763
   519.52         11.7111
   519.66         11.8165
   519.80         11.8836
   519.94         11.9147
   520.08         11.9218
   520.22         11.9195
   520.36         11.9176
   520.50         11.9209
   520.64         11.9335
   520.78         11.9612
   520.92         12.0095
   521.06         12.0820
   521.20         12.1768
   521.34         12.2855
   521.48         12.3939
   521.62         12.4859
   521.76         12.5477
   521.90         12.5715
   522.04         12.5567
   522.18         12.5092
   522.32         12.4402
   522.46         12.3637
   522.60         12.2949
   522.74         12.2469
   522.88         12.2279
   523.02         12.2419
   523.16         12.2910
   523.30         12.3751
   523.44         12.4890
   523.58         12.6216
   523.72         12.7580
   523.86         12.8828
   524.00         12.9830
   524.14         13.0511
   524.28         13.0863
   524.42         13.0931
   524.56         13.0790
   524.70         13.0529
   524.84         13.0227
   524.98         12.9932
   525.12         12.9645
   525.26         12.9322
   525.40         12.8872
   525.54         12.8194
   525.68         12.7207
   525.82         12.5858
   525.96         12.4143
   526.10         12.2123
   526.24         11.9919
   526.38         11.7696
   526.52         11.5658
   526.66         11.4012
   526.80         11.2934
   526.94         11.2532
   527.08         11.2833
   527.22         11.3781
   527.36         11.5244
   527.50         11.7038
   527.64         11.8970
   527.78         12.0885
   527.92         12.2695
   528.06         12.4362
   528.20         12.5880
   528.34         12.7249
   528.48         12.8454
   528.62         12.9468
   528.76         13.0261
   528.90         13.0808
   529.04         13.1108
   529.18         13.1186
   529.32         13.1083
   529.46         13.0843
   529.60         13.0530
   529.74         13.0218
   529.88         12.9991
   530.02         12.9925
   530.16         13.0078
   530.30         13.0470
   530.44         13.1083
   530.58         13.1854
   530.72         13.2681
   530.86         13.3442
   531.00         13.4027
   531.14         13.4350
   531.28         13.4356
   531.42         13.4030
   531.56         13.3377
   531.70         13.2403
   531.84         13.1147
   531.98         12.9695
   532.12         12.8166
   532.26         12.6687
   532.40         12.5381
   532.54         12.4353
   532.68         12.3669
   532.82         12.3344
   532.96         12.3363
   533.10         12.3688
   533.24         12.4267
   533.38         12.5023
   533.52         12.5861
   533.66         12.6684
   533.80         12.7398
   533.94         12.7946
   534.08         12.8314
   534.22         12.8532
   534.36         12.8678
   534.50         12.8861
   534.64         12.9178
   534.78         12.9671
   534.92         13.0339
   535.06         13.1144
   535.20         13.2008
   535.34         13.2829
   535.48         13.3514
   535.62         13.3989
   535.76         13.4195
   535.90         13.4080
   536.04         13.3607
   536.18         13.2792
   536.32         13.1711
   536.46         13.0501
   536.60         12.9319
   536.74         12.8312
   536.88         12.7592
   537.02         12.7228
   537.16         12.7225
   537.30         12.7539
   537.44         12.8096
   537.58         12.8810
   537.72         12.9579
   537.86         13.0294
   538.00         13.0857
   538.14         13.1195
   538.28         13.1266
   538.42         13.1056
   538.56         13.0574
   538.70         12.9863
   538.84         12.9001
   538.98         12.8084
   539.12         12.7186
   539.26         12.6342
   539.40         12.5550
   539.54         12.4797
   539.68         12.4083
   539.82         12.3416
   539.96         12.2824
   540.10         12.2355
   540.24         12.2055
   540.38         12.1946
   540.52         12.2040
   540.66         12.2347
   540.80         12.2879
   540.94         12.3629
   541.08         12.4557
   541.22         12.5597
   541.36         12.6679
   541.50         12.7752
   541.64         12.8754
   541.78         12.9606
   541.92         13.0234
   542.06         13.0601
   542.20         13.0707
   542.34         13.0577
   542.48         13.0262
   542.62         12.9848
   542.76         12.9440
   542.90         12.9130
   543.04         12.8988
   543.18         12.9051
   543.32         12.9308
   543.46         12.9692
   543.60         13.0107
   543.74         13.0473
   543.88         13.0761
   544.02         13.0985
   544.16         13.1155
   544.30         13.1245
   544.44         13.1220
   544.58         13.1083
   544.72         13.0877
   544.86         13.0664
   545.00         13.0503
   545.14         13.0435
   545.28         13.0476
   545.42         13.0609
   545.56         13.0790
   545.70         13.0968
   545.84         13.1104
   545.98         13.1171
   546.12         13.1169
   546.26         13.1123
   546.40         13.1061
   546.54         13.0979
   546.68         13.0846
   546.82         13.0623
   546.96         13.0298
   547.10         12.9899
   547.24         12.9491
   547.38         12.9132
   547.52         12.8851
   547.66         12.8655
   547.80         12.8546
   547.94         12.8535
   548.08         12.8636
   548.22         12.8851
   548.36         12.9178
   548.50         12.9600
   548.64         13.0078
   548.78         13.0561
   548.92         13.1002
   549.06         13.1372
   549.20         13.1660
   549.34         13.1876
   549.48         13.2026
   549.62         13.2109
   549.76         13.2125
   549.90         13.2086
   550.04         13.1991
   550.18         13.1824
   550.32         13.1573
   550.46         13.1247
   550.60         13.0875
   550.74         13.0500
   550.88         13.0177
   551.02         12.9952
   551.16         12.9844
   551.30         12.9846
   551.44         12.9944
   551.58         13.0117
   551.72         13.0326
   551.86         13.0521
   552.00         13.0664
   552.14         13.0736
   552.28         13.0727
   552.42         13.0636
   552.56         13.0470
   552.70         13.0244
   552.84         12.9983
   552.98         12.9729
   553.12         12.9532
   553.26         12.9426
   553.40         12.9426
   553.54         12.9535
   553.68         12.9742
   553.82         13.0031
   553.96         13.0396
   554.10         13.0828
   554.24         13.1310
   554.38         13.1817
   554.52         13.2324
   554.66         13.2799
   554.80         13.3194
   554.94         13.3468
   555.08         13.3605
   555.22         13.3604
   555.36         13.3466
   555.50         13.3192
   555.64         13.2790
   555.78         13.2271
   555.92         13.1658
   556.06         13.0990
   556.20         13.0308
   556.34         12.9645
   556.48         12.9027
   556.62         12.8486
   556.76         12.8050
   556.90         12.7739
   557.04         12.7561
   557.18         12.7514
   557.32         12.7582
   557.46         12.7731
   557.60         12.7908
   557.74         12.8035
   557.88         12.8028
   558.02         12.7832
   558.16         12.7435
   558.30         12.6857
   558.44         12.6149
   558.58         12.5378
   558.72         12.4617
   558.86         12.3929
   559.00         12.3368
   559.14         12.2967
   559.28         12.2738
   559.42         12.2682
   559.56         12.2800
   559.70         12.3092
   559.84         12.3549
   559.98         12.4148
   560.12         12.4860
   560.26         12.5647
   560.40         12.6456
   560.54         12.7222
   560.68         12.7886
   560.82         12.8404
   560.96         12.8749
   561.10         12.8911
   561.24         12.8897
   561.38         12.8722
   561.52         12.8412
   561.66         12.8008
   561.80         12.7579
   561.94         12.7221
   562.08         12.7026
   562.22         12.7046
   562.36         12.7282
   562.50         12.7690
   562.64         12.8205
   562.78         12.8754
   562.92         12.9262
   563.06         12.9674
   563.20         12.9965
   563.34         13.0141
   563.48         13.0227
   563.62         13.0250
   563.76         13.0232
   563.90         13.0182
   564.04         13.0096
   564.18         12.9977
   564.32         12.9834
   564.46         12.9676
   564.60         12.9489
   564.74         12.9245
   564.88         12.8910
   565.02         12.8460
   565.16         12.7900
   565.30         12.7259
   565.44         12.6579
   565.58         12.5909
   565.72         12.5302
   565.86         12.4811
   566.00         12.4482
   566.14         12.4358
   566.28         12.4470
   566.42         12.4812
   566.56         12.5343
   566.70         12.6003
   566.84         12.6733
   566.98         12.7481
   567.12         12.8189
   567.26         12.8803
   567.40         12.9275
   567.54         12.9576
   567.68         12.9691
   567.82         12.9626
   567.96         12.9406
   568.10         12.9080
   568.24         12.8709
   568.38         12.8356
   568.52         12.8075
   568.66         12.7909
   568.80         12.7879
   568.94         12.7975
   569.08         12.8158
   569.22         12.8375
   569.36         12.8592
   569.50         12.8785
   569.64         12.8919
   569.78         12.8940
   569.92         12.8796
   570.06         12.8465
   570.20         12.7954
   570.34         12.7302
   570.48         12.6575
   570.62         12.5855
   570.76         12.5213
   570.90         12.4703
   571.04         12.4372
   571.18         12.4268
   571.32         12.4416
   571.46         12.4820
   571.60         12.5461
   571.74         12.6302
   571.88         12.7286
   572.02         12.8339
   572.16         12.9370
   572.30         13.0293
   572.44         13.1042
   572.58         13.1588
   572.72         13.1936
   572.86         13.2109
   573.00         13.2138
   573.14         13.2058
   573.28         13.1904
   573.42         13.1709
   573.56         13.1506
   573.70         13.1327
   573.84         13.1188
   573.98         13.1085
   574.12         13.0997
   574.26         13.0884
   574.40         13.0716
   574.54         13.0493
   574.68         13.0237
   574.82         12.9980
   574.96         12.9746
   575.10         12.9541
   575.24         12.9366
   575.38         12.9222
   575.52         12.9119
   575.66         12.9067
   575.80         12.9076
   575.94         12.9164
   576.08         12.9336
   576.22         12.9584
   576.36         12.9886
   576.50         13.0217
   576.64         13.0547
   576.78         13.0843
   576.92         13.1077
   577.06         13.1228
   577.20         13.1265
   577.34         13.1145
   577.48         13.0837
   577.62         13.0338
   577.76         12.9681
   577.90         12.8923
   578.04         12.8137
   578.18         12.7402
   578.32         12.6786
   578.46         12.6342
   578.60         12.6102
   578.74         12.6072
   578.88         12.6238
   579.02         12.6580
   579.16         12.7065
   579.30         12.7643
   579.44         12.8246
   579.58         12.8807
   579.72         12.9272
   579.86         12.9614
   580.00         12.9830
   580.14         12.9943
   580.28         12.9981
   580.42         12.9961
   580.56         12.9894
   580.70         12.9807
   580.84         12.9731
   580.98         12.9704
   581.12         12.9757
   581.26         12.9910
   581.40         13.0165
   581.54         13.0512
   581.68         13.0935
   581.82         13.1416
   581.96         13.1929
   582.10         13.2445
   582.24         13.2937
   582.38         13.3382
   582.52         13.3761
   582.66         13.4062
   582.80         13.4277
   582.94         13.4401
   583.08         13.4437
   583.22         13.4401
   583.36         13.4314
   583.50         13.4190
   583.64         13.4037
   583.78         13.3853
   583.92         13.3636
   584.06         13.3379
   584.20         13.3073
   584.34         13.2699
   584.48         13.2243
   584.62         13.1693
   584.76         13.1050
   584.90         13.0339
   585.04         12.9606
   585.18         12.8897
   585.32         12.8263
   585.46         12.7744
   585.60         12.7370
   585.74         12.7170
   585.88         12.7162
   586.02         12.7344
   586.16         12.7697
   586.30         12.8191
   586.44         12.8778
   586.58         12.9394
   586.72         12.9970
   586.86         13.0450
   587.00         13.0790
   587.14         13.0961
   587.28         13.0950
   587.42         13.0757
   587.56         13.0373
   587.70         12.9751
   587.84         12.8819
   587.98         12.7540
   588.12         12.5938
   588.26         12.4075
   588.40         12.2024
   588.54         11.9870
   588.68         11.7735
   588.82         11.5776
   588.96         11.4162
   589.10         11.3034
   589.24         11.2491
   589.38         11.2581
   589.52         11.3294
   589.66         11.4558
   589.80         11.6262
   589.94         11.8258
   590.08         12.0379
   590.22         12.2439
   590.36         12.4278
   590.50         12.5799
   590.64         12.6977
   590.78         12.7816
   590.92         12.8333
   591.06         12.8574
   591.20         12.8626
   591.34         12.8584
   591.48         12.8514
   591.62         12.8444
   591.76         12.8372
   591.90         12.8282
   592.04         12.8150
   592.18         12.7961
   592.32         12.7717
   592.46         12.7440
   592.60         12.7171
   592.74         12.6948
   592.88         12.6800
   593.02         12.6742
   593.16         12.6779
   593.30         12.6914
   593.44         12.7135
   593.58         12.7411
   593.72         12.7694
   593.86         12.7924
   594.00         12.8051
   594.14         12.8047
   594.28         12.7905
   594.42         12.7635
   594.56         12.7269
   594.70         12.6867
   594.84         12.6494
   594.98         12.6215
   595.12         12.6075
   595.26         12.6087
   595.40         12.6222
   595.54         12.6432
   595.68         12.6673
   595.82         12.6922
   595.96         12.7171
   596.10         12.7396
   596.24         12.7570
   596.38         12.7677
   596.52         12.7714
   596.66         12.7672
   596.80         12.7554
   596.94         12.7379
   597.08         12.7171
   597.22         12.6937
   597.36         12.6672
   597.50         12.6374
   597.64         12.6046
   597.78         12.5692
   597.92         12.5325
   598.06         12.4980
   598.20         12.4699
   598.34         12.4520
   598.48         12.4462
   598.62         12.4524
   598.76         12.4687
   598.90         12.4936
   599.04         12.5255
   599.18         12.5613
   599.32         12.5983
   599.46         12.6344
   599.60         12.6656
   599.74         12.6865
   599.88         12.6933
   600.02         12.6864
   600.16         12.6677
   600.30         12.6386
   600.44         12.6014
   600.58         12.5589
   600.72         12.5135
   600.86         12.4656
   601.00         12.4155
   601.14         12.3643
   601.28         12.3143
   601.42         12.2682
   601.56         12.2284
   601.70         12.1966
   601.84         12.1738
   601.98         12.1605
   602.12         12.1554
   602.26         12.1571
   602.40         12.1662
   602.54         12.1830
   602.68         12.2053
   602.82         12.2295
   602.96         12.2530
   603.10         12.2742
   603.24         12.2930
   603.38         12.3097
   603.52         12.3250
   603.66         12.3408
   603.80         12.3598
   603.94         12.3836
   604.08         12.4121
   604.22         12.4434
   604.36         12.4744
   604.50         12.5019
   604.64         12.5239
   604.78         12.5400
   604.92         12.5506
   605.06         12.5556
   605.20         12.5535
   605.34         12.5442
   605.48         12.5297
   605.62         12.5131
   605.76         12.4982
   605.90         12.4885
   606.04         12.4863
   606.18         12.4919
   606.32         12.5038
   606.46         12.5178
   606.60         12.5292
   606.74         12.5339
   606.88         12.5300
   607.02         12.5172
   607.16         12.4964
   607.30         12.4690
   607.44         12.4365
   607.58         12.4003
   607.72         12.3618
   607.86         12.3233
   608.00         12.2871
   608.14         12.2556
   608.28         12.2296
   608.42         12.2082
   608.56         12.1889
   608.70         12.1683
   608.84         12.1420
   608.98         12.1056
   609.12         12.0576
   609.26         12.0002
   609.40         11.9388
   609.54         11.8796
   609.68         11.8286
   609.82         11.7907
   609.96         11.7699
   610.10         11.7689
   610.24         11.7881
   610.38         11.8255
   610.52         11.8773
   610.66         11.9384
   610.80         12.0014
   610.94         12.0578
   611.08         12.0996
   611.22         12.1222
   611.36         12.1243
   611.50         12.1077
   611.64         12.0773
   611.78         12.0403
   611.92         12.0041
   612.06         11.9740
   612.20         11.9526
   612.34         11.9386
   612.48         11.9276
   612.62         11.9148
   612.76         11.8978
   612.90         11.8749
   613.04         11.8460
   613.18         11.8128
   613.32         11.7780
   613.46         11.7455
   613.60         11.7202
   613.74         11.7080
   613.88         11.7133
   614.02         11.7370
   614.16         11.7766
   614.30         11.8273
   614.44         11.8833
   614.58         11.9385
   614.72         11.9864
   614.86         12.0190
   615.00         12.0279
   615.14         12.0090
   615.28         11.9640
   615.42         11.8988
   615.56         11.8195
   615.70         11.7318
   615.84         11.6412
   615.98         11.5531
   616.12         11.4737
   616.26         11.4090
   616.40         11.3633
   616.54         11.3402
   616.68         11.3427
   616.82         11.3720
   616.96         11.4271
   617.10         11.5045
   617.24         11.5979
   617.38         11.6980
   617.52         11.7940
   617.66         11.8778
   617.80         11.9449
   617.94         11.9934
   618.08         12.0226
   618.22         12.0342
   618.36         12.0321
   618.50         12.0226
   618.64         12.0125
   618.78         12.0079
   618.92         12.0129
   619.06         12.0299
   619.20         12.0605
   619.34         12.1041
   619.48         12.1573
   619.62         12.2156
   619.76         12.2736
   619.90         12.3261
   620.04         12.3676
   620.18         12.3937
   620.32         12.4018
   620.46         12.3920
   620.60         12.3658
   620.74         12.3265
   620.88         12.2771
   621.02         12.2194
   621.16         12.1550
   621.30         12.0871
   621.44         12.0202
   621.58         11.9587
   621.72         11.9060
   621.86         11.8627
   622.00         11.8263
   622.14         11.7941
   622.28         11.7648
   622.42         11.7380
   622.56         11.7128
   622.70         11.6883
   622.84         11.6645
   622.98         11.6423
   623.12         11.6231
   623.26         11.6078
   623.40         11.5961
   623.54         11.5872
   623.68         11.5815
   623.82         11.5808
   623.96         11.5858
   624.10         11.5939
   624.24         11.6010
   624.38         11.6028
   624.52         11.5970
   624.66         11.5838
   624.80         11.5660
   624.94         11.5472
   625.08         11.5287
   625.22         11.5092
   625.36         11.4866
   625.50         11.4613
   625.64         11.4363
   625.78         11.4158
   625.92         11.4041
   626.06         11.4044
   626.20         11.4195
   626.34         11.4499
   626.48         11.4936
   626.62         11.5451
   626.76         11.5974
   626.90         11.6449
   627.04         11.6831
   627.18         11.7091
   627.32         11.7217
   627.46         11.7221
   627.60         11.7134
   627.74         11.6997
   627.88         11.6856
   628.02         11.6759
   628.16         11.6755
   628.30         11.6872
   628.44         11.7110
   628.58         11.7444
   628.72         11.7831
   628.86         11.8207
   629.00         11.8500
   629.14         11.8650
   629.28         11.8631
   629.42         11.8453
   629.56         11.8163
   629.70         11.7825
   629.84         11.7503
   629.98         11.7248
   630.12         11.7086
   630.26         11.7015
   630.40         11.7007
   630.54         11.7011
   630.68         11.6981
   630.82         11.6891
   630.96         11.6736
   631.10         11.6515
   631.24         11.6235
   631.38         11.5922
   631.52         11.5616
   631.66         11.5371
   631.80         11.5242
   631.94         11.5268
   632.08         11.5460
   632.22         11.5788
   632.36         11.6188
   632.50         11.6575
   632.64         11.6881
   632.78         11.7068
   632.92         11.7120
   633.06         11.7043
   633.20         11.6860
   633.34         11.6610
   633.48         11.6346
   633.62         11.6124
   633.76         11.5990
   633.90         11.5973
   634.04         11.6083
   634.18         11.6312
   634.32         11.6624
   634.46         11.6969
   634.60         11.7290
   634.74         11.7536
   634.88         11.7662
   635.02         11.7633
   635.16         11.7449
   635.30         11.7137
   635.44         11.6743
   635.58         11.6314
   635.72         11.5901
   635.86         11.5554
   636.00         11.5319
   636.14         11.5235
   636.28         11.5315
   636.42         11.5545
   636.56         11.5890
   636.70         11.6309
   636.84         11.6743
   636.98         11.7130
   637.12         11.7428
   637.26         11.7625
   637.40         11.7725
   637.54         11.7739
   637.68         11.7687
   637.82         11.7604
   637.96         11.7527
   638.10         11.7474
   638.24         11.7439
   638.38         11.7409
   638.52         11.7369
   638.66         11.7303
   638.80         11.7186
   638.94         11.6998
   639.08         11.6735
   639.22         11.6414
   639.36         11.6061
   639.50         11.5697
   639.64         11.5343
   639.78         11.5019
   639.92         11.4740
   640.06         11.4509
   640.20         11.4323
   640.34         11.4179
   640.48         11.4070
   640.62         11.3980
   640.76         11.3881
   640.90         11.3757
   641.04         11.3612
   641.18         11.3458
   641.32         11.3316
   641.46         11.3212
   641.60         11.3176
   641.74         11.3224
   641.88         11.3347
   642.02         11.3521
   642.16         11.3728
   642.30         11.3966
   642.44         11.4234
   642.58         11.4516
   642.72         11.4785
   642.86         11.5011
   643.00         11.5178
   643.14         11.5283
   643.28         11.5328
   643.42         11.5325
   643.56         11.5293
   643.70         11.5253
   643.84         11.5218
   643.98         11.5198
   644.12         11.5198
   644.26         11.5222
   644.40         11.5261
   644.54         11.5312
   644.68         11.5382
   644.82         11.5471
   644.96         11.5552
   645.10         11.5578
   645.24         11.5516
   645.38         11.5368
   645.52         11.5166
   645.66         11.4950
   645.80         11.4742
   645.94         11.4548
   646.08         11.4380
   646.22         11.4250
   646.36         11.4166
   646.50         11.4145
   646.64         11.4210
   646.78         11.4366
   646.92         11.4593
   647.06         11.4856
   647.20         11.5122
   647.34         11.5367
   647.48         11.5573
   647.62         11.5732
   647.76         11.5850
   647.90         11.5938
   648.04         11.5983
   648.18         11.5941
   648.32         11.5757
   648.46         11.5391
   648.60         11.4850
   648.74         11.4173
   648.88         11.3415
   649.02         11.2653
   649.16         11.1976
   649.30         11.1475
   649.44         11.1216
   649.58         11.1244
   649.72         11.1582
   649.86         11.2229
   650.00         11.3152
   650.14         11.4281
   650.28         11.5507
   650.42         11.6712
   650.56         11.7789
   650.70         11.8662
   650.84         11.9300
   650.98         11.9718
   651.12         11.9961
   651.26         12.0082
   651.40         12.0128
   651.54         12.0142
   651.68         12.0161
   651.82         12.0207
   651.96         12.0283
   652.10         12.0373
   652.24         12.0454
   652.38         12.0515
   652.52         12.0551
   652.66         12.0559
   652.80         12.0537
   652.94         12.0492
   653.08         12.0435
   653.22         12.0375
   653.36         12.0314
   653.50         12.0239
   653.64         12.0132
   653.78         11.9975
   653.92         11.9755
   654.06         11.9467
   654.20         11.9106
   654.34         11.8673
   654.48         11.8171
   654.62         11.7601
   654.76         11.6973
   654.90         11.6298
   655.04         11.5576
   655.18         11.4803
   655.32         11.3986
   655.46         11.3150
   655.60         11.2331
   655.74         11.1568
   655.88         11.0902
   656.02         11.0371
   656.16         11.0006
   656.30         10.9829
   656.44         10.9848
   656.58         11.0063
   656.72         11.0456
   656.86         11.0993
   657.00         11.1635
   657.14         11.2343
   657.28         11.3075
   657.42         11.3792
   657.56         11.4461
   657.70         11.5059
   657.84         11.5569
   657.98         11.5972
   658.12         11.6242
   658.26         11.6357
   658.40         11.6318
   658.54         11.6150
   658.68         11.5894
   658.82         11.5603
   658.96         11.5335
   659.10         11.5139
   659.24         11.5054
   659.38         11.5097
   659.52         11.5269
   659.66         11.5552
   659.80         11.5919
   659.94         11.6337
   660.08         11.6771
   660.22         11.7178
   660.36         11.7523
   660.50         11.7779
   660.64         11.7941
   660.78         11.8030
   660.92         11.8080
   661.06         11.8124
   661.20         11.8180
   661.34         11.8256
   661.48         11.8346
   661.62         11.8439
   661.76         11.8522
   661.90         11.8574
   662.04         11.8565
   662.18         11.8461
   662.32         11.8247
   662.46         11.7933
   662.60         11.7535
   662.74         11.7077
   662.88         11.6583
   663.02         11.6079
   663.16         11.5593
   663.30         11.5148
   663.44         11.4771
   663.58         11.4482
   663.72         11.4303
   663.86         11.4244
   664.00         11.4299
   664.14         11.4448
   664.28         11.4663
   664.42         11.4904
   664.56         11.5130
   664.70         11.5310
   664.84         11.5433
   664.98         11.5497
   665.12         11.5494
   665.26         11.5417
   665.40         11.5264
   665.54         11.5039
   665.68         11.4754
   665.82         11.4434
   665.96         11.4113
   666.10         11.3816
   666.24         11.3565
   666.38         11.3366
   666.52         11.3208
   666.66         11.3077
   666.80         11.2964
   666.94         11.2870
   667.08         11.2798
   667.22         11.2756
   667.36         11.2754
   667.50         11.2799
   667.64         11.2888
   667.78         11.3014
   667.92         11.3174
   668.06         11.3353
   668.20         11.3531
   668.34         11.3685
   668.48         11.3798
   668.62         11.3858
   668.76         11.3860
   668.90         11.3806
   669.04         11.3697
   669.18         11.3532
   669.32         11.3318
   669.46         11.3059
   669.60         11.2757
   669.74         11.2422
   669.88         11.2062
   670.02         11.1688
   670.16         11.1301
   670.30         11.0904
   670.44         11.0504
   670.58         11.0118
   670.72         10.9764
   670.86         10.9466
   671.00         10.9248
   671.14         10.9139
   671.28         10.9155
   671.42         10.9287
   671.56         10.9507
   671.70         10.9775
   671.84         11.0049
   671.98         11.0294
   672.12         11.0494
   672.26         11.0643
   672.40         11.0751
   672.54         11.0829
   672.68         11.0890
   672.82         11.0948
   672.96         11.1016
   673.10         11.1107
   673.24         11.1233
   673.38         11.1403
   673.52         11.1619
   673.66         11.1868
   673.80         11.2120
   673.94         11.2334
   674.08         11.2474
   674.22         11.2527
   674.36         11.2493
   674.50         11.2383
   674.64         11.2221
   674.78         11.2034
   674.92         11.1842
   675.06         11.1668
   675.20         11.1532
   675.34         11.1450
   675.48         11.1428
   675.62         11.1464
   675.76         11.1548
   675.90         11.1666
   676.04         11.1791
   676.18         11.1896
   676.32         11.1962
   676.46         11.1985
   676.60         11.1974
   676.74         11.1943
   676.88         11.1904
   677.02         11.1860
   677.16         11.1809
   677.30         11.1748
   677.44         11.1679
   677.58         11.1609
   677.72         11.1550
   677.86         11.1508
   678.00         11.1475
   678.14         11.1433
   678.28         11.1366
   678.42         11.1262
   678.56         11.1117
   678.70         11.0939
   678.84         11.0738
   678.98         11.0529
   679.12         11.0319
   679.26         11.0113
   679.40         10.9914
   679.54         10.9730
   679.68         10.9565
   679.82         10.9421
   679.96         10.9304
   680.10         10.9219
   680.24         10.9169
   680.38         10.9149
   680.52         10.9152
   680.66         10.9164
   680.80         10.9171
   680.94         10.9167
   681.08         10.9147
   681.22         10.9116
   681.36         10.9078
   681.50         10.9040
   681.64         10.8999
   681.78         10.8949
   681.92         10.8888
   682.06         10.8816
   682.20         10.8730
   682.34         10.8627
   682.48         10.8510
   682.62         10.8386
   682.76         10.8257
   682.90         10.8120
   683.04         10.7966
   683.18         10.7782
   683.32         10.7559
   683.46         10.7294
   683.60         10.7000
   683.74         10.6694
   683.88         10.6403
   684.02         10.6147
   684.16         10.5939
   684.30         10.5778
   684.44         10.5664
   684.58         10.5592
   684.72         10.5557
   684.86         10.5553
   685.00         10.5569
   685.14         10.5590
   685.28         10.5595
   685.42         10.5544
   685.56         10.5366
   685.70         10.4964
   685.84         10.4244
   685.98         10.3142
   686.12         10.1646
   686.26         9.9792
   686.40         9.7656
   686.54         9.5349
   686.68         9.3016
   686.82         9.0819
   686.96         8.8932
   687.10         8.7519
   687.24         8.6704
   687.38         8.6542
   687.52         8.7004
   687.66         8.7992
   687.80         8.9349
   687.94         9.0892
   688.08         9.2424
   688.22         9.3774
   688.36         9.4825
   688.50         9.5537
   688.64         9.5939
   688.78         9.6094
   688.92         9.6080
   689.06         9.5979
   689.20         9.5877
   689.34         9.5845
   689.48         9.5932
   689.62         9.6154
   689.76         9.6496
   689.90         9.6923
   690.04         9.7396
   690.18         9.7884
   690.32         9.8366
   690.46         9.8827
   690.60         9.9252
   690.74         9.9636
   690.88         9.9979
   691.02         10.0291
   691.16         10.0580
   691.30         10.0849
   691.44         10.1100
   691.58         10.1336
   691.72         10.1566
   691.86         10.1799
   692.00         10.2039
   692.14         10.2293
   692.28         10.2561
   692.42         10.2836
   692.56         10.3110
   692.70         10.3368
   692.84         10.3594
   692.98         10.3776
   693.12         10.3908
   693.26         10.3992
   693.40         10.4039
   693.54         10.4064
   693.68         10.4084
   693.82         10.4110
   693.96         10.4162
   694.10         10.4262
   694.24         10.4425
   694.38         10.4655
   694.52         10.4940
   694.66         10.5260
   694.80         10.5586
   694.94         10.5891
   695.08         10.6164
   695.22         10.6408
   695.36         10.6633
   695.50         10.6852
   695.64         10.7076
   695.78         10.7314
   695.92         10.7566
   696.06         10.7828
   696.20         10.8091
   696.34         10.8334
   696.48         10.8528
   696.62         10.8637
   696.76         10.8627
   696.90         10.8477
   697.04         10.8195
   697.18         10.7822
   697.32         10.7416
   697.46         10.7037
   697.60         10.6729
   697.74         10.6521
   697.88         10.6420
   698.02         10.6413
   698.16         10.6478
   698.30         10.6585
   698.44         10.6703
   698.58         10.6795
   698.72         10.6824
   698.86         10.6765
   699.00         10.6609
   699.14         10.6360
   699.28         10.6038
   699.42         10.5674
   699.56         10.5312
   699.70         10.4997
   699.84         10.4761
   699.98         10.4616
   700.12         10.4561
   700.26         10.4584
   700.40         10.4665
   700.54         10.4775
   700.68         10.4890
   700.82         10.5001
   700.96         10.5102
   701.10         10.5183
   701.24         10.5227
   701.38         10.5232
   701.52         10.5205
   701.66         10.5162
   701.80         10.5116
   701.94         10.5080
   702.08         10.5064
   702.22         10.5075
   702.36         10.5111
   702.50         10.5168
   702.64         10.5238
   702.78         10.5303
   702.92         10.5346
   703.06         10.5362
   703.20         10.5366
   703.34         10.5386
   703.48         10.5441
   703.62         10.5533
   703.76         10.5659
   703.90         10.5812
   704.04         10.5978
   704.18         10.6136
   704.32         10.6258
   704.46         10.6324
   704.60         10.6323
   704.74         10.6249
   704.88         10.6105
   705.02         10.5909
   705.16         10.5687
   705.30         10.5470
   705.44         10.5283
   705.58         10.5139
   705.72         10.5046
   705.86         10.5006
   706.00         10.5020
   706.14         10.5085
   706.28         10.5196
   706.42         10.5340
   706.56         10.5502
   706.70         10.5668
   706.84         10.5831
   706.98         10.5987
   707.12         10.6132
   707.26         10.6255
   707.40         10.6339
   707.54         10.6368
   707.68         10.6339
   707.82         10.6249
   707.96         10.6094
   708.10         10.5871
   708.24         10.5591
   708.38         10.5280
   708.52         10.4975
   708.66         10.4710
   708.80         10.4511
   708.94         10.4394
   709.08         10.4361
   709.22         10.4408
   709.36         10.4525
   709.50         10.4702
   709.64         10.4928
   709.78         10.5182
   709.92         10.5443
   710.06         10.5686
   710.20         10.5899
   710.34         10.6072
   710.48         10.6195
   710.62         10.6263
   710.76         10.6276
   710.90         10.6236
   711.04         10.6149
   711.18         10.6029
   711.32         10.5889
   711.46         10.5747
   711.60         10.5613
   711.74         10.5495
   711.88         10.5401
   712.02         10.5330
   712.16         10.5271
   712.30         10.5214
   712.44         10.5149
   712.58         10.5069
   712.72         10.4979
   712.86         10.4883
   713.00         10.4784
   713.14         10.4673
   713.28         10.4546
   713.42         10.4405
   713.56         10.4254
   713.70         10.4101
   713.84         10.3960
   713.98         10.3841
   714.12         10.3754
   714.26         10.3702
   714.40         10.3687
   714.54         10.3710
   714.68         10.3771
   714.82         10.3867
   714.96         10.3989
   715.10         10.4114
   715.24         10.4213
   715.38         10.4261
   715.52         10.4242
   715.66         10.4152
   715.80         10.3996
   715.94         10.3783
   716.08         10.3523
   716.22         10.3223
   716.36         10.2894
   716.50         10.2545
   716.64         10.2181
   716.78         10.1809
   716.92         10.1436
   717.06         10.1067
   717.20         10.0692
   717.34         10.0277
   717.48         9.9790
   717.62         9.9222
   717.76         9.8593
   717.90         9.7938
   718.04         9.7300
   718.18         9.6724
   718.32         9.6246
   718.46         9.5898
   718.60         9.5706
   718.74         9.5674
   718.88         9.5784
   719.02         9.6009
   719.16         9.6321
   719.30         9.6683
   719.44         9.7042
   719.58         9.7348
   719.72         9.7572
   719.86         9.7707
   720.00         9.7776
   720.14         9.7837
   720.28         9.7955
   720.42         9.8185
   720.56         9.8564
   720.70         9.9109
   720.84         9.9812
   720.98         10.0637
   721.12         10.1526
   721.26         10.2408
   721.40         10.3213
   721.54         10.3893
   721.68         10.4427
   721.82         10.4805
   721.96         10.5015
   722.10         10.5053
   722.24         10.4933
   722.38         10.4685
   722.52         10.4344
   722.66         10.3939
   722.80         10.3495
   722.94         10.3042
   723.08         10.2609
   723.22         10.2217
   723.36         10.1875
   723.50         10.1588
   723.64         10.1363
   723.78         10.1210
   723.92         10.1130
   724.06         10.1108
   724.20         10.1121
   724.34         10.1145
   724.48         10.1156
   724.62         10.1141
   724.76         10.1100
   724.90         10.1049
   725.04         10.1012
   725.18         10.1003
   725.32         10.1023
   725.46         10.1070
   725.60         10.1147
   725.74         10.1249
   725.88         10.1364
   726.02         10.1480
   726.16         10.1584
   726.30         10.1652
   726.44         10.1662
   726.58         10.1599
   726.72         10.1464
   726.86         10.1275
   727.00         10.1055
   727.14         10.0824
   727.28         10.0600
   727.42         10.0388
   727.56         10.0176
   727.70         9.9947
   727.84         9.9675
   727.98         9.9346
   728.12         9.8957
   728.26         9.8527
   728.40         9.8097
   728.54         9.7714
   728.68         9.7421
   728.82         9.7234
   728.96         9.7155
   729.10         9.7180
   729.24         9.7304
   729.38         9.7514
   729.52         9.7785
   729.66         9.8089
   729.80         9.8395
   729.94         9.8668
   730.08         9.8879
   730.22         9.9024
   730.36         9.9113
   730.50         9.9166
   730.64         9.9209
   730.78         9.9268
   730.92         9.9355
   731.06         9.9463
   731.20         9.9556
   731.34         9.9584
   731.48         9.9513
   731.62         9.9349
   731.76         9.9120
   731.90         9.8862
   732.04         9.8609
   732.18         9.8393
   732.32         9.8246
   732.46         9.8206
   732.60         9.8306
   732.74         9.8566
   732.88         9.8977
   733.02         9.9497
   733.16         10.0068
   733.30         10.0636
   733.44         10.1155
   733.58         10.1592
   733.72         10.1920
   733.86         10.2117
   734.00         10.2179
   734.14         10.2124
   734.28         10.1968
   734.42         10.1722
   734.56         10.1400
   734.70         10.1026
   734.84         10.0644
   734.98         10.0296
   735.12         9.9998
   735.26         9.9746
   735.40         9.9522
   735.54         9.9311
   735.68         9.9111
   735.82         9.8929
   735.96         9.8778
   736.10         9.8670
   736.24         9.8610
   736.38         9.8589
   736.52         9.8596
   736.66         9.8624
   736.80         9.8670
   736.94         9.8734
   737.08         9.8817
   737.22         9.8918
   737.36         9.9038
   737.50         9.9174
   737.64         9.9301
   737.78         9.9377
   737.92         9.9369
   738.06         9.9268
   738.20         9.9083
   738.34         9.8826
   738.48         9.8520
   738.62         9.8194
   738.76         9.7872
   738.90         9.7570
   739.04         9.7291
   739.18         9.7036
   739.32         9.6816
   739.46         9.6640
   739.60         9.6511
   739.74         9.6419
   739.88         9.6344
   740.02         9.6254
   740.16         9.6119
   740.30         9.5923
   740.44         9.5668
   740.58         9.5385
   740.72         9.5122
   740.86         9.4918
   741.00         9.4793
   741.14         9.4748
   741.28         9.4764
   741.42         9.4828
   741.56         9.4933
   741.70         9.5076
   741.84         9.5255
   741.98         9.5454
   742.12         9.5645
   742.26         9.5798
   742.40         9.5902
   742.54         9.5959
   742.68         9.5982
   742.82         9.5988
   742.96         9.5988
   743.10         9.5982
   743.24         9.5959
   743.38         9.5902
   743.52         9.5798
   743.66         9.5645
   743.80         9.5454
   743.94         9.5255
   744.08         9.5076
   744.22         9.4933
