# File HD237007
# Wavelength [nm]    Normalized Amplitude
   349.70         210.8496
   349.84         211.1945
   349.98         211.3334
   350.12         211.2167
   350.26         210.8490
   350.40         210.2920
   350.54         209.6472
   350.68         209.0225
   350.82         208.5106
   350.96         208.1770
   351.10         208.0608
   351.24         208.1770
   351.38         208.5106
   351.52         209.0225
   351.66         209.6472
   351.80         210.2920
   351.94         210.8490
   352.08         211.2167
   352.22         211.3334
   352.36         211.1945
   352.50         210.8496
   352.64         210.3768
   352.78         209.8536
   352.92         209.3523
   353.06         208.9527
   353.20         208.7238
   353.34         208.6834
   353.48         208.7876
   353.62         208.9449
   353.76         209.0515
   353.90         209.0259
   354.04         208.8227
   354.18         208.4233
   354.32         207.8133
   354.46         207.0048
   354.60         206.0639
   354.74         205.0964
   354.88         204.2128
   355.02         203.4813
   355.16         202.9136
   355.30         202.4866
   355.44         202.1686
   355.58         201.9287
   355.72         201.7186
   355.86         201.4516
   356.00         201.0345
   356.14         200.4218
   356.28         199.6326
   356.42         198.7337
   356.56         197.7847
   356.70         196.7923
   356.84         195.7252
   356.98         194.5624
   357.12         193.3145
   357.26         191.9963
   357.40         190.5998
   357.54         189.1005
   357.68         187.4875
   357.82         185.7934
   357.96         184.1016
   358.10         182.5117
   358.24         181.0980
   358.38         179.9129
   358.52         179.0033
   358.66         178.4025
   358.80         178.1051
   358.94         178.0624
   359.08         178.1982
   359.22         178.4251
   359.36         178.6780
   359.50         178.9343
   359.64         179.1892
   359.78         179.4265
   359.92         179.6231
   360.06         179.7640
   360.20         179.8500
   360.34         179.8920
   360.48         179.8960
   360.62         179.8608
   360.76         179.7764
   360.90         179.6286
   361.04         179.4110
   361.18         179.1231
   361.32         178.7705
   361.46         178.3734
   361.60         177.9621
   361.74         177.5661
   361.88         177.2192
   362.02         176.9497
   362.16         176.7634
   362.30         176.6568
   362.44         176.6305
   362.58         176.6816
   362.72         176.7843
   362.86         176.8837
   363.00         176.9230
   363.14         176.8847
   363.28         176.7945
   363.42         176.6915
   363.56         176.5917
   363.70         176.4775
   363.84         176.3357
   363.98         176.1850
   364.12         176.0551
   364.26         175.9639
   364.40         175.9224
   364.54         175.9446
   364.68         176.0332
   364.82         176.1899
   364.96         176.4255
   365.10         176.7430
   365.24         177.1130
   365.38         177.4671
   365.52         177.7400
   365.66         177.9128
   365.80         178.0058
   365.94         178.0353
   366.08         177.9787
   366.22         177.7925
   366.36         177.4538
   366.50         176.9770
   366.64         176.3967
   366.78         175.7423
   366.92         175.0471
   367.06         174.3615
   367.20         173.7418
   367.34         173.2262
   367.48         172.8210
   367.62         172.5012
   367.76         172.2383
   367.90         172.0235
   368.04         171.8615
   368.18         171.7693
   368.32         171.7557
   368.46         171.7942
   368.60         171.8257
   368.74         171.7881
   368.88         171.6599
   369.02         171.4497
   369.16         171.1563
   369.30         170.7630
   369.44         170.2517
   369.58         169.6144
   369.72         168.8472
   369.86         167.9568
   370.00         166.9804
   370.14         165.9862
   370.28         165.0599
   370.42         164.2881
   370.56         163.7268
   370.70         163.3859
   370.84         163.2532
   370.98         163.3078
   371.12         163.5190
   371.26         163.8493
   371.40         164.2457
   371.54         164.6496
   371.68         165.0205
   371.82         165.3361
   371.96         165.5862
   372.10         165.7741
   372.24         165.8971
   372.38         165.9398
   372.52         165.8965
   372.66         165.7848
   372.80         165.6313
   372.94         165.4603
   373.08         165.2922
   373.22         165.1444
   373.36         165.0258
   373.50         164.9121
   373.64         164.7396
   373.78         164.4377
   373.92         163.9408
   374.06         163.1900
   374.20         162.1641
   374.34         160.8934
   374.48         159.4432
   374.62         157.9159
   374.76         156.4560
   374.90         155.2267
   375.04         154.3818
   375.18         154.0359
   375.32         154.2342
   375.46         154.9364
   375.60         156.0127
   375.74         157.2445
   375.88         158.3636
   376.02         159.1109
   376.16         159.2852
   376.30         158.8054
   376.44         157.7470
   376.58         156.3142
   376.72         154.7888
   376.86         153.4813
   377.00         152.6797
   377.14         152.6023
   377.28         153.3679
   377.42         154.9844
   377.56         157.3510
   377.70         160.2914
   377.84         163.5796
   377.98         166.9486
   378.12         170.0963
   378.26         172.6967
   378.40         174.4487
   378.54         175.1527
   378.68         174.7501
   378.82         173.3199
   378.96         171.0635
   379.10         168.2680
   379.24         165.2638
   379.38         162.3856
   379.52         159.9527
   379.66         158.2525
   379.80         157.4864
   379.94         157.7310
   380.08         158.9447
   380.22         160.9864
   380.36         163.6318
   380.50         166.5770
   380.64         169.4689
   380.78         171.9789
   380.92         173.8804
   381.06         175.0928
   381.20         175.6688
   381.34         175.7504
   381.48         175.5111
   381.62         175.0958
   381.76         174.5825
   381.90         173.9779
   382.04         173.2206
   382.18         172.1923
   382.32         170.7505
   382.46         168.7807
   382.60         166.2591
   382.74         163.2850
   382.88         160.0619
   383.02         156.8552
   383.16         153.9585
   383.30         151.6603
   383.44         150.2130
   383.58         149.7920
   383.72         150.4546
   383.86         152.1296
   384.00         154.6363
   384.14         157.7039
   384.28         161.0037
   384.42         164.2133
   384.56         167.0741
   384.70         169.4095
   384.84         171.1261
   384.98         172.2176
   385.12         172.7593
   385.26         172.8751
   385.40         172.7022
   385.54         172.3593
   385.68         171.9217
   385.82         171.4200
   385.96         170.8653
   386.10         170.2719
   386.24         169.6518
   386.38         169.0113
   386.52         168.3657
   386.66         167.7377
   386.80         167.1266
   386.94         166.5067
   387.08         165.8377
   387.22         165.0447
   387.36         164.0125
   387.50         162.6062
   387.64         160.7069
   387.78         158.2556
   387.92         155.2820
   388.06         151.9130
   388.20         148.3513
   388.34         144.8407
   388.48         141.6457
   388.62         139.0328
   388.76         137.2342
   388.90         136.4105
   389.04         136.6351
   389.18         137.8860
   389.32         140.0335
   389.46         142.8502
   389.60         146.0562
   389.74         149.3658
   389.88         152.5156
   390.02         155.2968
   390.16         157.5856
   390.30         159.3593
   390.44         160.6803
   390.58         161.6470
   390.72         162.3469
   390.86         162.8328
   391.00         163.1304
   391.14         163.2541
   391.28         163.2087
   391.42         162.9965
   391.56         162.6166
   391.70         162.0603
   391.84         161.3112
   391.98         160.3495
   392.12         159.1671
   392.26         157.7848
   392.40         156.2597
   392.54         154.6770
   392.68         153.1451
   392.82         151.7791
   392.96         150.6772
   393.10         149.9037
   393.24         149.4801
   393.38         149.3917
   393.52         149.6030
   393.66         150.0706
   393.80         150.7372
   393.94         151.5325
   394.08         152.3897
   394.22         153.2357
   394.36         153.9889
   394.50         154.5792
   394.64         154.9606
   394.78         155.1143
   394.92         155.0381
   395.06         154.7235
   395.20         154.1447
   395.34         153.2471
   395.48         151.9430
   395.62         150.1400
   395.76         147.7758
   395.90         144.8472
   396.04         141.4360
   396.18         137.7179
   396.32         133.9437
   396.46         130.4038
   396.60         127.3860
   396.74         125.1309
   396.88         123.7969
   397.02         123.4576
   397.16         124.1061
   397.30         125.6464
   397.44         127.9041
   397.58         130.6450
   397.72         133.5995
   397.86         136.5029
   398.00         139.1314
   398.14         141.3289
   398.28         143.0189
   398.42         144.1993
   398.56         144.9344
   398.70         145.3313
   398.84         145.4996
   398.98         145.5242
   399.12         145.4515
   399.26         145.2918
   399.40         145.0431
   399.54         144.7130
   399.68         144.3259
   399.82         143.9121
   399.96         143.4963
   400.10         143.1044
   400.24         142.7678
   400.38         142.5203
   400.52         142.3790
   400.66         142.3256
   400.80         142.3150
   400.94         142.2892
   401.08         142.1832
   401.22         141.9279
   401.36         141.4552
   401.50         140.7136
   401.64         139.6889
   401.78         138.4160
   401.92         136.9773
   402.06         135.4870
   402.20         134.0711
   402.34         132.8526
   402.48         131.9337
   402.62         131.3858
   402.76         131.2463
   402.90         131.5036
   403.04         132.0919
   403.18         132.9056
   403.32         133.8321
   403.46         134.7731
   403.60         135.6494
   403.74         136.4095
   403.88         137.0363
   404.02         137.5472
   404.16         137.9796
   404.30         138.3722
   404.44         138.7515
   404.58         139.1266
   404.72         139.4968
   404.86         139.8598
   405.00         140.2051
   405.14         140.5136
   405.28         140.7648
   405.42         140.9366
   405.56         140.9971
   405.70         140.9135
   405.84         140.6622
   405.98         140.2315
   406.12         139.6257
   406.26         138.8691
   406.40         138.0013
   406.54         137.0664
   406.68         136.1114
   406.82         135.1854
   406.96         134.3330
   407.10         133.5858
   407.24         132.9620
   407.38         132.4695
   407.52         132.0977
   407.66         131.8130
   407.80         131.5669
   407.94         131.3020
   408.08         130.9549
   408.22         130.4691
   408.36         129.8060
   408.50         128.9394
   408.64         127.8426
   408.78         126.4841
   408.92         124.8363
   409.06         122.8842
   409.20         120.6368
   409.34         118.1472
   409.48         115.5215
   409.62         112.9093
   409.76         110.4863
   409.90         108.4314
   410.04         106.9017
   410.18         106.0086
   410.32         105.8054
   410.46         106.2849
   410.60         107.3752
   410.74         108.9489
   410.88         110.8473
   411.02         112.8958
   411.16         114.9254
   411.30         116.8007
   411.44         118.4427
   411.58         119.8303
   411.72         120.9830
   411.86         121.9451
   412.00         122.7732
   412.14         123.5125
   412.28         124.1854
   412.42         124.7999
   412.56         125.3538
   412.70         125.8345
   412.84         126.2149
   412.98         126.4595
   413.12         126.5316
   413.26         126.3990
   413.40         126.0489
   413.54         125.4999
   413.68         124.7988
   413.82         124.0124
   413.96         123.2147
   414.10         122.4716
   414.24         121.8334
   414.38         121.3357
   414.52         121.0037
   414.66         120.8470
   414.80         120.8573
   414.94         121.0144
   415.08         121.2895
   415.22         121.6420
   415.36         122.0188
   415.50         122.3595
   415.64         122.6089
   415.78         122.7317
   415.92         122.7180
   416.06         122.5809
   416.20         122.3503
   416.34         122.0621
   416.48         121.7492
   416.62         121.4359
   416.76         121.1363
   416.90         120.8617
   417.04         120.6266
   417.18         120.4403
   417.32         120.2994
   417.46         120.1942
   417.60         120.1115
   417.74         120.0323
   417.88         119.9323
   418.02         119.7874
   418.16         119.5815
   418.30         119.3114
   418.44         118.9853
   418.58         118.6195
   418.72         118.2325
   418.86         117.8399
   419.00         117.4520
   419.14         117.0738
   419.28         116.7085
   419.42         116.3652
   419.56         116.0605
   419.70         115.8054
   419.84         115.6021
   419.98         115.4520
   420.12         115.3534
   420.26         115.2996
   420.40         115.2854
   420.54         115.3068
   420.68         115.3581
   420.82         115.4324
   420.96         115.5218
   421.10         115.6226
   421.24         115.7371
   421.38         115.8634
   421.52         115.9954
   421.66         116.1284
   421.80         116.2549
   421.94         116.3673
   422.08         116.4589
   422.22         116.5173
   422.36         116.5216
   422.50         116.4499
   422.64         116.2838
   422.78         116.0155
   422.92         115.6593
   423.06         115.2451
   423.20         114.8033
   423.34         114.3597
   423.48         113.9387
   423.62         113.5635
   423.76         113.2565
   423.90         113.0304
   424.04         112.8835
   424.18         112.8099
   424.32         112.8005
   424.46         112.8392
   424.60         112.9073
   424.74         112.9824
   424.88         113.0317
   425.02         113.0190
   425.16         112.9165
   425.30         112.7138
   425.44         112.4188
   425.58         112.0521
   425.72         111.6395
   425.86         111.2066
   426.00         110.7797
   426.14         110.3856
   426.28         110.0465
   426.42         109.7733
   426.56         109.5649
   426.70         109.4153
   426.84         109.3194
   426.98         109.2711
   427.12         109.2587
   427.26         109.2689
   427.40         109.2902
   427.54         109.3105
   427.68         109.3235
   427.82         109.3316
   427.96         109.3404
   428.10         109.3518
   428.24         109.3635
   428.38         109.3695
   428.52         109.3675
   428.66         109.3660
   428.80         109.3761
   428.94         109.3990
   429.08         109.4260
   429.22         109.4451
   429.36         109.4438
   429.50         109.4094
   429.64         109.3261
   429.78         109.1771
   429.92         108.9525
   430.06         108.6511
   430.20         108.2803
   430.34         107.8586
   430.48         107.4096
   430.62         106.9533
   430.76         106.5053
   430.90         106.0822
   431.04         105.7039
   431.18         105.3864
   431.32         105.1292
   431.46         104.9137
   431.60         104.7152
   431.74         104.5123
   431.88         104.2872
   432.02         104.0209
   432.16         103.6870
   432.30         103.2516
   432.44         102.6746
   432.58         101.9075
   432.72         100.8943
   432.86         99.5891
   433.00         97.9781
   433.14         96.0921
   433.28         94.0097
   433.42         91.8513
   433.56         89.7595
   433.70         87.8814
   433.84         86.3538
   433.98         85.2893
   434.12         84.7680
   434.26         84.8263
   434.40         85.4506
   434.54         86.5798
   434.68         88.1086
   434.82         89.8987
   434.96         91.7973
   435.10         93.6565
   435.24         95.3531
   435.38         96.8089
   435.52         97.9959
   435.66         98.9229
   435.80         99.6182
   435.94         100.1151
   436.08         100.4465
   436.22         100.6474
   436.36         100.7604
   436.50         100.8261
   436.64         100.8715
   436.78         100.9119
   436.92         100.9547
   437.06         100.9961
   437.20         101.0221
   437.34         101.0130
   437.48         100.9431
   437.62         100.7846
   437.76         100.5130
   437.90         100.1187
   438.04         99.6133
   438.18         99.0227
   438.32         98.3840
   438.46         97.7451
   438.60         97.1590
   438.74         96.6748
   438.88         96.3276
   439.02         96.1308
   439.16         96.0770
   439.30         96.1432
   439.44         96.2981
   439.58         96.5022
   439.72         96.7084
   439.86         96.8715
   440.00         96.9534
   440.14         96.9240
   440.28         96.7692
   440.42         96.4960
   440.56         96.1313
   440.70         95.7103
   440.84         95.2653
   440.98         94.8241
   441.12         94.4062
   441.26         94.0188
   441.40         93.6580
   441.54         93.3157
   441.68         92.9835
   441.82         92.6497
   441.96         92.2999
   442.10         91.9220
   442.24         91.5082
   442.38         91.0557
   442.52         90.5697
   442.66         90.0629
   442.80         89.5561
   442.94         89.0806
   443.08         88.6780
   443.22         88.3902
   443.36         88.2469
   443.50         88.2570
   443.64         88.4122
   443.78         88.6925
   443.92         89.0715
   444.06         89.5226
   444.20         90.0185
   444.34         90.5277
   444.48         91.0180
   444.62         91.4662
   444.76         91.8597
   444.90         92.1899
   445.04         92.4479
   445.18         92.6259
   445.32         92.7204
   445.46         92.7299
   445.60         92.6460
   445.74         92.4480
   445.88         92.1061
   446.02         91.5961
   446.16         90.9181
   446.30         90.1048
   446.44         89.2168
   446.58         88.3266
   446.72         87.5066
   446.86         86.8197
   447.00         86.3129
   447.14         86.0138
   447.28         85.9333
   447.42         86.0654
   447.56         86.3879
   447.70         86.8668
   447.84         87.4600
   447.98         88.1184
   448.12         88.7842
   448.26         89.4009
   448.40         89.9321
   448.54         90.3705
   448.68         90.7283
   448.82         91.0162
   448.96         91.2343
   449.10         91.3781
   449.24         91.4421
   449.38         91.4222
   449.52         91.3214
   449.66         91.1547
   449.80         90.9485
   449.94         90.7345
   450.08         90.5391
   450.22         90.3749
   450.36         90.2399
   450.50         90.1244
   450.64         90.0214
   450.78         89.9306
   450.92         89.8570
   451.06         89.8058
   451.20         89.7733
   451.34         89.7437
   451.48         89.6993
   451.62         89.6344
   451.76         89.5561
   451.90         89.4723
   452.04         89.3827
   452.18         89.2812
   452.32         89.1608
   452.46         89.0138
   452.60         88.8323
   452.74         88.6098
   452.88         88.3424
   453.02         88.0346
   453.16         87.7016
   453.30         87.3643
   453.44         87.0433
   453.58         86.7546
   453.72         86.5082
   453.86         86.3081
   454.00         86.1541
   454.14         86.0463
   454.28         85.9837
   454.42         85.9612
   454.56         85.9668
   454.70         85.9820
   454.84         85.9882
   454.98         85.9734
   455.12         85.9334
   455.26         85.8715
   455.40         85.8004
   455.54         85.7404
   455.68         85.7125
   455.82         85.7336
   455.96         85.8123
   456.10         85.9469
   456.24         86.1236
   456.38         86.3175
   456.52         86.5031
   456.66         86.6590
   456.80         86.7667
   456.94         86.8124
   457.08         86.7902
   457.22         86.7032
   457.36         86.5618
   457.50         86.3799
   457.64         86.1721
   457.78         85.9471
   457.92         85.7058
   458.06         85.4436
   458.20         85.1550
   458.34         84.8406
   458.48         84.5121
   458.62         84.1863
   458.76         83.8848
   458.90         83.6302
   459.04         83.4394
   459.18         83.3223
   459.32         83.2788
   459.46         83.3009
   459.60         83.3758
   459.74         83.4806
   459.88         83.5810
   460.02         83.6370
   460.16         83.6159
   460.30         83.5016
   460.44         83.2928
   460.58         83.0000
   460.72         82.6482
   460.86         82.2727
   461.00         81.9091
   461.14         81.5862
   461.28         81.3257
   461.42         81.1415
   461.56         81.0333
   461.70         80.9868
   461.84         80.9814
   461.98         80.9939
   462.12         81.0040
   462.26         80.9937
   462.40         80.9479
   462.54         80.8582
   462.68         80.7235
   462.82         80.5476
   462.96         80.3360
   463.10         80.0933
   463.24         79.8267
   463.38         79.5454
   463.52         79.2557
   463.66         78.9587
   463.80         78.6543
   463.94         78.3428
   464.08         78.0291
   464.22         77.7252
   464.36         77.4488
   464.50         77.2216
   464.64         77.0649
   464.78         76.9906
   464.92         76.9974
   465.06         77.0758
   465.20         77.2136
   465.34         77.3966
   465.48         77.6086
   465.62         77.8335
   465.76         78.0604
   465.90         78.2807
   466.04         78.4832
   466.18         78.6547
   466.32         78.7873
   466.46         78.8811
   466.60         78.9455
   466.74         78.9959
   466.88         79.0434
   467.02         79.0862
   467.16         79.1128
   467.30         79.1043
   467.44         79.0401
   467.58         78.9100
   467.72         78.7193
   467.86         78.4862
   468.00         78.2368
   468.14         77.9973
   468.28         77.7858
   468.42         77.6148
   468.56         77.4903
   468.70         77.4057
   468.84         77.3507
   468.98         77.3180
   469.12         77.3024
   469.26         77.2982
   469.40         77.2946
   469.54         77.2754
   469.68         77.2262
   469.82         77.1391
   469.96         77.0130
   470.10         76.8542
   470.24         76.6775
   470.38         76.5002
   470.52         76.3374
   470.66         76.2006
   470.80         76.0922
   470.94         76.0050
   471.08         75.9363
   471.22         75.8874
   471.36         75.8567
   471.50         75.8404
   471.64         75.8323
   471.78         75.8264
   471.92         75.8197
   472.06         75.8131
   472.20         75.8077
   472.34         75.8012
   472.48         75.7907
   472.62         75.7764
   472.76         75.7638
   472.90         75.7614
   473.04         75.7733
   473.18         75.8002
   473.32         75.8420
   473.46         75.8883
   473.60         75.9223
   473.74         75.9335
   473.88         75.9176
   474.02         75.8683
   474.16         75.7746
   474.30         75.6342
   474.44         75.4600
   474.58         75.2701
   474.72         75.0751
   474.86         74.8763
   475.00         74.6758
   475.14         74.4828
   475.28         74.3097
   475.42         74.1701
   475.56         74.0731
   475.70         74.0130
   475.84         73.9738
   475.98         73.9413
   476.12         73.9014
   476.26         73.8422
   476.40         73.7563
   476.54         73.6388
   476.68         73.4855
   476.82         73.2982
   476.96         73.0874
   477.10         72.8649
   477.24         72.6414
   477.38         72.4281
   477.52         72.2393
   477.66         72.0913
   477.80         71.9962
   477.94         71.9561
   478.08         71.9656
   478.22         72.0124
   478.36         72.0811
   478.50         72.1627
   478.64         72.2518
   478.78         72.3364
   478.92         72.4009
   479.06         72.4363
   479.20         72.4388
   479.34         72.4078
   479.48         72.3479
   479.62         72.2646
   479.76         72.1605
   479.90         72.0335
   480.04         71.8820
   480.18         71.7122
   480.32         71.5355
   480.46         71.3599
   480.60         71.1890
   480.74         71.0277
   480.88         70.8798
   481.02         70.7483
   481.16         70.6353
   481.30         70.5382
   481.44         70.4513
   481.58         70.3692
   481.72         70.2901
   481.86         70.2130
   482.00         70.1365
   482.14         70.0580
   482.28         69.9762
   482.42         69.8964
   482.56         69.8289
   482.70         69.7874
   482.84         69.7850
   482.98         69.8248
   483.12         69.8977
   483.26         69.9899
   483.40         70.0859
   483.54         70.1657
   483.68         70.2058
   483.82         70.1812
   483.96         70.0639
   484.10         69.8260
   484.24         69.4490
   484.38         68.9226
   484.52         68.2371
   484.66         67.3844
   484.80         66.3656
   484.94         65.1920
   485.08         63.8830
   485.22         62.4691
   485.36         61.0024
   485.50         59.5546
   485.64         58.2016
   485.78         57.0190
   485.92         56.0821
   486.06         55.4528
   486.20         55.1671
   486.34         55.2295
   486.48         55.6138
   486.62         56.2689
   486.76         57.1315
   486.90         58.1327
   487.04         59.1953
   487.18         60.2366
   487.32         61.1798
   487.46         61.9675
   487.60         62.5711
   487.74         62.9924
   487.88         63.2570
   488.02         63.4033
   488.16         63.4699
   488.30         63.4899
   488.44         63.4902
   488.58         63.4893
   488.72         63.4982
   488.86         63.5238
   489.00         63.5734
   489.14         63.6549
   489.28         63.7720
   489.42         63.9221
   489.56         64.0936
   489.70         64.2650
   489.84         64.4151
   489.98         64.5340
   490.12         64.6219
   490.26         64.6841
   490.40         64.7247
   490.54         64.7458
   490.68         64.7416
   490.82         64.6952
   490.96         64.5866
   491.10         64.4030
   491.24         64.1472
   491.38         63.8376
   491.52         63.5074
   491.66         63.2008
   491.80         62.9571
   491.94         62.8018
   492.08         62.7492
   492.22         62.7989
   492.36         62.9360
   492.50         63.1396
   492.64         63.3870
   492.78         63.6538
   492.92         63.9162
   493.06         64.1535
   493.20         64.3475
   493.34         64.4840
   493.48         64.5626
   493.62         64.5969
   493.76         64.6054
   493.90         64.6062
   494.04         64.6117
   494.18         64.6259
   494.32         64.6410
   494.46         64.6389
   494.60         64.6037
   494.74         64.5350
   494.88         64.4434
   495.02         64.3402
   495.16         64.2385
   495.30         64.1526
   495.44         64.0911
   495.58         64.0561
   495.72         64.0423
   495.86         64.0398
   496.00         64.0392
   496.14         64.0312
   496.28         64.0032
   496.42         63.9426
   496.56         63.8458
   496.70         63.7161
   496.84         63.5591
   496.98         63.3817
   497.12         63.1918
   497.26         62.9965
   497.40         62.8021
   497.54         62.6095
   497.68         62.4157
   497.82         62.2230
   497.96         62.0396
   498.10         61.8783
   498.24         61.7542
   498.38         61.6755
   498.52         61.6445
   498.66         61.6609
   498.80         61.7179
   498.94         61.7991
   499.08         61.8828
   499.22         61.9513
   499.36         61.9918
   499.50         61.9986
   499.64         61.9769
   499.78         61.9378
   499.92         61.8929
   500.06         61.8516
   500.20         61.8198
   500.34         61.7992
   500.48         61.7903
   500.62         61.7960
   500.76         61.8135
   500.90         61.8306
   501.04         61.8311
   501.18         61.8045
   501.32         61.7470
   501.46         61.6533
   501.60         61.5162
   501.74         61.3383
   501.88         61.1333
   502.02         60.9150
   502.16         60.6945
   502.30         60.4786
   502.44         60.2665
   502.58         60.0547
   502.72         59.8459
   502.86         59.6485
   503.00         59.4710
   503.14         59.3226
   503.28         59.2095
   503.42         59.1240
   503.56         59.0536
   503.70         58.9906
   503.84         58.9341
   503.98         58.8847
   504.12         58.8404
   504.26         58.8004
   504.40         58.7659
   504.54         58.7339
   504.68         58.6988
   504.82         58.6588
   504.96         58.6121
   505.10         58.5556
   505.24         58.4913
   505.38         58.4265
   505.52         58.3704
   505.66         58.3311
   505.80         58.3126
   505.94         58.3091
   506.08         58.3094
   506.22         58.3100
   506.36         58.3155
   506.50         58.3313
   506.64         58.3588
   506.78         58.3931
   506.92         58.4256
   507.06         58.4467
   507.20         58.4471
   507.34         58.4201
   507.48         58.3617
   507.62         58.2721
   507.76         58.1586
   507.90         58.0337
   508.04         57.9068
   508.18         57.7769
   508.32         57.6344
   508.46         57.4676
   508.60         57.2710
   508.74         57.0526
   508.88         56.8333
   509.02         56.6347
   509.16         56.4708
   509.30         56.3467
   509.44         56.2620
   509.58         56.2153
   509.72         56.2051
   509.86         56.2254
   510.00         56.2661
   510.14         56.3169
   510.28         56.3702
   510.42         56.4180
   510.56         56.4482
   510.70         56.4452
   510.84         56.3957
   510.98         56.2976
   511.12         56.1573
   511.26         55.9881
   511.40         55.8074
   511.54         55.6291
   511.68         55.4597
   511.82         55.3033
   511.96         55.1694
   512.10         55.0694
   512.24         55.0089
   512.38         54.9883
   512.52         55.0068
   512.66         55.0621
   512.80         55.1488
   512.94         55.2567
   513.08         55.3697
   513.22         55.4683
   513.36         55.5386
   513.50         55.5774
   513.64         55.5865
   513.78         55.5656
   513.92         55.5158
   514.06         55.4378
   514.20         55.3307
   514.34         55.1973
   514.48         55.0442
   514.62         54.8820
   514.76         54.7200
   514.90         54.5656
   515.04         54.4285
   515.18         54.3164
   515.32         54.2315
   515.46         54.1710
   515.60         54.1298
   515.74         54.1036
   515.88         54.0892
   516.02         54.0854
   516.16         54.0893
   516.30         54.0940
   516.44         54.0918
   516.58         54.0796
   516.72         54.0582
   516.86         54.0309
   517.00         54.0012
   517.14         53.9718
   517.28         53.9470
   517.42         53.9285
   517.56         53.9136
   517.70         53.8972
   517.84         53.8731
   517.98         53.8347
   518.12         53.7780
   518.26         53.7054
   518.40         53.6269
   518.54         53.5546
   518.68         53.4983
   518.82         53.4633
   518.96         53.4511
   519.10         53.4588
   519.24         53.4807
   519.38         53.5099
   519.52         53.5384
   519.66         53.5580
   519.80         53.5631
   519.94         53.5488
   520.08         53.5062
   520.22         53.4254
   520.36         53.3026
   520.50         53.1434
   520.64         52.9607
   520.78         52.7688
   520.92         52.5780
   521.06         52.3936
   521.20         52.2208
   521.34         52.0651
   521.48         51.9330
   521.62         51.8277
   521.76         51.7471
   521.90         51.6888
   522.04         51.6507
   522.18         51.6264
   522.32         51.6058
   522.46         51.5800
   522.60         51.5434
   522.74         51.4933
   522.88         51.4307
   523.02         51.3613
   523.16         51.2908
   523.30         51.2203
   523.44         51.1481
   523.58         51.0737
   523.72         51.0006
   523.86         50.9331
   524.00         50.8711
   524.14         50.8108
   524.28         50.7459
   524.42         50.6732
   524.56         50.5936
   524.70         50.5085
   524.84         50.4212
   524.98         50.3369
   525.12         50.2604
   525.26         50.1940
   525.40         50.1371
   525.54         50.0887
   525.68         50.0483
   525.82         50.0154
   525.96         49.9888
   526.10         49.9662
   526.24         49.9435
   526.38         49.9153
   526.52         49.8775
   526.66         49.8310
   526.80         49.7805
   526.94         49.7321
   527.08         49.6906
   527.22         49.6574
   527.36         49.6293
   527.50         49.6013
   527.64         49.5679
   527.78         49.5245
   527.92         49.4686
   528.06         49.3998
   528.20         49.3154
   528.34         49.2112
   528.48         49.0851
   528.62         48.9403
   528.76         48.7849
   528.90         48.6296
   529.04         48.4857
   529.18         48.3644
   529.32         48.2717
   529.46         48.2066
   529.60         48.1633
   529.74         48.1339
   529.88         48.1085
   530.02         48.0811
   530.16         48.0514
   530.30         48.0189
   530.44         47.9792
   530.58         47.9270
   530.72         47.8593
   530.86         47.7768
   531.00         47.6878
   531.14         47.6036
   531.28         47.5335
   531.42         47.4842
   531.56         47.4550
   531.70         47.4387
   531.84         47.4276
   531.98         47.4167
   532.12         47.4030
   532.26         47.3837
   532.40         47.3551
   532.54         47.3145
   532.68         47.2623
   532.82         47.1975
   532.96         47.1175
   533.10         47.0239
   533.24         46.9237
   533.38         46.8243
   533.52         46.7315
   533.66         46.6511
   533.80         46.5876
   533.94         46.5458
   534.08         46.5306
   534.22         46.5426
   534.36         46.5787
   534.50         46.6344
   534.64         46.7000
   534.78         46.7589
   534.92         46.7942
   535.06         46.7942
   535.20         46.7535
   535.34         46.6703
   535.48         46.5475
   535.62         46.3940
   535.76         46.2230
   535.90         46.0481
   536.04         45.8814
   536.18         45.7352
   536.32         45.6186
   536.46         45.5329
   536.60         45.4750
   536.74         45.4415
   536.88         45.4281
   537.02         45.4292
   537.16         45.4392
   537.30         45.4538
   537.44         45.4695
   537.58         45.4858
   537.72         45.5043
   537.86         45.5231
   538.00         45.5359
   538.14         45.5348
   538.28         45.5121
   538.42         45.4627
   538.56         45.3877
   538.70         45.2913
   538.84         45.1784
   538.98         45.0541
   539.12         44.9275
   539.26         44.8120
   539.40         44.7172
   539.54         44.6453
   539.68         44.5917
   539.82         44.5474
   539.96         44.5031
   540.10         44.4520
   540.24         44.3913
   540.38         44.3212
   540.52         44.2429
   540.66         44.1618
   540.80         44.0860
   540.94         44.0250
   541.08         43.9889
   541.22         43.9815
   541.36         43.9985
   541.50         44.0329
   541.64         44.0813
   541.78         44.1422
   541.92         44.2112
   542.06         44.2807
   542.20         44.3434
   542.34         44.3908
   542.48         44.4166
   542.62         44.4196
   542.76         44.4013
   542.90         44.3616
   543.04         44.2970
   543.18         44.2045
   543.32         44.0847
   543.46         43.9405
   543.60         43.7769
   543.74         43.6012
   543.88         43.4199
   544.02         43.2389
   544.16         43.0652
   544.30         42.9060
   544.44         42.7658
   544.58         42.6450
   544.72         42.5411
   544.86         42.4493
   545.00         42.3651
   545.14         42.2862
   545.28         42.2119
   545.42         42.1403
   545.56         42.0686
   545.70         41.9954
   545.84         41.9238
   545.98         41.8604
   546.12         41.8109
   546.26         41.7787
   546.40         41.7631
   546.54         41.7577
   546.68         41.7578
   546.82         41.7641
   546.96         41.7782
   547.10         41.7974
   547.24         41.8146
   547.38         41.8228
   547.52         41.8185
   547.66         41.8008
   547.80         41.7692
   547.94         41.7248
   548.08         41.6715
   548.22         41.6153
   548.36         41.5632
   548.50         41.5219
   548.64         41.4972
   548.78         41.4917
   548.92         41.5037
   549.06         41.5277
   549.20         41.5602
   549.34         41.6011
   549.48         41.6478
   549.62         41.6929
   549.76         41.7279
   549.90         41.7503
   550.04         41.7616
   550.18         41.7636
   550.32         41.7563
   550.46         41.7388
   550.60         41.7109
   550.74         41.6711
   550.88         41.6156
   551.02         41.5422
   551.16         41.4554
   551.30         41.3627
   551.44         41.2682
   551.58         41.1712
   551.72         41.0690
   551.86         40.9615
   552.00         40.8498
   552.14         40.7334
   552.28         40.6102
   552.42         40.4796
   552.56         40.3424
   552.70         40.1988
   552.84         40.0500
   552.98         39.8983
   553.12         39.7472
   553.26         39.6025
   553.40         39.4739
   553.54         39.3740
   553.68         39.3145
   553.82         39.2998
   553.96         39.3254
   554.10         39.3832
   554.24         39.4654
   554.38         39.5648
   554.52         39.6764
   554.66         39.7948
   554.80         39.9119
   554.94         40.0189
   555.08         40.1082
   555.22         40.1729
   555.36         40.2065
   555.50         40.2034
   555.64         40.1624
   555.78         40.0877
   555.92         39.9881
   556.06         39.8740
   556.20         39.7545
   556.34         39.6358
   556.48         39.5217
   556.62         39.4172
   556.76         39.3292
   556.90         39.2609
   557.04         39.2091
   557.18         39.1668
   557.32         39.1252
   557.46         39.0764
   557.60         39.0167
   557.74         38.9450
   557.88         38.8617
   558.02         38.7685
   558.16         38.6698
   558.30         38.5754
   558.44         38.4956
   558.58         38.4372
   558.72         38.4038
   558.86         38.3962
   559.00         38.4115
   559.14         38.4434
   559.28         38.4860
   559.42         38.5320
   559.56         38.5729
   559.70         38.6032
   559.84         38.6229
   559.98         38.6337
   560.12         38.6371
   560.26         38.6328
   560.40         38.6198
   560.54         38.6000
   560.68         38.5772
   560.82         38.5554
   560.96         38.5393
   561.10         38.5327
   561.24         38.5372
   561.38         38.5507
   561.52         38.5666
   561.66         38.5766
   561.80         38.5736
   561.94         38.5534
   562.08         38.5144
   562.22         38.4556
   562.36         38.3755
   562.50         38.2722
   562.64         38.1477
   562.78         38.0106
   562.92         37.8715
   563.06         37.7398
   563.20         37.6223
   563.34         37.5222
   563.48         37.4410
   563.62         37.3799
   563.76         37.3377
   563.90         37.3081
   564.04         37.2814
   564.18         37.2503
   564.32         37.2130
   564.46         37.1708
   564.60         37.1247
   564.74         37.0754
   564.88         37.0255
   565.02         36.9793
   565.16         36.9406
   565.30         36.9123
   565.44         36.8928
   565.58         36.8755
   565.72         36.8536
   565.86         36.8234
   566.00         36.7845
   566.14         36.7375
   566.28         36.6829
   566.42         36.6239
   566.56         36.5635
   566.70         36.5043
   566.84         36.4510
   566.98         36.4086
   567.12         36.3786
   567.26         36.3593
   567.40         36.3477
   567.54         36.3406
   567.68         36.3347
   567.82         36.3277
   567.96         36.3189
   568.10         36.3075
   568.24         36.2922
   568.38         36.2715
   568.52         36.2426
   568.66         36.2043
   568.80         36.1569
   568.94         36.1038
   569.08         36.0489
   569.22         35.9909
   569.36         35.9259
   569.50         35.8514
   569.64         35.7671
   569.78         35.6740
   569.92         35.5765
   570.06         35.4812
   570.20         35.3958
   570.34         35.3264
   570.48         35.2749
   570.62         35.2395
   570.76         35.2161
   570.90         35.2008
   571.04         35.1896
   571.18         35.1812
   571.32         35.1772
   571.46         35.1784
   571.60         35.1807
   571.74         35.1769
   571.88         35.1624
   572.02         35.1387
   572.16         35.1105
   572.30         35.0803
   572.44         35.0485
   572.58         35.0138
   572.72         34.9734
   572.86         34.9235
   573.00         34.8614
   573.14         34.7859
   573.28         34.6972
   573.42         34.5984
   573.56         34.4953
   573.70         34.3949
   573.84         34.3049
   573.98         34.2333
   574.12         34.1855
   574.26         34.1645
   574.40         34.1710
   574.54         34.2046
   574.68         34.2606
   574.82         34.3313
   574.96         34.4078
   575.10         34.4798
   575.24         34.5374
   575.38         34.5722
   575.52         34.5788
   575.66         34.5556
   575.80         34.5040
   575.94         34.4260
   576.08         34.3243
   576.22         34.2019
   576.36         34.0625
   576.50         33.9119
   576.64         33.7549
   576.78         33.5904
   576.92         33.4137
   577.06         33.2243
   577.20         33.0295
   577.34         32.8431
   577.48         32.6809
   577.62         32.5534
   577.76         32.4651
   577.90         32.4179
   578.04         32.4104
   578.18         32.4368
   578.32         32.4878
   578.46         32.5492
   578.60         32.6038
   578.74         32.6376
   578.88         32.6426
   579.02         32.6160
   579.16         32.5595
   579.30         32.4798
   579.44         32.3881
   579.58         32.3005
   579.72         32.2359
   579.86         32.2089
   580.00         32.2252
   580.14         32.2803
   580.28         32.3639
   580.42         32.4649
   580.56         32.5730
   580.70         32.6776
   580.84         32.7684
   580.98         32.8372
   581.12         32.8809
   581.26         32.9033
   581.40         32.9113
   581.54         32.9107
   581.68         32.9055
   581.82         32.8991
   581.96         32.8931
   582.10         32.8848
   582.24         32.8707
   582.38         32.8496
   582.52         32.8215
   582.66         32.7861
   582.80         32.7424
   582.94         32.6897
   583.08         32.6271
   583.22         32.5539
   583.36         32.4710
   583.50         32.3820
   583.64         32.2925
   583.78         32.2096
   583.92         32.1389
   584.06         32.0836
   584.20         32.0450
   584.34         32.0224
   584.48         32.0136
   584.62         32.0156
   584.76         32.0265
   584.90         32.0483
   585.04         32.0832
   585.18         32.1297
   585.32         32.1829
   585.46         32.2365
   585.60         32.2846
   585.74         32.3219
   585.88         32.3409
   586.02         32.3311
   586.16         32.2809
   586.30         32.1814
   586.44         32.0287
   586.58         31.8256
   586.72         31.5817
   586.86         31.3123
   587.00         31.0397
   587.14         30.7899
   587.28         30.5851
   587.42         30.4391
   587.56         30.3534
   587.70         30.3116
   587.84         30.2855
   587.98         30.2502
   588.12         30.1876
   588.26         30.0819
   588.40         29.9192
   588.54         29.6949
   588.68         29.4218
   588.82         29.1295
   588.96         28.8546
   589.10         28.6314
   589.24         28.4880
   589.38         28.4446
   589.52         28.5087
   589.66         28.6727
   589.80         28.9164
   589.94         29.2131
   590.08         29.5359
   590.22         29.8580
   590.36         30.1554
   590.50         30.4126
   590.64         30.6226
   590.78         30.7804
   590.92         30.8836
   591.06         30.9367
   591.20         30.9517
   591.34         30.9400
   591.48         30.9073
   591.62         30.8557
   591.76         30.7896
   591.90         30.7184
   592.04         30.6522
   592.18         30.5955
   592.32         30.5465
   592.46         30.5052
   592.60         30.4757
   592.74         30.4603
   592.88         30.4555
   593.02         30.4541
   593.16         30.4501
   593.30         30.4406
   593.44         30.4255
   593.58         30.4038
   593.72         30.3724
   593.86         30.3295
   594.00         30.2755
   594.14         30.2147
   594.28         30.1523
   594.42         30.0934
   594.56         30.0412
   594.70         29.9951
   594.84         29.9521
   594.98         29.9108
   595.12         29.8749
   595.26         29.8461
   595.40         29.8197
   595.54         29.7872
   595.68         29.7420
   595.82         29.6821
   595.96         29.6078
   596.10         29.5208
   596.24         29.4254
   596.38         29.3276
   596.52         29.2339
   596.66         29.1502
   596.80         29.0822
   596.94         29.0325
   597.08         29.0012
   597.22         28.9882
   597.36         28.9911
   597.50         29.0057
   597.64         29.0273
   597.78         29.0519
   597.92         29.0761
   598.06         29.0962
   598.20         29.1106
   598.34         29.1203
   598.48         29.1261
   598.62         29.1263
   598.76         29.1192
   598.90         29.1045
   599.04         29.0817
   599.18         29.0517
   599.32         29.0162
   599.46         28.9775
   599.60         28.9381
   599.74         28.9013
   599.88         28.8701
   600.02         28.8452
   600.16         28.8247
   600.30         28.8052
   600.44         28.7841
   600.58         28.7586
   600.72         28.7260
   600.86         28.6837
   601.00         28.6297
   601.14         28.5645
   601.28         28.4926
   601.42         28.4193
   601.56         28.3485
   601.70         28.2839
   601.84         28.2300
   601.98         28.1904
   602.12         28.1673
   602.26         28.1603
   602.40         28.1629
   602.54         28.1653
   602.68         28.1572
   602.82         28.1293
   602.96         28.0762
   603.10         27.9982
   603.24         27.8992
   603.38         27.7861
   603.52         27.6703
   603.66         27.5663
   603.80         27.4856
   603.94         27.4323
   604.08         27.4084
   604.22         27.4166
   604.36         27.4597
   604.50         27.5352
   604.64         27.6361
   604.78         27.7528
   604.92         27.8736
   605.06         27.9862
   605.20         28.0803
   605.34         28.1482
   605.48         28.1845
   605.62         28.1879
   605.76         28.1630
   605.90         28.1164
   606.04         28.0558
   606.18         27.9874
   606.32         27.9152
   606.46         27.8420
   606.60         27.7734
   606.74         27.7178
   606.88         27.6811
   607.02         27.6650
   607.16         27.6672
   607.30         27.6823
   607.44         27.7034
   607.58         27.7236
   607.72         27.7370
   607.86         27.7401
   608.00         27.7316
   608.14         27.7122
   608.28         27.6848
   608.42         27.6538
   608.56         27.6234
   608.70         27.5966
   608.84         27.5744
   608.98         27.5552
   609.12         27.5369
   609.26         27.5173
   609.40         27.4949
   609.54         27.4689
   609.68         27.4394
   609.82         27.4076
   609.96         27.3750
   610.10         27.3434
   610.24         27.3135
   610.38         27.2844
   610.52         27.2548
   610.66         27.2225
   610.80         27.1855
   610.94         27.1431
   611.08         27.0956
   611.22         27.0440
   611.36         26.9904
   611.50         26.9385
   611.64         26.8941
   611.78         26.8648
   611.92         26.8552
   612.06         26.8665
   612.20         26.8973
   612.34         26.9422
   612.48         26.9920
   612.62         27.0364
   612.76         27.0658
   612.90         27.0730
   613.04         27.0545
   613.18         27.0113
   613.32         26.9463
   613.46         26.8624
   613.60         26.7661
   613.74         26.6677
   613.88         26.5774
   614.02         26.5007
   614.16         26.4364
   614.30         26.3807
   614.44         26.3301
   614.58         26.2818
   614.72         26.2336
   614.86         26.1836
   615.00         26.1319
   615.14         26.0798
   615.28         26.0303
   615.42         25.9874
   615.56         25.9538
   615.70         25.9321
   615.84         25.9237
   615.98         25.9273
   616.12         25.9407
   616.26         25.9601
   616.40         25.9781
   616.54         25.9839
   616.68         25.9678
   616.82         25.9269
   616.96         25.8670
   617.10         25.7974
   617.24         25.7251
   617.38         25.6554
   617.52         25.5927
   617.66         25.5402
   617.80         25.4981
   617.94         25.4673
   618.08         25.4492
   618.22         25.4432
   618.36         25.4460
   618.50         25.4529
   618.64         25.4584
   618.78         25.4559
   618.92         25.4382
   619.06         25.4008
   619.20         25.3436
   619.34         25.2704
   619.48         25.1881
   619.62         25.1038
   619.76         25.0227
   619.90         24.9493
   620.04         24.8888
   620.18         24.8472
   620.32         24.8306
   620.46         24.8433
   620.60         24.8866
   620.74         24.9579
   620.88         25.0530
   621.02         25.1671
   621.16         25.2937
   621.30         25.4254
   621.44         25.5537
   621.58         25.6697
   621.72         25.7663
   621.86         25.8406
   622.00         25.8931
   622.14         25.9245
   622.28         25.9344
   622.42         25.9240
   622.56         25.8968
   622.70         25.8585
   622.84         25.8150
   622.98         25.7694
   623.12         25.7224
   623.26         25.6732
   623.40         25.6225
   623.54         25.5741
   623.68         25.5317
   623.82         25.4966
   623.96         25.4688
   624.10         25.4464
   624.24         25.4273
   624.38         25.4100
   624.52         25.3935
   624.66         25.3751
   624.80         25.3517
   624.94         25.3227
   625.08         25.2902
   625.22         25.2549
   625.36         25.2151
   625.50         25.1683
   625.64         25.1121
   625.78         25.0462
   625.92         24.9736
   626.06         24.8990
   626.20         24.8248
   626.34         24.7479
   626.48         24.6608
   626.62         24.5551
   626.76         24.4276
   626.90         24.2786
   627.04         24.1087
   627.18         23.9195
   627.32         23.7141
   627.46         23.5001
   627.60         23.2893
   627.74         23.0952
   627.88         22.9314
   628.02         22.8112
   628.16         22.7454
   628.30         22.7386
   628.44         22.7907
   628.58         22.8979
   628.72         23.0509
   628.86         23.2354
   629.00         23.4347
   629.14         23.6314
   629.28         23.8109
   629.42         23.9633
   629.56         24.0805
   629.70         24.1547
   629.84         24.1815
   629.98         24.1620
   630.12         24.1021
   630.26         24.0101
   630.40         23.8940
   630.54         23.7623
   630.68         23.6254
   630.82         23.4934
   630.96         23.3764
   631.10         23.2842
   631.24         23.2235
   631.38         23.1961
   631.52         23.2015
   631.66         23.2390
   631.80         23.3059
   631.94         23.3976
   632.08         23.5066
   632.22         23.6209
   632.36         23.7269
   632.50         23.8137
   632.64         23.8759
   632.78         23.9121
   632.92         23.9229
   633.06         23.9116
   633.20         23.8831
   633.34         23.8421
   633.48         23.7935
   633.62         23.7422
   633.76         23.6918
   633.90         23.6442
   634.04         23.6009
   634.18         23.5640
   634.32         23.5349
   634.46         23.5143
   634.60         23.5001
   634.74         23.4878
   634.88         23.4718
   635.02         23.4478
   635.16         23.4135
   635.30         23.3682
   635.44         23.3120
   635.58         23.2473
   635.72         23.1800
   635.86         23.1162
   636.00         23.0605
   636.14         23.0157
   636.28         22.9806
   636.42         22.9522
   636.56         22.9284
   636.70         22.9087
   636.84         22.8928
   636.98         22.8797
   637.12         22.8667
   637.26         22.8475
   637.40         22.8166
   637.54         22.7724
   637.68         22.7167
   637.82         22.6530
   637.96         22.5867
   638.10         22.5241
   638.24         22.4707
   638.38         22.4289
   638.52         22.3980
   638.66         22.3762
   638.80         22.3636
   638.94         22.3618
   639.08         22.3729
   639.22         22.3960
   639.36         22.4277
   639.50         22.4635
   639.64         22.4998
   639.78         22.5336
   639.92         22.5626
   640.06         22.5871
   640.20         22.6098
   640.34         22.6324
   640.48         22.6552
   640.62         22.6782
   640.76         22.7011
   640.90         22.7235
   641.04         22.7459
   641.18         22.7704
   641.32         22.8000
   641.46         22.8348
   641.60         22.8709
   641.74         22.9019
   641.88         22.9208
   642.02         22.9223
   642.16         22.9025
   642.30         22.8586
   642.44         22.7906
   642.58         22.7024
   642.72         22.6009
   642.86         22.4945
   643.00         22.3922
   643.14         22.3030
   643.28         22.2351
   643.42         22.1931
   643.56         22.1771
   643.70         22.1831
   643.84         22.2027
   643.98         22.2244
   644.12         22.2366
   644.26         22.2310
   644.40         22.2022
   644.54         22.1471
   644.68         22.0666
   644.82         21.9687
   644.96         21.8676
   645.10         21.7792
   645.24         21.7169
   645.38         21.6874
   645.52         21.6911
   645.66         21.7231
   645.80         21.7751
   645.94         21.8360
   646.08         21.8921
   646.22         21.9298
   646.36         21.9398
   646.50         21.9175
   646.64         21.8629
   646.78         21.7804
   646.92         21.6776
   647.06         21.5651
   647.20         21.4560
   647.34         21.3655
   647.48         21.3064
   647.62         21.2834
   647.76         21.2919
   647.90         21.3211
   648.04         21.3582
   648.18         21.3916
   648.32         21.4116
   648.46         21.4111
   648.60         21.3864
   648.74         21.3389
   648.88         21.2761
   649.02         21.2089
   649.16         21.1471
   649.30         21.0989
   649.44         21.0715
   649.58         21.0695
   649.72         21.0946
   649.86         21.1469
   650.00         21.2240
   650.14         21.3192
   650.28         21.4223
   650.42         21.5219
   650.56         21.6092
   650.70         21.6804
   650.84         21.7347
   650.98         21.7725
   651.12         21.7953
   651.26         21.8044
   651.40         21.7997
   651.54         21.7801
   651.68         21.7468
   651.82         21.7042
   651.96         21.6582
   652.10         21.6130
   652.24         21.5716
   652.38         21.5359
   652.52         21.5069
   652.66         21.4834
   652.80         21.4633
   652.94         21.4460
   653.08         21.4337
   653.22         21.4280
   653.36         21.4279
   653.50         21.4293
   653.64         21.4279
   653.78         21.4186
   653.92         21.3954
   654.06         21.3519
   654.20         21.2833
   654.34         21.1855
   654.48         21.0537
   654.62         20.8811
   654.76         20.6610
   654.90         20.3905
   655.04         20.0733
   655.18         19.7197
   655.32         19.3465
   655.46         18.9750
   655.60         18.6272
   655.74         18.3228
   655.88         18.0789
   656.02         17.9116
   656.16         17.8335
   656.30         17.8503
   656.44         17.9588
   656.58         18.1496
   656.72         18.4093
   656.86         18.7209
   657.00         19.0640
   657.14         19.4154
   657.28         19.7519
   657.42         20.0534
   657.56         20.3066
   657.70         20.5059
   657.84         20.6512
   657.98         20.7455
   658.12         20.7941
   658.26         20.8045
   658.40         20.7864
   658.54         20.7521
   658.68         20.7141
   658.82         20.6837
   658.96         20.6679
   659.10         20.6687
   659.24         20.6852
   659.38         20.7155
   659.52         20.7564
   659.66         20.8038
   659.80         20.8526
   659.94         20.8975
   660.08         20.9327
   660.22         20.9547
   660.36         20.9648
   660.50         20.9650
   660.64         20.9567
   660.78         20.9410
   660.92         20.9187
   661.06         20.8901
   661.20         20.8551
   661.34         20.8136
   661.48         20.7654
   661.62         20.7099
   661.76         20.6470
   661.90         20.5786
   662.04         20.5071
   662.18         20.4337
   662.32         20.3585
   662.46         20.2825
   662.60         20.2090
   662.74         20.1423
   662.88         20.0877
   663.02         20.0494
   663.16         20.0282
   663.30         20.0226
   663.44         20.0311
   663.58         20.0519
   663.72         20.0831
   663.86         20.1209
   664.00         20.1585
   664.14         20.1880
   664.28         20.2026
   664.42         20.1987
   664.56         20.1764
   664.70         20.1388
   664.84         20.0911
   664.98         20.0387
   665.12         19.9869
   665.26         19.9397
   665.40         19.8980
   665.54         19.8621
   665.68         19.8326
   665.82         19.8101
   665.96         19.7938
   666.10         19.7800
   666.24         19.7628
   666.38         19.7348
   666.52         19.6863
   666.66         19.6097
   666.80         19.5030
   666.94         19.3719
   667.08         19.2280
   667.22         19.0828
   667.36         18.9465
   667.50         18.8281
   667.64         18.7357
   667.78         18.6771
   667.92         18.6575
   668.06         18.6799
   668.20         18.7442
   668.34         18.8454
   668.48         18.9717
   668.62         19.1060
   668.76         19.2313
   668.90         19.3342
   669.04         19.4066
   669.18         19.4454
   669.32         19.4545
   669.46         19.4428
   669.60         19.4214
   669.74         19.3986
   669.88         19.3781
   670.02         19.3618
   670.16         19.3519
   670.30         19.3500
   670.44         19.3554
   670.58         19.3656
   670.72         19.3774
   670.86         19.3877
   671.00         19.3943
   671.14         19.3958
   671.28         19.3925
   671.42         19.3860
   671.56         19.3769
   671.70         19.3642
   671.84         19.3463
   671.98         19.3217
   672.12         19.2891
   672.26         19.2477
   672.40         19.1974
   672.54         19.1393
   672.68         19.0759
   672.82         19.0100
   672.96         18.9451
   673.10         18.8849
   673.24         18.8331
   673.38         18.7936
   673.52         18.7686
   673.66         18.7580
   673.80         18.7595
   673.94         18.7695
   674.08         18.7844
   674.22         18.8023
   674.36         18.8231
   674.50         18.8473
   674.64         18.8750
   674.78         18.9035
   674.92         18.9269
   675.06         18.9383
   675.20         18.9323
   675.34         18.9063
   675.48         18.8618
   675.62         18.8024
   675.76         18.7326
   675.90         18.6567
   676.04         18.5796
   676.18         18.5070
   676.32         18.4447
   676.46         18.3973
   676.60         18.3674
   676.74         18.3565
   676.88         18.3642
   677.02         18.3877
   677.16         18.4221
   677.30         18.4608
   677.44         18.4960
   677.58         18.5224
   677.72         18.5378
   677.86         18.5419
   678.00         18.5348
   678.14         18.5161
   678.28         18.4861
   678.42         18.4467
   678.56         18.4028
   678.70         18.3608
   678.84         18.3253
   678.98         18.2981
   679.12         18.2789
   679.26         18.2671
   679.40         18.2642
   679.54         18.2724
   679.68         18.2929
   679.82         18.3238
   679.96         18.3589
   680.10         18.3900
   680.24         18.4096
   680.38         18.4127
   680.52         18.3976
   680.66         18.3666
   680.80         18.3239
   680.94         18.2736
   681.08         18.2190
   681.22         18.1612
   681.36         18.1008
   681.50         18.0408
   681.64         17.9860
   681.78         17.9417
   681.92         17.9118
   682.06         17.8966
   682.20         17.8916
   682.34         17.8892
   682.48         17.8809
   682.62         17.8613
   682.76         17.8309
   682.90         17.7958
   683.04         17.7637
   683.18         17.7400
   683.32         17.7272
   683.46         17.7258
   683.60         17.7370
   683.74         17.7626
   683.88         17.8039
   684.02         17.8630
   684.16         17.9389
   684.30         18.0251
   684.44         18.1115
   684.58         18.1877
   684.72         18.2448
   684.86         18.2759
   685.00         18.2777
   685.14         18.2496
   685.28         18.1908
   685.42         18.0975
   685.56         17.9605
   685.70         17.7672
   685.84         17.5071
   685.98         17.1765
   686.12         16.7809
   686.26         16.3343
   686.40         15.8582
   686.54         15.3796
   686.68         14.9275
   686.82         14.5290
   686.96         14.2083
   687.10         13.9868
   687.24         13.8790
   687.38         13.8871
   687.52         13.9999
   687.66         14.1955
   687.80         14.4440
   687.94         14.7113
   688.08         14.9637
   688.22         15.1737
   688.36         15.3252
   688.50         15.4144
   688.64         15.4479
   688.78         15.4399
   688.92         15.4087
   689.06         15.3730
   689.20         15.3465
   689.34         15.3359
   689.48         15.3436
   689.62         15.3710
   689.76         15.4167
   689.90         15.4754
   690.04         15.5396
   690.18         15.6022
   690.32         15.6594
   690.46         15.7106
   690.60         15.7584
   690.74         15.8066
   690.88         15.8597
   691.02         15.9214
   691.16         15.9943
   691.30         16.0799
   691.44         16.1754
   691.58         16.2749
   691.72         16.3702
   691.86         16.4530
   692.00         16.5177
   692.14         16.5630
   692.28         16.5903
   692.42         16.6024
   692.56         16.6027
   692.70         16.5926
   692.84         16.5720
   692.98         16.5407
   693.12         16.4992
   693.26         16.4490
   693.40         16.3930
   693.54         16.3348
   693.68         16.2784
   693.82         16.2283
   693.96         16.1903
   694.10         16.1692
   694.24         16.1674
   694.38         16.1842
   694.52         16.2150
   694.66         16.2535
   694.80         16.2940
   694.94         16.3314
   695.08         16.3615
   695.22         16.3802
   695.36         16.3852
   695.50         16.3793
   695.64         16.3689
   695.78         16.3639
   695.92         16.3749
   696.06         16.4091
   696.20         16.4669
   696.34         16.5430
   696.48         16.6295
   696.62         16.7182
   696.76         16.8001
   696.90         16.8666
   697.04         16.9132
   697.18         16.9392
   697.32         16.9460
   697.46         16.9362
   697.60         16.9115
   697.74         16.8735
   697.88         16.8247
   698.02         16.7682
   698.16         16.7070
   698.30         16.6432
   698.44         16.5797
   698.58         16.5191
   698.72         16.4616
   698.86         16.4078
   699.00         16.3600
   699.14         16.3225
   699.28         16.2975
   699.42         16.2840
   699.56         16.2779
   699.70         16.2741
   699.84         16.2663
   699.98         16.2484
   700.12         16.2162
   700.26         16.1675
   700.40         16.1041
   700.54         16.0325
   700.68         15.9620
   700.82         15.9030
   700.96         15.8644
   701.10         15.8502
   701.24         15.8592
   701.38         15.8871
   701.52         15.9281
   701.66         15.9747
   701.80         16.0183
   701.94         16.0523
   702.08         16.0752
   702.22         16.0893
   702.36         16.0980
   702.50         16.1047
   702.64         16.1111
   702.78         16.1181
   702.92         16.1279
   703.06         16.1429
   703.20         16.1631
   703.34         16.1851
   703.48         16.2059
   703.62         16.2235
   703.76         16.2353
   703.90         16.2412
   704.04         16.2436
   704.18         16.2443
   704.32         16.2439
   704.46         16.2440
   704.60         16.2486
   704.74         16.2603
   704.88         16.2757
   705.02         16.2868
   705.16         16.2841
   705.30         16.2588
   705.44         16.2041
   705.58         16.1163
   705.72         15.9958
   705.86         15.8492
   706.00         15.6882
   706.14         15.5283
   706.28         15.3832
   706.42         15.2605
   706.56         15.1654
   706.70         15.1022
   706.84         15.0736
   706.98         15.0806
   707.12         15.1213
   707.26         15.1889
   707.40         15.2699
   707.54         15.3477
   707.68         15.4093
   707.82         15.4475
   707.96         15.4604
   708.10         15.4508
   708.24         15.4272
   708.38         15.4006
   708.52         15.3815
   708.66         15.3753
   708.80         15.3810
   708.94         15.3920
   709.08         15.4016
   709.22         15.4070
   709.36         15.4073
   709.50         15.3998
   709.64         15.3830
   709.78         15.3570
   709.92         15.3230
   710.06         15.2831
   710.20         15.2426
   710.34         15.2089
   710.48         15.1889
   710.62         15.1887
   710.76         15.2130
   710.90         15.2628
   711.04         15.3342
   711.18         15.4192
   711.32         15.5077
   711.46         15.5924
   711.60         15.6704
   711.74         15.7408
   711.88         15.8007
   712.02         15.8463
   712.16         15.8767
   712.30         15.8955
   712.44         15.9068
   712.58         15.9132
   712.72         15.9166
   712.86         15.9177
   713.00         15.9151
   713.14         15.9074
   713.28         15.8948
   713.42         15.8786
   713.56         15.8589
   713.70         15.8368
   713.84         15.8158
   713.98         15.8017
   714.12         15.8004
   714.26         15.8141
   714.40         15.8417
   714.54         15.8815
   714.68         15.9304
   714.82         15.9831
   714.96         16.0308
   715.10         16.0627
   715.24         16.0679
   715.38         16.0356
   715.52         15.9585
   715.66         15.8357
   715.80         15.6734
   715.94         15.4816
   716.08         15.2692
   716.22         15.0433
   716.36         14.8119
   716.50         14.5825
   716.64         14.3626
   716.78         14.1598
   716.92         13.9814
   717.06         13.8321
   717.20         13.7109
   717.34         13.6110
   717.48         13.5252
   717.62         13.4515
   717.76         13.3915
   717.90         13.3443
   718.04         13.3075
   718.18         13.2804
   718.32         13.2643
   718.46         13.2596
   718.60         13.2649
   718.74         13.2772
   718.88         13.2951
   719.02         13.3199
   719.16         13.3529
   719.30         13.3940
   719.44         13.4421
   719.58         13.4961
   719.72         13.5543
   719.86         13.6141
   720.00         13.6743
   720.14         13.7377
   720.28         13.8077
   720.42         13.8837
   720.56         13.9632
   720.70         14.0459
   720.84         14.1332
   720.98         14.2244
   721.12         14.3147
   721.26         14.3970
   721.40         14.4643
   721.54         14.5118
   721.68         14.5383
   721.82         14.5446
   721.96         14.5341
   722.10         14.5109
   722.24         14.4762
   722.38         14.4285
   722.52         14.3656
   722.66         14.2881
   722.80         14.1995
   722.94         14.1046
   723.08         14.0080
   723.22         13.9114
   723.36         13.8148
   723.50         13.7197
   723.64         13.6303
   723.78         13.5523
   723.92         13.4903
   724.06         13.4454
   724.20         13.4179
   724.34         13.4084
   724.48         13.4160
   724.62         13.4369
   724.76         13.4660
   724.90         13.4993
   725.04         13.5336
   725.18         13.5655
   725.32         13.5899
   725.46         13.6021
   725.60         13.6020
   725.74         13.5916
   725.88         13.5754
   726.02         13.5592
   726.16         13.5476
   726.30         13.5399
   726.44         13.5296
   726.58         13.5096
   726.72         13.4789
   726.86         13.4427
   727.00         13.4090
   727.14         13.3855
   727.28         13.3809
   727.42         13.4012
   727.56         13.4450
   727.70         13.5040
   727.84         13.5679
   727.98         13.6289
   728.12         13.6842
   728.26         13.7330
   728.40         13.7734
   728.54         13.8038
   728.68         13.8229
   728.82         13.8307
   728.96         13.8277
   729.10         13.8139
   729.24         13.7913
   729.38         13.7648
   729.52         13.7416
   729.66         13.7268
   729.80         13.7214
   729.94         13.7209
   730.08         13.7179
   730.22         13.7049
   730.36         13.6782
   730.50         13.6387
   730.64         13.5903
   730.78         13.5368
   730.92         13.4827
   731.06         13.4331
   731.20         13.3932
   731.34         13.3641
   731.48         13.3433
   731.62         13.3269
   731.76         13.3137
   731.90         13.3073
   732.04         13.3133
   732.18         13.3341
   732.32         13.3669
   732.46         13.4076
   732.60         13.4527
   732.74         13.4968
   732.88         13.5337
   733.02         13.5575
   733.16         13.5648
   733.30         13.5560
   733.44         13.5351
   733.58         13.5073
   733.72         13.4746
   733.86         13.4365
   734.00         13.3930
   734.14         13.3471
   734.28         13.3047
   734.42         13.2727
   734.56         13.2571
   734.70         13.2606
   734.84         13.2831
   734.98         13.3232
   735.12         13.3789
   735.26         13.4451
   735.40         13.5151
   735.54         13.5836
   735.68         13.6461
   735.82         13.6978
   735.96         13.7339
   736.10         13.7473
   736.24         13.7303
   736.38         13.6782
   736.52         13.5908
   736.66         13.4729
   736.80         13.3313
   736.94         13.1743
   737.08         13.0113
   737.22         12.8524
   737.36         12.7064
   737.50         12.5797
   737.64         12.4760
   737.78         12.3961
   737.92         12.3380
   738.06         12.2997
   738.20         12.2800
   738.34         12.2776
   738.48         12.2894
   738.62         12.3123
   738.76         12.3440
   738.90         12.3832
   739.04         12.4281
   739.18         12.4742
   739.32         12.5164
   739.46         12.5498
   739.60         12.5712
   739.74         12.5789
   739.88         12.5718
   740.02         12.5485
   740.16         12.5087
   740.30         12.4547
   740.44         12.3915
   740.58         12.3251
   740.72         12.2621
   740.86         12.2079
   741.00         12.1655
   741.14         12.1366
   741.28         12.1232
   741.42         12.1251
   741.56         12.1395
   741.70         12.1625
   741.84         12.1916
   741.98         12.2267
   742.12         12.2684
   742.26         12.3141
   742.40         12.3587
   742.54         12.3972
   742.68         12.4248
   742.82         12.4386
   742.96         12.4386
   743.10         12.4248
   743.24         12.3972
   743.38         12.3587
   743.52         12.3141
   743.66         12.2684
   743.80         12.2267
   743.94         12.1916
   744.08         12.1625
   744.22         12.1395
