# File HD23863
# Wavelength [nm]    Normalized Amplitude
   349.70         17.3068
   349.84         17.2786
   349.98         17.2433
   350.12         17.1978
   350.26         17.1439
   350.40         17.0858
   350.54         17.0281
   350.68         16.9751
   350.82         16.9309
   350.96         16.9007
   351.10         16.8898
   351.24         16.9007
   351.38         16.9309
   351.52         16.9751
   351.66         17.0281
   351.80         17.0858
   351.94         17.1439
   352.08         17.1978
   352.22         17.2433
   352.36         17.2786
   352.50         17.3068
   352.64         17.3334
   352.78         17.3637
   352.92         17.4020
   353.06         17.4511
   353.20         17.5120
   353.34         17.5830
   353.48         17.6612
   353.62         17.7437
   353.76         17.8268
   353.90         17.9057
   354.04         17.9762
   354.18         18.0355
   354.32         18.0810
   354.46         18.1096
   354.60         18.1190
   354.74         18.1101
   354.88         18.0862
   355.02         18.0527
   355.16         18.0155
   355.30         17.9767
   355.44         17.9344
   355.58         17.8862
   355.72         17.8308
   355.86         17.7648
   356.00         17.6838
   356.14         17.5852
   356.28         17.4681
   356.42         17.3323
   356.56         17.1801
   356.70         17.0168
   356.84         16.8492
   356.98         16.6852
   357.12         16.5326
   357.26         16.3979
   357.40         16.2841
   357.54         16.1905
   357.68         16.1146
   357.82         16.0546
   357.96         16.0088
   358.10         15.9764
   358.24         15.9570
   358.38         15.9504
   358.52         15.9562
   358.66         15.9757
   358.80         16.0110
   358.94         16.0623
   359.08         16.1269
   359.22         16.1993
   359.36         16.2705
   359.50         16.3298
   359.64         16.3685
   359.78         16.3808
   359.92         16.3655
   360.06         16.3253
   360.20         16.2675
   360.34         16.2035
   360.48         16.1450
   360.62         16.1020
   360.76         16.0811
   360.90         16.0851
   361.04         16.1148
   361.18         16.1697
   361.32         16.2469
   361.46         16.3425
   361.60         16.4526
   361.74         16.5728
   361.88         16.6972
   362.02         16.8174
   362.16         16.9241
   362.30         17.0086
   362.44         17.0662
   362.58         17.0964
   362.72         17.1026
   362.86         17.0904
   363.00         17.0651
   363.14         17.0306
   363.28         16.9906
   363.42         16.9485
   363.56         16.9072
   363.70         16.8692
   363.84         16.8366
   363.98         16.8107
   364.12         16.7938
   364.26         16.7907
   364.40         16.8050
   364.54         16.8368
   364.68         16.8853
   364.82         16.9517
   364.96         17.0379
   365.10         17.1435
   365.24         17.2642
   365.38         17.3915
   365.52         17.5152
   365.66         17.6262
   365.80         17.7180
   365.94         17.7886
   366.08         17.8390
   366.22         17.8722
   366.36         17.8909
   366.50         17.8977
   366.64         17.8952
   366.78         17.8862
   366.92         17.8710
   367.06         17.8465
   367.20         17.8078
   367.34         17.7525
   367.48         17.6807
   367.62         17.5950
   367.76         17.5010
   367.90         17.4068
   368.04         17.3223
   368.18         17.2579
   368.32         17.2237
   368.46         17.2260
   368.60         17.2655
   368.74         17.3386
   368.88         17.4375
   369.02         17.5517
   369.16         17.6689
   369.30         17.7758
   369.44         17.8595
   369.58         17.9117
   369.72         17.9292
   369.86         17.9114
   370.00         17.8602
   370.14         17.7813
   370.28         17.6862
   370.42         17.5930
   370.56         17.5237
   370.70         17.4975
   370.84         17.5235
   370.98         17.5963
   371.12         17.7011
   371.26         17.8237
   371.40         17.9560
   371.54         18.0925
   371.68         18.2299
   371.82         18.3665
   371.96         18.4993
   372.10         18.6203
   372.24         18.7161
   372.38         18.7724
   372.52         18.7829
   372.66         18.7557
   372.80         18.7144
   372.94         18.6905
   373.08         18.7125
   373.22         18.7963
   373.36         18.9399
   373.50         19.1259
   373.64         19.3293
   373.78         19.5246
   373.92         19.6897
   374.06         19.8094
   374.20         19.8774
   374.34         19.8974
   374.48         19.8805
   374.62         19.8406
   374.76         19.7975
   374.90         19.7814
   375.04         19.8277
   375.18         19.9674
   375.32         20.2139
   375.46         20.5536
   375.60         20.9422
   375.74         21.3130
   375.88         21.5952
   376.02         21.7314
   376.16         21.6951
   376.30         21.4981
   376.44         21.1891
   376.58         20.8451
   376.72         20.5569
   376.86         20.4105
   377.00         20.4719
   377.14         20.7796
   377.28         21.3417
   377.42         22.1394
   377.56         23.1273
   377.70         24.2360
   377.84         25.3777
   377.98         26.4532
   378.12         27.3624
   378.26         28.0163
   378.40         28.3508
   378.54         28.3371
   378.68         27.9868
   378.82         27.3514
   378.96         26.5144
   379.10         25.5794
   379.24         24.6570
   379.38         23.8527
   379.52         23.2582
   379.66         22.9451
   379.80         22.9592
   379.94         23.3164
   380.08         24.0018
   380.22         24.9713
   380.36         26.1549
   380.50         27.4662
   380.64         28.8135
   380.78         30.1075
   380.92         31.2699
   381.06         32.2417
   381.20         32.9861
   381.34         33.4860
   381.48         33.7391
   381.62         33.7504
   381.76         33.5261
   381.90         33.0715
   382.04         32.3918
   382.18         31.4958
   382.32         30.4012
   382.46         29.1414
   382.60         27.7684
   382.74         26.3556
   382.88         24.9949
   383.02         23.7859
   383.16         22.8246
   383.30         22.1904
   383.44         21.9358
   383.58         22.0836
   383.72         22.6255
   383.86         23.5245
   384.00         24.7226
   384.14         26.1470
   384.28         27.7118
   384.42         29.3236
   384.56         30.8920
   384.70         32.3428
   384.84         33.6292
   384.98         34.7340
   385.12         35.6616
   385.26         36.4295
   385.40         37.0613
   385.54         37.5795
   385.68         37.9998
   385.82         38.3290
   385.96         38.5659
   386.10         38.7041
   386.24         38.7366
   386.38         38.6574
   386.52         38.4610
   386.66         38.1424
   386.80         37.6958
   386.94         37.1133
   387.08         36.3873
   387.22         35.5115
   387.36         34.4821
   387.50         33.3000
   387.64         31.9739
   387.78         30.5266
   387.92         29.0006
   388.06         27.4582
   388.20         25.9762
   388.34         24.6373
   388.48         23.5206
   388.62         22.6965
   388.76         22.2213
   388.90         22.1288
   389.04         22.4224
   389.18         23.0754
   389.32         24.0382
   389.46         25.2443
   389.60         26.6165
   389.74         28.0766
   389.88         29.5542
   390.02         30.9912
   390.16         32.3468
   390.30         33.5960
   390.44         34.7252
   390.58         35.7283
   390.72         36.6065
   390.86         37.3681
   391.00         38.0249
   391.14         38.5872
   391.28         39.0609
   391.42         39.4439
   391.56         39.7239
   391.70         39.8763
   391.84         39.8630
   391.98         39.6366
   392.12         39.1530
   392.26         38.3930
   392.40         37.3810
   392.54         36.1832
   392.68         34.8970
   392.82         33.6406
   392.96         32.5361
   393.10         31.6927
   393.24         31.1969
   393.38         31.1011
   393.52         31.4108
   393.66         32.0792
   393.80         33.0161
   393.94         34.1041
   394.08         35.2144
   394.22         36.2211
   394.36         37.0144
   394.50         37.5162
   394.64         37.6941
   394.78         37.5628
   394.92         37.1711
   395.06         36.5762
   395.20         35.8183
   395.34         34.9128
   395.48         33.8555
   395.62         32.6329
   395.76         31.2394
   395.90         29.6938
   396.04         28.0421
   396.18         26.3561
   396.32         24.7288
   396.46         23.2653
   396.60         22.0682
   396.74         21.2238
   396.88         20.7929
   397.02         20.8042
   397.16         21.2527
   397.30         22.1009
   397.44         23.2840
   397.58         24.7175
   397.72         26.3063
   397.86         27.9570
   398.00         29.5862
   398.14         31.1298
   398.28         32.5475
   398.42         33.8214
   398.56         34.9499
   398.70         35.9422
   398.84         36.8122
   398.98         37.5746
   399.12         38.2409
   399.26         38.8182
   399.40         39.3140
   399.54         39.7394
   399.68         40.1093
   399.82         40.4421
   399.96         40.7574
   400.10         41.0719
   400.24         41.3952
   400.38         41.7299
   400.52         42.0722
   400.66         42.4124
   400.80         42.7382
   400.94         43.0378
   401.08         43.3010
   401.22         43.5216
   401.36         43.6966
   401.50         43.8237
   401.64         43.8993
   401.78         43.9183
   401.92         43.8780
   402.06         43.7820
   402.20         43.6402
   402.34         43.4681
   402.48         43.2851
   402.62         43.1116
   402.76         42.9667
   402.90         42.8660
   403.04         42.8184
   403.18         42.8250
   403.32         42.8786
   403.46         42.9667
   403.60         43.0753
   403.74         43.1907
   403.88         43.3001
   404.02         43.3905
   404.16         43.4472
   404.30         43.4560
   404.44         43.4084
   404.58         43.3062
   404.72         43.1616
   404.86         42.9921
   405.00         42.8124
   405.14         42.6291
   405.28         42.4422
   405.42         42.2494
   405.56         42.0487
   405.70         41.8402
   405.84         41.6256
   405.98         41.4067
   406.12         41.1851
   406.26         40.9615
   406.40         40.7320
   406.54         40.4881
   406.68         40.2225
   406.82         39.9333
   406.96         39.6218
   407.10         39.2902
   407.24         38.9405
   407.38         38.5727
   407.52         38.1830
   407.66         37.7670
   407.80         37.3211
   407.94         36.8437
   408.08         36.3312
   408.22         35.7735
   408.36         35.1544
   408.50         34.4523
   408.64         33.6433
   408.78         32.7058
   408.92         31.6249
   409.06         30.4009
   409.20         29.0585
   409.34         27.6485
   409.48         26.2406
   409.62         24.9140
   409.76         23.7519
   409.90         22.8345
   410.04         22.2294
   410.18         21.9846
   410.32         22.1225
   410.46         22.6355
   410.60         23.4873
   410.74         24.6163
   410.88         25.9426
   411.02         27.3773
   411.16         28.8330
   411.30         30.2341
   411.44         31.5231
   411.58         32.6661
   411.72         33.6540
   411.86         34.4940
   412.00         35.2027
   412.14         35.8002
   412.28         36.3087
   412.42         36.7517
   412.56         37.1525
   412.70         37.5335
   412.84         37.9123
   412.98         38.2981
   413.12         38.6919
   413.26         39.0895
   413.40         39.4839
   413.54         39.8657
   413.68         40.2250
   413.82         40.5536
   413.96         40.8438
   414.10         41.0868
   414.24         41.2742
   414.38         41.4015
   414.52         41.4708
   414.66         41.4912
   414.80         41.4754
   414.94         41.4377
   415.08         41.3923
   415.22         41.3514
   415.36         41.3246
   415.50         41.3153
   415.64         41.3216
   415.78         41.3396
   415.92         41.3628
   416.06         41.3815
   416.20         41.3837
   416.34         41.3596
   416.48         41.3032
   416.62         41.2115
   416.76         41.0856
   416.90         40.9342
   417.04         40.7725
   417.18         40.6183
   417.32         40.4863
   417.46         40.3856
   417.60         40.3212
   417.74         40.2959
   417.88         40.3115
   418.02         40.3692
   418.16         40.4672
   418.30         40.5988
   418.44         40.7510
   418.58         40.9050
   418.72         41.0421
   418.86         41.1483
   419.00         41.2161
   419.14         41.2434
   419.28         41.2314
   419.42         41.1847
   419.56         41.1119
   419.70         41.0255
   419.84         40.9408
   419.98         40.8727
   420.12         40.8342
   420.26         40.8347
   420.40         40.8780
   420.54         40.9603
   420.68         41.0696
   420.82         41.1858
   420.96         41.2856
   421.10         41.3466
   421.24         41.3516
   421.38         41.2913
   421.52         41.1653
   421.66         40.9829
   421.80         40.7628
   421.94         40.5287
   422.08         40.3032
   422.22         40.1054
   422.36         39.9486
   422.50         39.8393
   422.64         39.7781
   422.78         39.7609
   422.92         39.7798
   423.06         39.8251
   423.20         39.8871
   423.34         39.9561
   423.48         40.0215
   423.62         40.0722
   423.76         40.0972
   423.90         40.0892
   424.04         40.0500
   424.18         39.9914
   424.32         39.9300
   424.46         39.8793
   424.60         39.8434
   424.74         39.8183
   424.88         39.7996
   425.02         39.7856
   425.16         39.7779
   425.30         39.7808
   425.44         39.7985
   425.58         39.8325
   425.72         39.8789
   425.86         39.9286
   426.00         39.9692
   426.14         39.9885
   426.28         39.9776
   426.42         39.9353
   426.56         39.8685
   426.70         39.7887
   426.84         39.7070
   426.98         39.6301
   427.12         39.5609
   427.26         39.4994
   427.40         39.4454
   427.54         39.3981
   427.68         39.3538
   427.82         39.3051
   427.96         39.2439
   428.10         39.1635
   428.24         39.0580
   428.38         38.9232
   428.52         38.7586
   428.66         38.5677
   428.80         38.3564
   428.94         38.1314
   429.08         37.9003
   429.22         37.6687
   429.36         37.4398
   429.50         37.2151
   429.64         36.9942
   429.78         36.7759
   429.92         36.5590
   430.06         36.3420
   430.20         36.1239
   430.34         35.9056
   430.48         35.6921
   430.62         35.4899
   430.76         35.3016
   430.90         35.1242
   431.04         34.9503
   431.18         34.7692
   431.32         34.5681
   431.46         34.3351
   431.60         34.0618
   431.74         33.7435
   431.88         33.3754
   432.02         32.9499
   432.16         32.4570
   432.30         31.8847
   432.44         31.2198
   432.58         30.4489
   432.72         29.5599
   432.86         28.5492
   433.00         27.4282
   433.14         26.2271
   433.28         24.9937
   433.42         23.7899
   433.56         22.6851
   433.70         21.7480
   433.84         21.0379
   433.98         20.5993
   434.12         20.4610
   434.26         20.6334
   434.40         21.1069
   434.54         21.8510
   434.68         22.8174
   434.82         23.9454
   434.96         25.1697
   435.10         26.4275
   435.24         27.6649
   435.38         28.8414
   435.52         29.9316
   435.66         30.9239
   435.80         31.8163
   435.94         32.6111
   436.08         33.3085
   436.22         33.9079
   436.36         34.4116
   436.50         34.8262
   436.64         35.1658
   436.78         35.4510
   436.92         35.7024
   437.06         35.9330
   437.20         36.1457
   437.34         36.3385
   437.48         36.5096
   437.62         36.6611
   437.76         36.7963
   437.90         36.9171
   438.04         37.0246
   438.18         37.1194
   438.32         37.2024
   438.46         37.2761
   438.60         37.3424
   438.74         37.4008
   438.88         37.4510
   439.02         37.4950
   439.16         37.5342
   439.30         37.5687
   439.44         37.5964
   439.58         37.6149
   439.72         37.6235
   439.86         37.6268
   440.00         37.6326
   440.14         37.6468
   440.28         37.6681
   440.42         37.6886
   440.56         37.6990
   440.70         37.6940
   440.84         37.6726
   440.98         37.6380
   441.12         37.5968
   441.26         37.5558
   441.40         37.5217
   441.54         37.5025
   441.68         37.5053
   441.82         37.5335
   441.96         37.5852
   442.10         37.6549
   442.24         37.7340
   442.38         37.8124
   442.52         37.8806
   442.66         37.9318
   442.80         37.9605
   442.94         37.9635
   443.08         37.9400
   443.22         37.8931
   443.36         37.8281
   443.50         37.7520
   443.64         37.6714
   443.78         37.5918
   443.92         37.5182
   444.06         37.4527
   444.20         37.3942
   444.34         37.3398
   444.48         37.2869
   444.62         37.2346
   444.76         37.1841
   444.90         37.1391
   445.04         37.1031
   445.18         37.0780
   445.32         37.0606
   445.46         37.0440
   445.60         37.0199
   445.74         36.9837
   445.88         36.9380
   446.02         36.8918
   446.16         36.8537
   446.30         36.8267
   446.44         36.8096
   446.58         36.7970
   446.72         36.7780
   446.86         36.7414
   447.00         36.6804
   447.14         36.5948
   447.28         36.4910
   447.42         36.3790
   447.56         36.2683
   447.70         36.1654
   447.84         36.0748
   447.98         36.0014
   448.12         35.9508
   448.26         35.9279
   448.40         35.9371
   448.54         35.9818
   448.68         36.0608
   448.82         36.1660
   448.96         36.2860
   449.10         36.4116
   449.24         36.5374
   449.38         36.6608
   449.52         36.7820
   449.66         36.9028
   449.80         37.0251
   449.94         37.1481
   450.08         37.2663
   450.22         37.3701
   450.36         37.4501
   450.50         37.5006
   450.64         37.5197
   450.78         37.5057
   450.92         37.4570
   451.06         37.3740
   451.20         37.2611
   451.34         37.1247
   451.48         36.9712
   451.62         36.8054
   451.76         36.6307
   451.90         36.4489
   452.04         36.2600
   452.18         36.0637
   452.32         35.8652
   452.46         35.6767
   452.60         35.5121
   452.74         35.3826
   452.88         35.2962
   453.02         35.2589
   453.16         35.2734
   453.30         35.3363
   453.44         35.4345
   453.58         35.5474
   453.72         35.6533
   453.86         35.7343
   454.00         35.7756
   454.14         35.7650
   454.28         35.6953
   454.42         35.5687
   454.56         35.3976
   454.70         35.2020
   454.84         35.0067
   454.98         34.8379
   455.12         34.7167
   455.26         34.6557
   455.40         34.6595
   455.54         34.7266
   455.68         34.8483
   455.82         35.0084
   455.96         35.1865
   456.10         35.3616
   456.24         35.5178
   456.38         35.6465
   456.52         35.7426
   456.66         35.8008
   456.80         35.8168
   456.94         35.7893
   457.08         35.7211
   457.22         35.6188
   457.36         35.4911
   457.50         35.3479
   457.64         35.1987
   457.78         35.0531
   457.92         34.9212
   458.06         34.8114
   458.20         34.7287
   458.34         34.6754
   458.48         34.6536
   458.62         34.6647
   458.76         34.7073
   458.90         34.7768
   459.04         34.8642
   459.18         34.9577
   459.32         35.0453
   459.46         35.1180
   459.60         35.1720
   459.74         35.2068
   459.88         35.2264
   460.02         35.2371
   460.16         35.2435
   460.30         35.2480
   460.44         35.2518
   460.58         35.2541
   460.72         35.2541
   460.86         35.2527
   461.00         35.2518
   461.14         35.2536
   461.28         35.2572
   461.42         35.2582
   461.56         35.2507
   461.70         35.2294
   461.84         35.1904
   461.98         35.1322
   462.12         35.0564
   462.26         34.9663
   462.40         34.8653
   462.54         34.7581
   462.68         34.6498
   462.82         34.5459
   462.96         34.4540
   463.10         34.3826
   463.24         34.3389
   463.38         34.3257
   463.52         34.3406
   463.66         34.3765
   463.80         34.4253
   463.94         34.4780
   464.08         34.5271
   464.22         34.5702
   464.36         34.6087
   464.50         34.6445
   464.64         34.6787
   464.78         34.7130
   464.92         34.7488
   465.06         34.7856
   465.20         34.8206
   465.34         34.8469
   465.48         34.8552
   465.62         34.8363
   465.76         34.7836
   465.90         34.6946
   466.04         34.5743
   466.18         34.4338
   466.32         34.2874
   466.46         34.1499
   466.60         34.0337
   466.74         33.9475
   466.88         33.8960
   467.02         33.8797
   467.16         33.8954
   467.30         33.9397
   467.44         34.0085
   467.58         34.0957
   467.72         34.1914
   467.86         34.2843
   468.00         34.3648
   468.14         34.4279
   468.28         34.4722
   468.42         34.4990
   468.56         34.5096
   468.70         34.5039
   468.84         34.4786
   468.98         34.4305
   469.12         34.3599
   469.26         34.2707
   469.40         34.1690
   469.54         34.0606
   469.68         33.9507
   469.82         33.8460
   469.96         33.7541
   470.10         33.6795
   470.24         33.6221
   470.38         33.5801
   470.52         33.5530
   470.66         33.5413
   470.80         33.5450
   470.94         33.5622
   471.08         33.5894
   471.22         33.6214
   471.36         33.6512
   471.50         33.6698
   471.64         33.6700
   471.78         33.6487
   471.92         33.6050
   472.06         33.5393
   472.20         33.4535
   472.34         33.3533
   472.48         33.2465
   472.62         33.1402
   472.76         33.0413
   472.90         32.9569
   473.04         32.8943
   473.18         32.8574
   473.32         32.8468
   473.46         32.8609
   473.60         32.8953
   473.74         32.9439
   473.88         32.9987
   474.02         33.0490
   474.16         33.0849
   474.30         33.1009
   474.44         33.0961
   474.58         33.0715
   474.72         33.0293
   474.86         32.9711
   475.00         32.8970
   475.14         32.8074
   475.28         32.7045
   475.42         32.5914
   475.56         32.4691
   475.70         32.3378
   475.84         32.1993
   475.98         32.0602
   476.12         31.9298
   476.26         31.8172
   476.40         31.7309
   476.54         31.6751
   476.68         31.6490
   476.82         31.6494
   476.96         31.6711
   477.10         31.7085
   477.24         31.7543
   477.38         31.7994
   477.52         31.8339
   477.66         31.8498
   477.80         31.8453
   477.94         31.8224
   478.08         31.7857
   478.22         31.7430
   478.36         31.7043
   478.50         31.6799
   478.64         31.6784
   478.78         31.7025
   478.92         31.7483
   479.06         31.8061
   479.20         31.8622
   479.34         31.9020
   479.48         31.9158
   479.62         31.8995
   479.76         31.8526
   479.90         31.7758
   480.04         31.6714
   480.18         31.5451
   480.32         31.4064
   480.46         31.2664
   480.60         31.1361
   480.74         31.0246
   480.88         30.9353
   481.02         30.8643
   481.16         30.8017
   481.30         30.7346
   481.44         30.6503
   481.58         30.5417
   481.72         30.4068
   481.86         30.2469
   482.00         30.0669
   482.14         29.8748
   482.28         29.6788
   482.42         29.4850
   482.56         29.2979
   482.70         29.1207
   482.84         28.9548
   482.98         28.7967
   483.12         28.6393
   483.26         28.4736
   483.40         28.2896
   483.54         28.0769
   483.68         27.8274
   483.82         27.5363
   483.96         27.2007
   484.10         26.8186
   484.24         26.3877
   484.38         25.9017
   484.52         25.3511
   484.66         24.7253
   484.80         24.0162
   484.94         23.2216
   485.08         22.3493
   485.22         21.4197
   485.36         20.4667
   485.50         19.5360
   485.64         18.6788
   485.78         17.9457
   485.92         17.3816
   486.06         17.0202
   486.20         16.8808
   486.34         16.9676
   486.48         17.2680
   486.62         17.7541
   486.76         18.3876
   486.90         19.1247
   487.04         19.9186
   487.18         20.7225
   487.32         21.4970
   487.46         22.2144
   487.60         22.8612
   487.74         23.4347
   487.88         23.9395
   488.02         24.3850
   488.16         24.7825
   488.30         25.1413
   488.44         25.4680
   488.58         25.7705
   488.72         26.0577
   488.86         26.3351
   489.00         26.6041
   489.14         26.8619
   489.28         27.1044
   489.42         27.3271
   489.56         27.5252
   489.70         27.6933
   489.84         27.8322
   489.98         27.9495
   490.12         28.0547
   490.26         28.1583
   490.40         28.2687
   490.54         28.3910
   490.68         28.5256
   490.82         28.6681
   490.96         28.8103
   491.10         28.9434
   491.24         29.0593
   491.38         29.1503
   491.52         29.2106
   491.66         29.2385
   491.80         29.2384
   491.94         29.2189
   492.08         29.1903
   492.22         29.1619
   492.36         29.1417
   492.50         29.1355
   492.64         29.1428
   492.78         29.1576
   492.92         29.1747
   493.06         29.1897
   493.20         29.1995
   493.34         29.2039
   493.48         29.2063
   493.62         29.2109
   493.76         29.2212
   493.90         29.2421
   494.04         29.2783
   494.18         29.3332
   494.32         29.4061
   494.46         29.4912
   494.60         29.5773
   494.74         29.6518
   494.88         29.7066
   495.02         29.7396
   495.16         29.7511
   495.30         29.7425
   495.44         29.7171
   495.58         29.6800
   495.72         29.6365
   495.86         29.5904
   496.00         29.5427
   496.14         29.4926
   496.28         29.4398
   496.42         29.3853
   496.56         29.3302
   496.70         29.2732
   496.84         29.2114
   496.98         29.1396
   497.12         29.0514
   497.26         28.9443
   497.40         28.8232
   497.54         28.6977
   497.68         28.5758
   497.82         28.4630
   497.96         28.3629
   498.10         28.2776
   498.24         28.2098
   498.38         28.1619
   498.52         28.1342
   498.66         28.1246
   498.80         28.1290
   498.94         28.1432
   499.08         28.1612
   499.22         28.1763
   499.36         28.1817
   499.50         28.1711
   499.64         28.1404
   499.78         28.0917
   499.92         28.0344
   500.06         27.9770
   500.20         27.9212
   500.34         27.8646
   500.48         27.8034
   500.62         27.7338
   500.76         27.6542
   500.90         27.5672
   501.04         27.4768
   501.18         27.3866
   501.32         27.2994
   501.46         27.2182
   501.60         27.1479
   501.74         27.0941
   501.88         27.0633
   502.02         27.0599
   502.16         27.0848
   502.30         27.1363
   502.44         27.2118
   502.58         27.3063
   502.72         27.4100
   502.86         27.5114
   503.00         27.6009
   503.14         27.6704
   503.28         27.7163
   503.42         27.7404
   503.56         27.7477
   503.70         27.7426
   503.84         27.7271
   503.98         27.7014
   504.12         27.6665
   504.26         27.6255
   504.40         27.5822
   504.54         27.5410
   504.68         27.5057
   504.82         27.4812
   504.96         27.4726
   505.10         27.4817
   505.24         27.5054
   505.38         27.5378
   505.52         27.5730
   505.66         27.6077
   505.80         27.6403
   505.94         27.6693
   506.08         27.6907
   506.22         27.6986
   506.36         27.6883
   506.50         27.6588
   506.64         27.6130
   506.78         27.5564
   506.92         27.4954
   507.06         27.4354
   507.20         27.3823
   507.34         27.3413
   507.48         27.3154
   507.62         27.3040
   507.76         27.3050
   507.90         27.3182
   508.04         27.3441
   508.18         27.3828
   508.32         27.4316
   508.46         27.4853
   508.60         27.5371
   508.74         27.5800
   508.88         27.6090
   509.02         27.6217
   509.16         27.6181
   509.30         27.6000
   509.44         27.5697
   509.58         27.5308
   509.72         27.4889
   509.86         27.4505
   510.00         27.4216
   510.14         27.4073
   510.28         27.4119
   510.42         27.4381
   510.56         27.4858
   510.70         27.5506
   510.84         27.6230
   510.98         27.6918
   511.12         27.7471
   511.26         27.7813
   511.40         27.7890
   511.54         27.7692
   511.68         27.7239
   511.82         27.6555
   511.96         27.5658
   512.10         27.4574
   512.24         27.3356
   512.38         27.2063
   512.52         27.0759
   512.66         26.9513
   512.80         26.8373
   512.94         26.7357
   513.08         26.6471
   513.22         26.5711
   513.36         26.5067
   513.50         26.4542
   513.64         26.4153
   513.78         26.3897
   513.92         26.3756
   514.06         26.3736
   514.20         26.3851
   514.34         26.4091
   514.48         26.4441
   514.62         26.4893
   514.76         26.5422
   514.90         26.5977
   515.04         26.6505
   515.18         26.6957
   515.32         26.7270
   515.46         26.7360
   515.60         26.7148
   515.74         26.6568
   515.88         26.5570
   516.02         26.4145
   516.16         26.2361
   516.30         26.0362
   516.44         25.8338
   516.58         25.6505
   516.72         25.5059
   516.86         25.4131
   517.00         25.3771
   517.14         25.3949
   517.28         25.4554
   517.42         25.5426
   517.56         25.6412
   517.70         25.7371
   517.84         25.8164
   517.98         25.8669
   518.12         25.8810
   518.26         25.8582
   518.40         25.8049
   518.54         25.7320
   518.68         25.6538
   518.82         25.5846
   518.96         25.5343
   519.10         25.5054
   519.24         25.4952
   519.38         25.4977
   519.52         25.5060
   519.66         25.5135
   519.80         25.5157
   519.94         25.5131
   520.08         25.5107
   520.22         25.5129
   520.36         25.5206
   520.50         25.5333
   520.64         25.5510
   520.78         25.5757
   520.92         25.6094
   521.06         25.6521
   521.20         25.7008
   521.34         25.7503
   521.48         25.7932
   521.62         25.8205
   521.76         25.8254
   521.90         25.8056
   522.04         25.7618
   522.18         25.6972
   522.32         25.6151
   522.46         25.5197
   522.60         25.4173
   522.74         25.3148
   522.88         25.2184
   523.02         25.1338
   523.16         25.0677
   523.30         25.0270
   523.44         25.0146
   523.58         25.0300
   523.72         25.0704
   523.86         25.1314
   524.00         25.2064
   524.14         25.2892
   524.28         25.3763
   524.42         25.4655
   524.56         25.5508
   524.70         25.6245
   524.84         25.6800
   524.98         25.7115
   525.12         25.7136
   525.26         25.6829
   525.40         25.6183
   525.54         25.5206
   525.68         25.3923
   525.82         25.2389
   525.96         25.0683
   526.10         24.8896
   526.24         24.7131
   526.38         24.5481
   526.52         24.4020
   526.66         24.2807
   526.80         24.1890
   526.94         24.1301
   527.08         24.1029
   527.22         24.1031
   527.36         24.1269
   527.50         24.1702
   527.64         24.2278
   527.78         24.2956
   527.92         24.3726
   528.06         24.4594
   528.20         24.5562
   528.34         24.6635
   528.48         24.7814
   528.62         24.9069
   528.76         25.0340
   528.90         25.1551
   529.04         25.2637
   529.18         25.3542
   529.32         25.4213
   529.46         25.4615
   529.60         25.4730
   529.74         25.4560
   529.88         25.4141
   530.02         25.3551
   530.16         25.2882
   530.30         25.2212
   530.44         25.1595
   530.58         25.1045
   530.72         25.0560
   530.86         25.0156
   531.00         24.9861
   531.14         24.9671
   531.28         24.9541
   531.42         24.9418
   531.56         24.9249
   531.70         24.8983
   531.84         24.8571
   531.98         24.7986
   532.12         24.7240
   532.26         24.6375
   532.40         24.5454
   532.54         24.4530
   532.68         24.3636
   532.82         24.2792
   532.96         24.2010
   533.10         24.1309
   533.24         24.0735
   533.38         24.0345
   533.52         24.0185
   533.66         24.0255
   533.80         24.0510
   533.94         24.0905
   534.08         24.1409
   534.22         24.2012
   534.36         24.2728
   534.50         24.3575
   534.64         24.4554
   534.78         24.5625
   534.92         24.6711
   535.06         24.7709
   535.20         24.8512
   535.34         24.9037
   535.48         24.9238
   535.62         24.9103
   535.76         24.8644
   535.90         24.7898
   536.04         24.6905
   536.18         24.5731
   536.32         24.4464
   536.46         24.3209
   536.60         24.2072
   536.74         24.1136
   536.88         24.0452
   537.02         24.0031
   537.16         23.9834
   537.30         23.9799
   537.44         23.9860
   537.58         23.9963
   537.72         24.0078
   537.86         24.0192
   538.00         24.0301
   538.14         24.0404
   538.28         24.0500
   538.42         24.0587
   538.56         24.0669
   538.70         24.0746
   538.84         24.0815
   538.98         24.0854
   539.12         24.0822
   539.26         24.0673
   539.40         24.0370
   539.54         23.9898
   539.68         23.9269
   539.82         23.8519
   539.96         23.7709
   540.10         23.6918
   540.24         23.6213
   540.38         23.5646
   540.52         23.5254
   540.66         23.5054
   540.80         23.5044
   540.94         23.5206
   541.08         23.5505
   541.22         23.5892
   541.36         23.6306
   541.50         23.6696
   541.64         23.7013
   541.78         23.7237
   541.92         23.7364
   542.06         23.7401
   542.20         23.7364
   542.34         23.7275
   542.48         23.7174
   542.62         23.7111
   542.76         23.7121
   542.90         23.7228
   543.04         23.7451
   543.18         23.7794
   543.32         23.8225
   543.46         23.8673
   543.60         23.9066
   543.74         23.9350
   543.88         23.9482
   544.02         23.9448
   544.16         23.9262
   544.30         23.8952
   544.44         23.8556
   544.58         23.8109
   544.72         23.7635
   544.86         23.7160
   545.00         23.6709
   545.14         23.6307
   545.28         23.5949
   545.42         23.5612
   545.56         23.5285
   545.70         23.4969
   545.84         23.4671
   545.98         23.4399
   546.12         23.4169
   546.26         23.4009
   546.40         23.3936
   546.54         23.3932
   546.68         23.3961
   546.82         23.3959
   546.96         23.3859
   547.10         23.3616
   547.24         23.3223
   547.38         23.2718
   547.52         23.2173
   547.66         23.1662
   547.80         23.1252
   547.94         23.0998
   548.08         23.0947
   548.22         23.1134
   548.36         23.1577
   548.50         23.2247
   548.64         23.3073
   548.78         23.3961
   548.92         23.4811
   549.06         23.5526
   549.20         23.6018
   549.34         23.6224
   549.48         23.6129
   549.62         23.5771
   549.76         23.5209
   549.90         23.4503
   550.04         23.3714
   550.18         23.2906
   550.32         23.2141
   550.46         23.1484
   550.60         23.0989
   550.74         23.0696
   550.88         23.0627
   551.02         23.0777
   551.16         23.1093
   551.30         23.1490
   551.44         23.1871
   551.58         23.2148
   551.72         23.2246
   551.86         23.2107
   552.00         23.1715
   552.14         23.1082
   552.28         23.0238
   552.42         22.9216
   552.56         22.8084
   552.70         22.6942
   552.84         22.5890
   552.98         22.5013
   553.12         22.4361
   553.26         22.3951
   553.40         22.3784
   553.54         22.3845
   553.68         22.4110
   553.82         22.4543
   553.96         22.5091
   554.10         22.5699
   554.24         22.6318
   554.38         22.6902
   554.52         22.7416
   554.66         22.7827
   554.80         22.8101
   554.94         22.8229
   555.08         22.8225
   555.22         22.8117
   555.36         22.7923
   555.50         22.7654
   555.64         22.7323
   555.78         22.6932
   555.92         22.6475
   556.06         22.5960
   556.20         22.5409
   556.34         22.4855
   556.48         22.4319
   556.62         22.3811
   556.76         22.3344
   556.90         22.2935
   557.04         22.2600
   557.18         22.2359
   557.32         22.2219
   557.46         22.2181
   557.60         22.2222
   557.74         22.2290
   557.88         22.2331
   558.02         22.2294
   558.16         22.2143
   558.30         22.1849
   558.44         22.1404
   558.58         22.0826
   558.72         22.0154
   558.86         21.9438
   559.00         21.8721
   559.14         21.8044
   559.28         21.7453
   559.42         21.7004
   559.56         21.6744
   559.70         21.6698
   559.84         21.6867
   559.98         21.7221
   560.12         21.7715
   560.26         21.8286
   560.40         21.8857
   560.54         21.9350
   560.68         21.9693
   560.82         21.9853
   560.96         21.9839
   561.10         21.9687
   561.24         21.9439
   561.38         21.9153
   561.52         21.8896
   561.66         21.8729
   561.80         21.8696
   561.94         21.8816
   562.08         21.9069
   562.22         21.9411
   562.36         21.9781
   562.50         22.0109
   562.64         22.0320
   562.78         22.0354
   562.92         22.0182
   563.06         21.9824
   563.20         21.9352
   563.34         21.8870
   563.48         21.8473
   563.62         21.8222
   563.76         21.8137
   563.90         21.8208
   564.04         21.8405
   564.18         21.8675
   564.32         21.8948
   564.46         21.9143
   564.60         21.9187
   564.74         21.9042
   564.88         21.8699
   565.02         21.8172
   565.16         21.7499
   565.30         21.6742
   565.44         21.5976
   565.58         21.5275
   565.72         21.4692
   565.86         21.4257
   566.00         21.3980
   566.14         21.3858
   566.28         21.3887
   566.42         21.4058
   566.56         21.4350
   566.70         21.4730
   566.84         21.5150
   566.98         21.5544
   567.12         21.5845
   567.26         21.6015
   567.40         21.6037
   567.54         21.5899
   567.68         21.5614
   567.82         21.5221
   567.96         21.4775
   568.10         21.4338
   568.24         21.3976
   568.38         21.3748
   568.52         21.3702
   568.66         21.3851
   568.80         21.4178
   568.94         21.4630
   569.08         21.5131
   569.22         21.5595
   569.36         21.5939
   569.50         21.6097
   569.64         21.6035
   569.78         21.5767
   569.92         21.5340
   570.06         21.4807
   570.20         21.4226
   570.34         21.3655
   570.48         21.3150
   570.62         21.2750
   570.76         21.2480
   570.90         21.2343
   571.04         21.2329
   571.18         21.2419
   571.32         21.2583
   571.46         21.2787
   571.60         21.2997
   571.74         21.3187
   571.88         21.3339
   572.02         21.3441
   572.16         21.3482
   572.30         21.3469
   572.44         21.3415
   572.58         21.3320
   572.72         21.3191
   572.86         21.3051
   573.00         21.2933
   573.14         21.2877
   573.28         21.2912
   573.42         21.3045
   573.56         21.3261
   573.70         21.3532
   573.84         21.3821
   573.98         21.4078
   574.12         21.4252
   574.26         21.4302
   574.40         21.4194
   574.54         21.3903
   574.68         21.3416
   574.82         21.2746
   574.96         21.1943
   575.10         21.1077
   575.24         21.0222
   575.38         20.9457
   575.52         20.8852
   575.66         20.8463
   575.80         20.8313
   575.94         20.8370
   576.08         20.8569
   576.22         20.8842
   576.36         20.9139
   576.50         20.9418
   576.64         20.9648
   576.78         20.9806
   576.92         20.9887
   577.06         20.9892
   577.20         20.9826
   577.34         20.9696
   577.48         20.9531
   577.62         20.9366
   577.76         20.9225
   577.90         20.9120
   578.04         20.9069
   578.18         20.9087
   578.32         20.9170
   578.46         20.9289
   578.60         20.9415
   578.74         20.9545
   578.88         20.9692
   579.02         20.9860
   579.16         21.0052
   579.30         21.0258
   579.44         21.0461
   579.58         21.0641
   579.72         21.0777
   579.86         21.0850
   580.00         21.0853
   580.14         21.0794
   580.28         21.0695
   580.42         21.0574
   580.56         21.0462
   580.70         21.0391
   580.84         21.0385
   580.98         21.0450
   581.12         21.0579
   581.26         21.0763
   581.40         21.0974
   581.54         21.1162
   581.68         21.1270
   581.82         21.1240
   581.96         21.1020
   582.10         21.0581
   582.24         20.9924
   582.38         20.9075
   582.52         20.8066
   582.66         20.6960
   582.80         20.5851
   582.94         20.4824
   583.08         20.3940
   583.22         20.3246
   583.36         20.2767
   583.50         20.2511
   583.64         20.2474
   583.78         20.2637
   583.92         20.2970
   584.06         20.3440
   584.20         20.4013
   584.34         20.4644
   584.48         20.5282
   584.62         20.5882
   584.76         20.6413
   584.90         20.6860
   585.04         20.7212
   585.18         20.7463
   585.32         20.7636
   585.46         20.7765
   585.60         20.7860
   585.74         20.7938
   585.88         20.8032
   586.02         20.8171
   586.16         20.8387
   586.30         20.8701
   586.44         20.9095
   586.58         20.9529
   586.72         20.9967
   586.86         21.0368
   587.00         21.0688
   587.14         21.0903
   587.28         21.1011
   587.42         21.1022
   587.56         21.0946
   587.70         21.0778
   587.84         21.0497
   587.98         21.0099
   588.12         20.9580
   588.26         20.8935
   588.40         20.8176
   588.54         20.7312
   588.68         20.6353
   588.82         20.5314
   588.96         20.4229
   589.10         20.3138
   589.24         20.2097
   589.38         20.1198
   589.52         20.0531
   589.66         20.0163
   589.80         20.0140
   589.94         20.0471
   590.08         20.1120
   590.22         20.2009
   590.36         20.3028
   590.50         20.4082
   590.64         20.5093
   590.78         20.5974
   590.92         20.6643
   591.06         20.7060
   591.20         20.7219
   591.34         20.7155
   591.48         20.6946
   591.62         20.6678
   591.76         20.6402
   591.90         20.6127
   592.04         20.5847
   592.18         20.5537
   592.32         20.5157
   592.46         20.4662
   592.60         20.4028
   592.74         20.3266
   592.88         20.2410
   593.02         20.1511
   593.16         20.0633
   593.30         19.9828
   593.44         19.9144
   593.58         19.8629
   593.72         19.8319
   593.86         19.8218
   594.00         19.8306
   594.14         19.8543
   594.28         19.8857
   594.42         19.9169
   594.56         19.9419
   594.70         19.9585
   594.84         19.9667
   594.98         19.9671
   595.12         19.9614
   595.26         19.9527
   595.40         19.9435
   595.54         19.9345
   595.68         19.9255
   595.82         19.9165
   595.96         19.9073
   596.10         19.8978
   596.24         19.8882
   596.38         19.8782
   596.52         19.8678
   596.66         19.8573
   596.80         19.8465
   596.94         19.8355
   597.08         19.8245
   597.22         19.8135
   597.36         19.8026
   597.50         19.7918
   597.64         19.7812
   597.78         19.7707
   597.92         19.7603
   598.06         19.7501
   598.20         19.7399
   598.34         19.7297
   598.48         19.7196
   598.62         19.7100
   598.76         19.7009
   598.90         19.6913
   599.04         19.6810
   599.18         19.6696
   599.32         19.6563
   599.46         19.6396
   599.60         19.6187
   599.74         19.5943
   599.88         19.5677
   600.02         19.5405
   600.16         19.5151
   600.30         19.4945
   600.44         19.4805
   600.58         19.4736
   600.72         19.4726
   600.86         19.4761
   601.00         19.4833
   601.14         19.4942
   601.28         19.5095
   601.42         19.5286
   601.56         19.5493
   601.70         19.5697
   601.84         19.5872
   601.98         19.5984
   602.12         19.6000
   602.26         19.5905
   602.40         19.5713
   602.54         19.5455
   602.68         19.5163
   602.82         19.4866
   602.96         19.4573
   603.10         19.4266
   603.24         19.3910
   603.38         19.3483
   603.52         19.2989
   603.66         19.2450
   603.80         19.1886
   603.94         19.1324
   604.08         19.0781
   604.22         19.0264
   604.36         18.9782
   604.50         18.9336
   604.64         18.8928
   604.78         18.8567
   604.92         18.8279
   605.06         18.8079
   605.20         18.7949
   605.34         18.7844
   605.48         18.7729
   605.62         18.7592
   605.76         18.7435
   605.90         18.7275
   606.04         18.7156
   606.18         18.7131
   606.32         18.7233
   606.46         18.7468
   606.60         18.7820
   606.74         18.8251
   606.88         18.8701
   607.02         18.9115
   607.16         18.9446
   607.30         18.9657
   607.44         18.9714
   607.58         18.9597
   607.72         18.9305
   607.86         18.8858
   608.00         18.8301
   608.14         18.7687
   608.28         18.7044
   608.42         18.6383
   608.56         18.5731
   608.70         18.5125
   608.84         18.4586
   608.98         18.4104
   609.12         18.3644
   609.26         18.3171
   609.40         18.2668
   609.54         18.2148
   609.68         18.1642
   609.82         18.1199
   609.96         18.0858
   610.10         18.0650
   610.24         18.0584
   610.38         18.0651
   610.52         18.0829
   610.66         18.1095
   610.80         18.1405
   610.94         18.1716
   611.08         18.2004
   611.22         18.2253
   611.36         18.2439
   611.50         18.2548
   611.64         18.2576
   611.78         18.2534
   611.92         18.2447
   612.06         18.2351
   612.20         18.2259
   612.34         18.2165
   612.48         18.2064
   612.62         18.1944
   612.76         18.1792
   612.90         18.1608
   613.04         18.1406
   613.18         18.1209
   613.32         18.1020
   613.46         18.0833
   613.60         18.0647
   613.74         18.0471
   613.88         18.0318
   614.02         18.0197
   614.16         18.0104
   614.30         18.0023
   614.44         17.9937
   614.58         17.9831
   614.72         17.9694
   614.86         17.9529
   615.00         17.9357
   615.14         17.9192
   615.28         17.9025
   615.42         17.8861
   615.56         17.8735
   615.70         17.8677
   615.84         17.8698
   615.98         17.8784
   616.12         17.8922
   616.26         17.9098
   616.40         17.9302
   616.54         17.9522
   616.68         17.9744
   616.82         17.9949
   616.96         18.0127
   617.10         18.0272
   617.24         18.0391
   617.38         18.0502
   617.52         18.0630
   617.66         18.0780
   617.80         18.0937
   617.94         18.1086
   618.08         18.1230
   618.22         18.1361
   618.36         18.1447
   618.50         18.1456
   618.64         18.1394
   618.78         18.1297
   618.92         18.1206
   619.06         18.1145
   619.20         18.1106
   619.34         18.1075
   619.48         18.1045
   619.62         18.1024
   619.76         18.1021
   619.90         18.1038
   620.04         18.1058
   620.18         18.1054
   620.32         18.1005
   620.46         18.0910
   620.60         18.0790
   620.74         18.0665
   620.88         18.0527
   621.02         18.0367
   621.16         18.0182
   621.30         17.9963
   621.44         17.9707
   621.58         17.9409
   621.72         17.9074
   621.86         17.8721
   622.00         17.8381
   622.14         17.8083
   622.28         17.7832
   622.42         17.7608
   622.56         17.7389
   622.70         17.7160
   622.84         17.6908
   622.98         17.6620
   623.12         17.6286
   623.26         17.5898
   623.40         17.5451
   623.54         17.4959
   623.68         17.4465
   623.82         17.4021
   623.96         17.3673
   624.10         17.3454
   624.24         17.3381
   624.38         17.3451
   624.52         17.3637
   624.66         17.3893
   624.80         17.4169
   624.94         17.4422
   625.08         17.4624
   625.22         17.4773
   625.36         17.4863
   625.50         17.4887
   625.64         17.4856
   625.78         17.4805
   625.92         17.4764
   626.06         17.4746
   626.20         17.4756
   626.34         17.4790
   626.48         17.4820
   626.62         17.4795
   626.76         17.4651
   626.90         17.4334
   627.04         17.3815
   627.18         17.3091
   627.32         17.2194
   627.46         17.1194
   627.60         17.0176
   627.74         16.9219
   627.88         16.8388
   628.02         16.7732
   628.16         16.7283
   628.30         16.7058
   628.44         16.7042
   628.58         16.7189
   628.72         16.7440
   628.86         16.7742
   629.00         16.8052
   629.14         16.8339
   629.28         16.8594
   629.42         16.8827
   629.56         16.9066
   629.70         16.9332
   629.84         16.9633
   629.98         16.9955
   630.12         17.0270
   630.26         17.0534
   630.40         17.0698
   630.54         17.0721
   630.68         17.0575
   630.82         17.0250
   630.96         16.9761
   631.10         16.9150
   631.24         16.8479
   631.38         16.7831
   631.52         16.7287
   631.66         16.6902
   631.80         16.6707
   631.94         16.6705
   632.08         16.6873
   632.22         16.7168
   632.36         16.7541
   632.50         16.7942
   632.64         16.8316
   632.78         16.8611
   632.92         16.8796
   633.06         16.8859
   633.20         16.8798
   633.34         16.8614
   633.48         16.8309
   633.62         16.7901
   633.76         16.7423
   633.90         16.6921
   634.04         16.6443
   634.18         16.6026
   634.32         16.5707
   634.46         16.5524
   634.60         16.5496
   634.74         16.5617
   634.88         16.5864
   635.02         16.6200
   635.16         16.6565
   635.30         16.6901
   635.44         16.7163
   635.58         16.7321
   635.72         16.7350
   635.86         16.7236
   636.00         16.6986
   636.14         16.6629
   636.28         16.6217
   636.42         16.5811
   636.56         16.5461
   636.70         16.5203
   636.84         16.5069
   636.98         16.5081
   637.12         16.5232
   637.26         16.5494
   637.40         16.5839
   637.54         16.6236
   637.68         16.6642
   637.82         16.7016
   637.96         16.7339
   638.10         16.7605
   638.24         16.7807
   638.38         16.7929
   638.52         16.7948
   638.66         16.7841
   638.80         16.7599
   638.94         16.7227
   639.08         16.6756
   639.22         16.6228
   639.36         16.5695
   639.50         16.5200
   639.64         16.4770
   639.78         16.4421
   639.92         16.4170
   640.06         16.4024
   640.20         16.3970
   640.34         16.3989
   640.48         16.4066
   640.62         16.4186
   640.76         16.4319
   640.90         16.4417
   641.04         16.4432
   641.18         16.4340
   641.32         16.4141
   641.46         16.3860
   641.60         16.3546
   641.74         16.3247
   641.88         16.2983
   642.02         16.2759
   642.16         16.2569
   642.30         16.2404
   642.44         16.2257
   642.58         16.2122
   642.72         16.1991
   642.86         16.1860
   643.00         16.1735
   643.14         16.1611
   643.28         16.1485
   643.42         16.1359
   643.56         16.1254
   643.70         16.1192
   643.84         16.1180
   643.98         16.1219
   644.12         16.1304
   644.26         16.1411
   644.40         16.1493
   644.54         16.1510
   644.68         16.1436
   644.82         16.1262
   644.96         16.0996
   645.10         16.0662
   645.24         16.0290
   645.38         15.9914
   645.52         15.9585
   645.66         15.9352
   645.80         15.9239
   645.94         15.9236
   646.08         15.9310
   646.22         15.9420
   646.36         15.9521
   646.50         15.9578
   646.64         15.9586
   646.78         15.9549
   646.92         15.9462
   647.06         15.9336
   647.20         15.9198
   647.34         15.9076
   647.48         15.8979
   647.62         15.8910
   647.76         15.8864
   647.90         15.8827
   648.04         15.8778
   648.18         15.8690
   648.32         15.8526
   648.46         15.8246
   648.60         15.7834
   648.74         15.7327
   648.88         15.6811
   649.02         15.6380
   649.16         15.6114
   649.30         15.6062
   649.44         15.6226
   649.58         15.6573
   649.72         15.7057
   649.86         15.7626
   650.00         15.8224
   650.14         15.8793
   650.28         15.9285
   650.42         15.9662
   650.56         15.9900
   650.70         15.9998
   650.84         15.9985
   650.98         15.9904
   651.12         15.9807
   651.26         15.9746
   651.40         15.9757
   651.54         15.9844
   651.68         15.9979
   651.82         16.0110
   651.96         16.0180
   652.10         16.0136
   652.24         15.9955
   652.38         15.9648
   652.52         15.9242
   652.66         15.8754
   652.80         15.8174
   652.94         15.7495
   653.08         15.6712
   653.22         15.5822
   653.36         15.4829
   653.50         15.3740
   653.64         15.2559
   653.78         15.1284
   653.92         14.9908
   654.06         14.8427
   654.20         14.6834
   654.34         14.5122
   654.48         14.3274
   654.62         14.1264
   654.76         13.9055
   654.90         13.6600
   655.04         13.3837
   655.18         13.0719
   655.32         12.7246
   655.46         12.3497
   655.60         11.9630
   655.74         11.5856
   655.88         11.2415
   656.02         10.9537
   656.16         10.7416
   656.30         10.6185
   656.44         10.5919
   656.58         10.6634
   656.72         10.8270
   656.86         11.0703
   657.00         11.3772
   657.14         11.7282
   657.28         12.1024
   657.42         12.4790
   657.56         12.8402
   657.70         13.1745
   657.84         13.4768
   657.98         13.7462
   658.12         13.9824
   658.26         14.1845
   658.40         14.3515
   658.54         14.4835
   658.68         14.5819
   658.82         14.6491
   658.96         14.6897
   659.10         14.7099
   659.24         14.7165
   659.38         14.7158
   659.52         14.7141
   659.66         14.7175
   659.80         14.7298
   659.94         14.7532
   660.08         14.7877
   660.22         14.8311
   660.36         14.8798
   660.50         14.9294
   660.64         14.9753
   660.78         15.0139
   660.92         15.0429
   661.06         15.0612
   661.20         15.0690
   661.34         15.0677
   661.48         15.0603
   661.62         15.0509
   661.76         15.0430
   661.90         15.0391
   662.04         15.0409
   662.18         15.0497
   662.32         15.0644
   662.46         15.0810
   662.60         15.0948
   662.74         15.1023
   662.88         15.1018
   663.02         15.0939
   663.16         15.0802
   663.30         15.0626
   663.44         15.0432
   663.58         15.0237
   663.72         15.0058
   663.86         14.9922
   664.00         14.9865
   664.14         14.9908
   664.28         15.0047
   664.42         15.0265
   664.56         15.0543
   664.70         15.0851
   664.84         15.1147
   664.98         15.1391
   665.12         15.1556
   665.26         15.1645
   665.40         15.1668
   665.54         15.1624
   665.68         15.1502
   665.82         15.1293
   665.96         15.1009
   666.10         15.0672
   666.24         15.0302
   666.38         14.9916
   666.52         14.9541
   666.66         14.9208
   666.80         14.8934
   666.94         14.8728
   667.08         14.8602
   667.22         14.8563
   667.36         14.8597
   667.50         14.8685
   667.64         14.8799
   667.78         14.8901
   667.92         14.8961
   668.06         14.8954
   668.20         14.8863
   668.34         14.8694
   668.48         14.8460
   668.62         14.8183
   668.76         14.7882
   668.90         14.7567
   669.04         14.7252
   669.18         14.6963
   669.32         14.6723
   669.46         14.6542
   669.60         14.6422
   669.74         14.6362
   669.88         14.6354
   670.02         14.6388
   670.16         14.6449
   670.30         14.6520
   670.44         14.6586
   670.58         14.6644
   670.72         14.6686
   670.86         14.6699
   671.00         14.6675
   671.14         14.6625
   671.28         14.6563
   671.42         14.6506
   671.56         14.6463
   671.70         14.6441
   671.84         14.6439
   671.98         14.6449
   672.12         14.6457
   672.26         14.6446
   672.40         14.6409
   672.54         14.6334
   672.68         14.6215
   672.82         14.6057
   672.96         14.5879
   673.10         14.5694
   673.24         14.5508
   673.38         14.5321
   673.52         14.5133
   673.66         14.4939
   673.80         14.4730
   673.94         14.4493
   674.08         14.4224
   674.22         14.3924
   674.36         14.3598
   674.50         14.3258
   674.64         14.2927
   674.78         14.2620
   674.92         14.2354
   675.06         14.2144
   675.20         14.1995
   675.34         14.1915
   675.48         14.1904
   675.62         14.1943
   675.76         14.2016
   675.90         14.2117
   676.04         14.2242
   676.18         14.2385
   676.32         14.2542
   676.46         14.2712
   676.60         14.2891
   676.74         14.3051
   676.88         14.3167
   677.02         14.3217
   677.16         14.3197
   677.30         14.3110
   677.44         14.2969
   677.58         14.2794
   677.72         14.2609
   677.86         14.2434
   678.00         14.2291
   678.14         14.2191
   678.28         14.2137
   678.42         14.2126
   678.56         14.2151
   678.70         14.2204
   678.84         14.2284
   678.98         14.2392
   679.12         14.2521
   679.26         14.2653
   679.40         14.2764
   679.54         14.2829
   679.68         14.2823
   679.82         14.2726
   679.96         14.2536
   680.10         14.2258
   680.24         14.1903
   680.38         14.1491
   680.52         14.1060
   680.66         14.0642
   680.80         14.0257
   680.94         13.9923
   681.08         13.9656
   681.22         13.9461
   681.36         13.9328
   681.50         13.9234
   681.64         13.9147
   681.78         13.9048
   681.92         13.8922
   682.06         13.8762
   682.20         13.8583
   682.34         13.8404
   682.48         13.8245
   682.62         13.8119
   682.76         13.8032
   682.90         13.7975
   683.04         13.7937
   683.18         13.7900
   683.32         13.7851
   683.46         13.7786
   683.60         13.7701
   683.74         13.7593
   683.88         13.7459
   684.02         13.7301
   684.16         13.7129
   684.30         13.6957
   684.44         13.6792
   684.58         13.6634
   684.72         13.6487
   684.86         13.6359
   685.00         13.6248
   685.14         13.6155
   685.28         13.6079
   685.42         13.5986
   685.56         13.5798
   685.70         13.5387
   685.84         13.4603
   685.98         13.3329
   686.12         13.1495
   686.26         12.9088
   686.40         12.6170
   686.54         12.2877
   686.68         11.9405
   686.82         11.5989
   686.96         11.2877
   687.10         11.0311
   687.24         10.8479
   687.38         10.7484
   687.52         10.7332
   687.66         10.7939
   687.80         10.9145
   687.94         11.0730
   688.08         11.2460
   688.22         11.4119
   688.36         11.5554
   688.50         11.6697
   688.64         11.7544
   688.78         11.8133
   688.92         11.8521
   689.06         11.8779
   689.20         11.8977
   689.34         11.9178
   689.48         11.9434
   689.62         11.9782
   689.76         12.0234
   689.90         12.0773
   690.04         12.1373
   690.18         12.2010
   690.32         12.2666
   690.46         12.3319
   690.60         12.3953
   690.74         12.4557
   690.88         12.5119
   691.02         12.5628
   691.16         12.6075
   691.30         12.6461
   691.44         12.6807
   691.58         12.7141
   691.72         12.7482
   691.86         12.7848
   692.00         12.8258
   692.14         12.8722
   692.28         12.9218
   692.42         12.9706
   692.56         13.0148
   692.70         13.0517
   692.84         13.0788
   692.98         13.0949
   693.12         13.1013
   693.26         13.1016
   693.40         13.1000
   693.54         13.1003
   693.68         13.1046
   693.82         13.1138
   693.96         13.1287
   694.10         13.1497
   694.24         13.1761
   694.38         13.2051
   694.52         13.2335
   694.66         13.2589
   694.80         13.2789
   694.94         13.2915
   695.08         13.2961
   695.22         13.2941
   695.36         13.2867
   695.50         13.2753
   695.64         13.2633
   695.78         13.2553
   695.92         13.2548
   696.06         13.2634
   696.20         13.2814
   696.34         13.3092
   696.48         13.3472
   696.62         13.3953
   696.76         13.4507
   696.90         13.5081
   697.04         13.5620
   697.18         13.6082
   697.32         13.6440
   697.46         13.6656
   697.60         13.6694
   697.74         13.6532
   697.88         13.6170
   698.02         13.5625
   698.16         13.4929
   698.30         13.4138
   698.44         13.3311
   698.58         13.2498
   698.72         13.1747
   698.86         13.1103
   699.00         13.0598
   699.14         13.0241
   699.28         13.0021
   699.42         12.9905
   699.56         12.9879
   699.70         12.9935
   699.84         13.0054
   699.98         13.0206
   700.12         13.0365
   700.26         13.0510
   700.40         13.0626
   700.54         13.0707
   700.68         13.0763
   700.82         13.0808
   700.96         13.0861
   701.10         13.0926
   701.24         13.0998
   701.38         13.1069
   701.52         13.1123
   701.66         13.1139
   701.80         13.1112
   701.94         13.1042
   702.08         13.0953
   702.22         13.0871
   702.36         13.0804
   702.50         13.0736
   702.64         13.0652
   702.78         13.0533
   702.92         13.0362
   703.06         13.0147
   703.20         12.9923
   703.34         12.9728
   703.48         12.9583
   703.62         12.9495
   703.76         12.9458
   703.90         12.9475
   704.04         12.9546
   704.18         12.9653
   704.32         12.9775
   704.46         12.9895
   704.60         13.0007
   704.74         13.0098
   704.88         13.0135
   705.02         13.0089
   705.16         12.9952
   705.30         12.9735
   705.44         12.9454
   705.58         12.9128
   705.72         12.8775
   705.86         12.8405
   706.00         12.8025
   706.14         12.7650
   706.28         12.7297
   706.42         12.6982
   706.56         12.6725
   706.70         12.6536
   706.84         12.6424
   706.98         12.6403
   707.12         12.6486
   707.26         12.6666
   707.40         12.6905
   707.54         12.7166
   707.68         12.7424
   707.82         12.7645
   707.96         12.7806
   708.10         12.7897
   708.24         12.7922
   708.38         12.7901
   708.52         12.7852
   708.66         12.7781
   708.80         12.7689
   708.94         12.7569
   709.08         12.7414
   709.22         12.7230
   709.36         12.7034
   709.50         12.6841
   709.64         12.6669
   709.78         12.6529
   709.92         12.6419
   710.06         12.6327
   710.20         12.6245
   710.34         12.6167
   710.48         12.6099
   710.62         12.6056
   710.76         12.6045
   710.90         12.6050
   711.04         12.6055
   711.18         12.6056
   711.32         12.6053
   711.46         12.6053
   711.60         12.6064
   711.74         12.6093
   711.88         12.6154
   712.02         12.6251
   712.16         12.6367
   712.30         12.6484
   712.44         12.6593
   712.58         12.6684
   712.72         12.6754
   712.86         12.6813
   713.00         12.6880
   713.14         12.6973
   713.28         12.7097
   713.42         12.7233
   713.56         12.7343
   713.70         12.7411
   713.84         12.7436
   713.98         12.7425
   714.12         12.7382
   714.26         12.7302
   714.40         12.7182
   714.54         12.7030
   714.68         12.6862
   714.82         12.6707
   714.96         12.6592
   715.10         12.6522
   715.24         12.6493
   715.38         12.6484
   715.52         12.6464
   715.66         12.6415
   715.80         12.6329
   715.94         12.6202
   716.08         12.6016
   716.22         12.5752
   716.36         12.5422
   716.50         12.5046
   716.64         12.4637
   716.78         12.4211
   716.92         12.3791
   717.06         12.3392
   717.20         12.3016
   717.34         12.2656
   717.48         12.2283
   717.62         12.1865
   717.76         12.1393
   717.90         12.0884
   718.04         12.0356
   718.18         11.9831
   718.32         11.9340
   718.46         11.8906
   718.60         11.8532
   718.74         11.8198
   718.88         11.7890
   719.02         11.7603
   719.16         11.7333
   719.30         11.7076
   719.44         11.6817
   719.58         11.6525
   719.72         11.6189
   719.86         11.5835
   720.00         11.5517
   720.14         11.5294
   720.28         11.5211
   720.42         11.5301
   720.56         11.5572
   720.70         11.6019
   720.84         11.6621
   720.98         11.7358
   721.12         11.8196
   721.26         11.9079
   721.40         11.9937
   721.54         12.0705
   721.68         12.1334
   721.82         12.1790
   721.96         12.2050
   722.10         12.2109
   722.24         12.1980
   722.38         12.1688
   722.52         12.1273
   722.66         12.0789
   722.80         12.0294
   722.94         11.9828
   723.08         11.9422
   723.22         11.9102
   723.36         11.8883
   723.50         11.8764
   723.64         11.8745
   723.78         11.8815
   723.92         11.8947
   724.06         11.9102
   724.20         11.9243
   724.34         11.9347
   724.48         11.9411
   724.62         11.9436
   724.76         11.9411
   724.90         11.9322
   725.04         11.9172
   725.18         11.8973
   725.32         11.8728
   725.46         11.8422
   725.60         11.8039
   725.74         11.7595
   725.88         11.7128
   726.02         11.6679
   726.16         11.6274
   726.30         11.5929
   726.44         11.5649
   726.58         11.5420
   726.72         11.5243
   726.86         11.5139
   727.00         11.5137
   727.14         11.5247
   727.28         11.5449
   727.42         11.5713
   727.56         11.6013
   727.70         11.6323
   727.84         11.6608
   727.98         11.6836
   728.12         11.6990
   728.26         11.7067
   728.40         11.7073
   728.54         11.7006
   728.68         11.6879
   728.82         11.6720
   728.96         11.6564
   729.10         11.6429
   729.24         11.6326
   729.38         11.6267
   729.52         11.6251
   729.66         11.6250
   729.80         11.6215
   729.94         11.6105
   730.08         11.5906
   730.22         11.5632
   730.36         11.5303
   730.50         11.4932
   730.64         11.4531
   730.78         11.4113
   730.92         11.3695
   731.06         11.3299
   731.20         11.2955
   731.34         11.2685
   731.48         11.2496
   731.62         11.2374
   731.76         11.2304
   731.90         11.2284
   732.04         11.2312
   732.18         11.2376
   732.32         11.2456
   732.46         11.2534
   732.60         11.2616
   732.74         11.2717
   732.88         11.2839
   733.02         11.2967
   733.16         11.3084
   733.30         11.3177
   733.44         11.3241
   733.58         11.3275
   733.72         11.3269
   733.86         11.3200
   734.00         11.3042
   734.14         11.2793
   734.28         11.2463
   734.42         11.2069
   734.56         11.1622
   734.70         11.1134
   734.84         11.0633
   734.98         11.0154
   735.12         10.9733
   735.26         10.9399
   735.40         10.9160
   735.54         10.9013
   735.68         10.8941
   735.82         10.8926
   735.96         10.8950
   736.10         10.8999
   736.24         10.9068
   736.38         10.9159
   736.52         10.9280
   736.66         10.9440
   736.80         10.9636
   736.94         10.9852
   737.08         11.0067
   737.22         11.0261
   737.36         11.0426
   737.50         11.0555
   737.64         11.0638
   737.78         11.0669
   737.92         11.0661
   738.06         11.0641
   738.20         11.0637
   738.34         11.0671
   738.48         11.0769
   738.62         11.0944
   738.76         11.1198
   738.90         11.1527
   739.04         11.1915
   739.18         11.2342
   739.32         11.2786
   739.46         11.3220
   739.60         11.3609
   739.74         11.3918
   739.88         11.4116
   740.02         11.4184
   740.16         11.4126
   740.30         11.3970
   740.44         11.3762
   740.58         11.3555
   740.72         11.3398
   740.86         11.3339
   741.00         11.3421
   741.14         11.3675
   741.28         11.4099
   741.42         11.4662
   741.56         11.5318
   741.70         11.6019
   741.84         11.6704
   741.98         11.7310
   742.12         11.7796
   742.26         11.8149
   742.40         11.8379
   742.54         11.8506
   742.68         11.8561
   742.82         11.8577
   742.96         11.8577
   743.10         11.8561
   743.24         11.8506
   743.38         11.8379
   743.52         11.8149
   743.66         11.7796
   743.80         11.7310
   743.94         11.6704
   744.08         11.6019
   744.22         11.5318
