# File HD23733
# Wavelength [nm]    Normalized Amplitude
   349.70         17.5332
   349.84         17.5047
   349.98         17.4827
   350.12         17.4679
   350.26         17.4615
   350.40         17.4649
   350.54         17.4779
   350.68         17.4977
   350.82         17.5187
   350.96         17.5346
   351.10         17.5404
   351.24         17.5346
   351.38         17.5187
   351.52         17.4977
   351.66         17.4779
   351.80         17.4649
   351.94         17.4615
   352.08         17.4679
   352.22         17.4827
   352.36         17.5047
   352.50         17.5332
   352.64         17.5682
   352.78         17.6097
   352.92         17.6581
   353.06         17.7131
   353.20         17.7720
   353.34         17.8316
   353.48         17.8908
   353.62         17.9514
   353.76         18.0174
   353.90         18.0926
   354.04         18.1767
   354.18         18.2653
   354.32         18.3509
   354.46         18.4256
   354.60         18.4835
   354.74         18.5208
   354.88         18.5356
   355.02         18.5284
   355.16         18.5009
   355.30         18.4531
   355.44         18.3829
   355.58         18.2887
   355.72         18.1732
   355.86         18.0419
   356.00         17.9003
   356.14         17.7515
   356.28         17.5956
   356.42         17.4303
   356.56         17.2537
   356.70         17.0651
   356.84         16.8666
   356.98         16.6634
   357.12         16.4610
   357.26         16.2635
   357.40         16.0731
   357.54         15.8909
   357.68         15.7180
   357.82         15.5573
   357.96         15.4142
   358.10         15.2968
   358.24         15.2148
   358.38         15.1773
   358.52         15.1888
   358.66         15.2485
   358.80         15.3526
   358.94         15.4961
   359.08         15.6723
   359.22         15.8719
   359.36         16.0803
   359.50         16.2820
   359.64         16.4635
   359.78         16.6138
   359.92         16.7260
   360.06         16.7969
   360.20         16.8261
   360.34         16.8168
   360.48         16.7768
   360.62         16.7136
   360.76         16.6338
   360.90         16.5430
   361.04         16.4478
   361.18         16.3570
   361.32         16.2794
   361.46         16.2234
   361.60         16.1971
   361.74         16.2056
   361.88         16.2484
   362.02         16.3186
   362.16         16.4048
   362.30         16.4922
   362.44         16.5676
   362.58         16.6229
   362.72         16.6557
   362.86         16.6688
   363.00         16.6695
   363.14         16.6669
   363.28         16.6695
   363.42         16.6848
   363.56         16.7183
   363.70         16.7732
   363.84         16.8476
   363.98         16.9351
   364.12         17.0276
   364.26         17.1180
   364.40         17.2018
   364.54         17.2784
   364.68         17.3514
   364.82         17.4289
   364.96         17.5218
   365.10         17.6408
   365.24         17.7913
   365.38         17.9701
   365.52         18.1678
   365.66         18.3688
   365.80         18.5543
   365.94         18.7060
   366.08         18.8116
   366.22         18.8674
   366.36         18.8772
   366.50         18.8487
   366.64         18.7907
   366.78         18.7127
   366.92         18.6238
   367.06         18.5328
   367.20         18.4472
   367.34         18.3705
   367.48         18.3038
   367.62         18.2472
   367.76         18.2008
   367.90         18.1651
   368.04         18.1432
   368.18         18.1388
   368.32         18.1541
   368.46         18.1886
   368.60         18.2403
   368.74         18.3083
   368.88         18.3918
   369.02         18.4866
   369.16         18.5834
   369.30         18.6704
   369.44         18.7374
   369.58         18.7785
   369.72         18.7916
   369.86         18.7757
   370.00         18.7303
   370.14         18.6587
   370.28         18.5712
   370.42         18.4843
   370.56         18.4182
   370.70         18.3889
   370.84         18.4006
   370.98         18.4469
   371.12         18.5172
   371.26         18.6040
   371.40         18.7053
   371.54         18.8196
   371.68         18.9441
   371.82         19.0753
   371.96         19.2086
   372.10         19.3352
   372.24         19.4396
   372.38         19.5034
   372.52         19.5132
   372.66         19.4691
   372.80         19.3893
   372.94         19.3019
   373.08         19.2322
   373.22         19.1961
   373.36         19.1977
   373.50         19.2315
   373.64         19.2875
   373.78         19.3537
   373.92         19.4167
   374.06         19.4656
   374.20         19.4957
   374.34         19.5101
   374.48         19.5148
   374.62         19.5135
   374.76         19.5109
   374.90         19.5211
   375.04         19.5686
   375.18         19.6811
   375.32         19.8773
   375.46         20.1545
   375.60         20.4819
   375.74         20.8080
   375.88         21.0771
   376.02         21.2434
   376.16         21.2832
   376.30         21.2007
   376.44         21.0282
   376.58         20.8223
   376.72         20.6533
   376.86         20.5900
   377.00         20.6852
   377.14         20.9687
   377.28         21.4459
   377.42         22.1015
   377.56         22.9010
   377.70         23.7913
   377.84         24.7054
   377.98         25.5669
   378.12         26.2970
   378.26         26.8253
   378.40         27.0992
   378.54         27.0901
   378.68         26.8004
   378.82         26.2689
   378.96         25.5651
   379.10         24.7768
   379.24         23.9984
   379.38         23.3183
   379.52         22.8095
   379.66         22.5290
   379.80         22.5169
   379.94         22.7875
   380.08         23.3240
   380.22         24.0821
   380.36         24.9997
   380.50         26.0055
   380.64         27.0242
   380.78         27.9837
   380.92         28.8227
   381.06         29.4983
   381.20         29.9894
   381.34         30.2955
   381.48         30.4285
   381.62         30.4002
   381.76         30.2157
   381.90         29.8764
   382.04         29.3818
   382.18         28.7333
   382.32         27.9397
   382.46         27.0174
   382.60         25.9913
   382.74         24.9013
   382.88         23.8101
   383.02         22.7987
   383.16         21.9520
   383.30         21.3435
   383.44         21.0285
   383.58         21.0399
   383.72         21.3848
   383.86         22.0421
   384.00         22.9659
   384.14         24.0923
   384.28         25.3438
   384.42         26.6361
   384.56         27.8893
   384.70         29.0385
   384.84         30.0407
   384.98         30.8788
   385.12         31.5573
   385.26         32.0949
   385.40         32.5166
   385.54         32.8478
   385.68         33.1099
   385.82         33.3154
   385.96         33.4675
   386.10         33.5631
   386.24         33.5970
   386.38         33.5640
   386.52         33.4591
   386.66         33.2781
   386.80         33.0191
   386.94         32.6796
   387.08         32.2594
   387.22         31.7587
   387.36         31.1730
   387.50         30.4926
   387.64         29.7083
   387.78         28.8203
   387.92         27.8438
   388.06         26.8105
   388.20         25.7688
   388.34         24.7797
   388.48         23.9089
   388.62         23.2194
   388.76         22.7663
   388.90         22.5880
   389.04         22.6998
   389.18         23.0904
   389.32         23.7259
   389.46         24.5563
   389.60         25.5219
   389.74         26.5601
   389.88         27.6086
   390.02         28.6123
   390.16         29.5320
   390.30         30.3475
   390.44         31.0543
   390.58         31.6552
   390.72         32.1539
   390.86         32.5554
   391.00         32.8670
   391.14         33.0961
   391.28         33.2469
   391.42         33.3188
   391.56         33.3031
   391.70         33.1810
   391.84         32.9229
   391.98         32.4935
   392.12         31.8621
   392.26         31.0153
   392.40         29.9685
   392.54         28.7710
   392.68         27.5022
   392.82         26.2619
   392.96         25.1575
   393.10         24.2888
   393.24         23.7361
   393.38         23.5518
   393.52         23.7525
   393.66         24.3143
   393.80         25.1735
   393.94         26.2374
   394.08         27.3963
   394.22         28.5362
   394.36         29.5522
   394.50         30.3633
   394.64         30.9241
   394.78         31.2273
   394.92         31.2943
   395.06         31.1584
   395.20         30.8469
   395.34         30.3728
   395.48         29.7355
   395.62         28.9272
   395.76         27.9444
   395.90         26.8008
   396.04         25.5346
   396.18         24.2083
   396.32         22.9035
   396.46         21.7135
   396.60         20.7324
   396.74         20.0411
   396.88         19.6978
   397.02         19.7327
   397.16         20.1459
   397.30         20.9074
   397.44         21.9594
   397.58         23.2214
   397.72         24.6011
   397.86         26.0077
   398.00         27.3626
   398.14         28.6065
   398.28         29.7040
   398.42         30.6432
   398.56         31.4301
   398.70         32.0831
   398.84         32.6256
   398.98         33.0817
   399.12         33.4732
   399.26         33.8159
   399.40         34.1190
   399.54         34.3896
   399.68         34.6352
   399.82         34.8644
   399.96         35.0854
   400.10         35.3034
   400.24         35.5202
   400.38         35.7354
   400.52         35.9474
   400.66         36.1520
   400.80         36.3436
   400.94         36.5172
   401.08         36.6690
   401.22         36.7978
   401.36         36.9074
   401.50         37.0008
   401.64         37.0747
   401.78         37.1193
   401.92         37.1226
   402.06         37.0789
   402.20         36.9930
   402.34         36.8767
   402.48         36.7460
   402.62         36.6183
   402.76         36.5103
   402.90         36.4367
   403.04         36.4078
   403.18         36.4270
   403.32         36.4886
   403.46         36.5804
   403.60         36.6894
   403.74         36.8044
   403.88         36.9157
   404.02         37.0117
   404.16         37.0774
   404.30         37.0986
   404.44         37.0685
   404.58         36.9907
   404.72         36.8783
   404.86         36.7480
   405.00         36.6133
   405.14         36.4814
   405.28         36.3531
   405.42         36.2251
   405.56         36.0939
   405.70         35.9581
   405.84         35.8177
   405.98         35.6733
   406.12         35.5281
   406.26         35.3856
   406.40         35.2441
   406.54         35.0946
   406.68         34.9276
   406.82         34.7397
   406.96         34.5345
   407.10         34.3190
   407.24         34.0992
   407.38         33.8784
   407.52         33.6578
   407.66         33.4380
   407.80         33.2196
   407.94         33.0028
   408.08         32.7858
   408.22         32.5607
   408.36         32.3098
   408.50         32.0071
   408.64         31.6225
   408.78         31.1269
   408.92         30.4959
   409.06         29.7174
   409.20         28.8022
   409.34         27.7868
   409.48         26.7286
   409.62         25.6974
   409.76         24.7660
   409.90         24.0040
   410.04         23.4740
   410.18         23.2258
   410.32         23.2877
   410.46         23.6582
   410.60         24.3066
   410.74         25.1771
   410.88         26.1962
   411.02         27.2840
   411.16         28.3649
   411.30         29.3746
   411.44         30.2649
   411.58         31.0091
   411.72         31.6032
   411.86         32.0604
   412.00         32.4027
   412.14         32.6564
   412.28         32.8491
   412.42         33.0077
   412.56         33.1568
   412.70         33.3183
   412.84         33.5059
   412.98         33.7219
   413.12         33.9593
   413.26         34.2079
   413.40         34.4574
   413.54         34.6982
   413.68         34.9217
   413.82         35.1200
   413.96         35.2859
   414.10         35.4126
   414.24         35.4947
   414.38         35.5298
   414.52         35.5211
   414.66         35.4789
   414.80         35.4167
   414.94         35.3480
   415.08         35.2852
   415.22         35.2397
   415.36         35.2204
   415.50         35.2303
   415.64         35.2657
   415.78         35.3211
   415.92         35.3892
   416.06         35.4586
   416.20         35.5151
   416.34         35.5445
   416.48         35.5351
   416.62         35.4787
   416.76         35.3741
   416.90         35.2302
   417.04         35.0637
   417.18         34.8954
   417.32         34.7427
   417.46         34.6176
   417.60         34.5294
   417.74         34.4850
   417.88         34.4873
   418.02         34.5345
   418.16         34.6216
   418.30         34.7417
   418.44         34.8836
   418.58         35.0300
   418.72         35.1601
   418.86         35.2574
   419.00         35.3126
   419.14         35.3233
   419.28         35.2923
   419.42         35.2265
   419.56         35.1346
   419.70         35.0273
   419.84         34.9185
   419.98         34.8255
   420.12         34.7664
   420.26         34.7556
   420.40         34.7986
   420.54         34.8899
   420.68         35.0153
   420.82         35.1549
   420.96         35.2852
   421.10         35.3811
   421.24         35.4202
   421.38         35.3881
   421.52         35.2808
   421.66         35.1062
   421.80         34.8824
   421.94         34.6343
   422.08         34.3879
   422.22         34.1655
   422.36         33.9850
   422.50         33.8577
   422.64         33.7869
   422.78         33.7688
   422.92         33.7958
   423.06         33.8582
   423.20         33.9466
   423.34         34.0522
   423.48         34.1640
   423.62         34.2691
   423.76         34.3545
   423.90         34.4114
   424.04         34.4403
   424.18         34.4513
   424.32         34.4585
   424.46         34.4713
   424.60         34.4917
   424.74         34.5151
   424.88         34.5360
   425.02         34.5532
   425.16         34.5695
   425.30         34.5907
   425.44         34.6232
   425.58         34.6696
   425.72         34.7260
   425.86         34.7818
   426.00         34.8234
   426.14         34.8386
   426.28         34.8215
   426.42         34.7746
   426.56         34.7070
   426.70         34.6314
   426.84         34.5600
   426.98         34.5001
   427.12         34.4550
   427.26         34.4244
   427.40         34.4060
   427.54         34.3960
   427.68         34.3877
   427.82         34.3701
   427.96         34.3304
   428.10         34.2584
   428.24         34.1488
   428.38         34.0003
   428.52         33.8162
   428.66         33.6027
   428.80         33.3669
   428.94         33.1164
   429.08         32.8586
   429.22         32.5977
   429.36         32.3356
   429.50         32.0737
   429.64         31.8126
   429.78         31.5548
   429.92         31.3064
   430.06         31.0765
   430.20         30.8759
   430.34         30.7163
   430.48         30.6089
   430.62         30.5623
   430.76         30.5788
   430.90         30.6504
   431.04         30.7601
   431.18         30.8843
   431.32         30.9969
   431.46         31.0746
   431.60         31.1018
   431.74         31.0708
   431.88         30.9785
   432.02         30.8229
   432.16         30.6021
   432.30         30.3132
   432.44         29.9502
   432.58         29.5032
   432.72         28.9588
   432.86         28.3062
   433.00         27.5454
   433.14         26.6928
   433.28         25.7823
   433.42         24.8622
   433.56         23.9902
   433.70         23.2266
   433.84         22.6262
   433.98         22.2339
   434.12         22.0820
   434.26         22.1875
   434.40         22.5484
   434.54         23.1420
   434.68         23.9291
   434.82         24.8583
   434.96         25.8730
   435.10         26.9183
   435.24         27.9461
   435.38         28.9179
   435.52         29.8083
   435.66         30.6045
   435.80         31.3011
   435.94         31.8957
   436.08         32.3859
   436.22         32.7707
   436.36         33.0517
   436.50         33.2369
   436.64         33.3431
   436.78         33.3945
   436.92         33.4160
   437.06         33.4266
   437.20         33.4357
   437.34         33.4451
   437.48         33.4526
   437.62         33.4570
   437.76         33.4579
   437.90         33.4547
   438.04         33.4473
   438.18         33.4369
   438.32         33.4260
   438.46         33.4187
   438.60         33.4186
   438.74         33.4273
   438.88         33.4456
   439.02         33.4737
   439.16         33.5117
   439.30         33.5574
   439.44         33.6059
   439.58         33.6491
   439.72         33.6812
   439.86         33.7026
   440.00         33.7203
   440.14         33.7432
   440.28         33.7762
   440.42         33.8155
   440.56         33.8520
   440.70         33.8761
   440.84         33.8823
   440.98         33.8724
   441.12         33.8524
   441.26         33.8288
   441.40         33.8088
   441.54         33.7991
   441.68         33.8040
   441.82         33.8266
   441.96         33.8677
   442.10         33.9231
   442.24         33.9847
   442.38         34.0441
   442.52         34.0950
   442.66         34.1347
   442.80         34.1635
   442.94         34.1798
   443.08         34.1820
   443.22         34.1717
   443.36         34.1541
   443.50         34.1364
   443.64         34.1230
   443.78         34.1138
   443.92         34.1063
   444.06         34.0957
   444.20         34.0756
   444.34         34.0404
   444.48         33.9863
   444.62         33.9109
   444.76         33.8145
   444.90         33.7021
   445.04         33.5839
   445.18         33.4708
   445.32         33.3707
   445.46         33.2845
   445.60         33.2073
   445.74         33.1368
   445.88         33.0767
   446.02         33.0349
   446.16         33.0176
   446.30         33.0258
   446.44         33.0557
   446.58         33.1004
   446.72         33.1495
   446.86         33.1904
   447.00         33.2118
   447.14         33.2063
   447.28         33.1722
   447.42         33.1135
   447.56         33.0360
   447.70         32.9444
   447.84         32.8426
   447.98         32.7365
   448.12         32.6347
   448.26         32.5476
   448.40         32.4882
   448.54         32.4686
   448.68         32.4960
   448.82         32.5698
   448.96         32.6818
   449.10         32.8215
   449.24         32.9780
   449.38         33.1410
   449.52         33.3014
   449.66         33.4523
   449.80         33.5904
   449.94         33.7148
   450.08         33.8238
   450.22         33.9133
   450.36         33.9801
   450.50         34.0238
   450.64         34.0469
   450.78         34.0509
   450.92         34.0358
   451.06         34.0015
   451.20         33.9486
   451.34         33.8777
   451.48         33.7876
   451.62         33.6759
   451.76         33.5403
   451.90         33.3791
   452.04         33.1920
   452.18         32.9821
   452.32         32.7588
   452.46         32.5380
   452.60         32.3369
   452.74         32.1688
   452.88         32.0436
   453.02         31.9684
   453.16         31.9451
   453.30         31.9697
   453.44         32.0320
   453.58         32.1169
   453.72         32.2066
   453.86         32.2826
   454.00         32.3284
   454.14         32.3325
   454.28         32.2886
   454.42         32.1987
   454.56         32.0738
   454.70         31.9315
   454.84         31.7926
   454.98         31.6780
   455.12         31.6041
   455.26         31.5793
   455.40         31.6042
   455.54         31.6750
   455.68         31.7838
   455.82         31.9196
   455.96         32.0700
   456.10         32.2227
   456.24         32.3668
   456.38         32.4963
   456.52         32.6094
   456.66         32.7062
   456.80         32.7850
   456.94         32.8408
   457.08         32.8677
   457.22         32.8613
   457.36         32.8207
   457.50         32.7482
   457.64         32.6480
   457.78         32.5258
   457.92         32.3897
   458.06         32.2488
   458.20         32.1120
   458.34         31.9882
   458.48         31.8852
   458.62         31.8085
   458.76         31.7615
   458.90         31.7461
   459.04         31.7621
   459.18         31.8048
   459.32         31.8659
   459.46         31.9372
   459.60         32.0120
   459.74         32.0872
   459.88         32.1646
   460.02         32.2469
   460.16         32.3339
   460.30         32.4238
   460.44         32.5134
   460.58         32.5971
   460.72         32.6674
   460.86         32.7198
   461.00         32.7538
   461.14         32.7719
   461.28         32.7766
   461.42         32.7699
   461.56         32.7548
   461.70         32.7340
   461.84         32.7091
   461.98         32.6813
   462.12         32.6519
   462.26         32.6213
   462.40         32.5891
   462.54         32.5547
   462.68         32.5176
   462.82         32.4782
   462.96         32.4389
   463.10         32.4017
   463.24         32.3679
   463.38         32.3385
   463.52         32.3148
   463.66         32.2973
   463.80         32.2849
   463.94         32.2747
   464.08         32.2646
   464.22         32.2547
   464.36         32.2457
   464.50         32.2385
   464.64         32.2334
   464.78         32.2308
   464.92         32.2318
   465.06         32.2382
   465.20         32.2511
   465.34         32.2673
   465.48         32.2795
   465.62         32.2796
   465.76         32.2609
   465.90         32.2208
   466.04         32.1617
   466.18         32.0891
   466.32         32.0101
   466.46         31.9325
   466.60         31.8643
   466.74         31.8109
   466.88         31.7753
   467.02         31.7597
   467.16         31.7660
   467.30         31.7959
   467.44         31.8491
   467.58         31.9213
   467.72         32.0044
   467.86         32.0878
   468.00         32.1619
   468.14         32.2221
   468.28         32.2675
   468.42         32.2983
   468.56         32.3150
   468.70         32.3160
   468.84         32.2978
   468.98         32.2575
   469.12         32.1944
   469.26         32.1109
   469.40         32.0125
   469.54         31.9084
   469.68         31.8087
   469.82         31.7220
   469.96         31.6541
   470.10         31.6060
   470.24         31.5758
   470.38         31.5613
   470.52         31.5611
   470.66         31.5742
   470.80         31.5985
   470.94         31.6299
   471.08         31.6637
   471.22         31.6950
   471.36         31.7176
   471.50         31.7246
   471.64         31.7113
   471.78         31.6792
   471.92         31.6340
   472.06         31.5809
   472.20         31.5219
   472.34         31.4573
   472.48         31.3885
   472.62         31.3187
   472.76         31.2527
   472.90         31.1969
   473.04         31.1587
   473.18         31.1433
   473.32         31.1509
   473.46         31.1774
   473.60         31.2161
   473.74         31.2600
   473.88         31.3024
   474.02         31.3352
   474.16         31.3519
   474.30         31.3496
   474.44         31.3275
   474.58         31.2841
   474.72         31.2188
   474.86         31.1344
   475.00         31.0370
   475.14         30.9330
   475.28         30.8288
   475.42         30.7298
   475.56         30.6396
   475.70         30.5592
   475.84         30.4874
   475.98         30.4228
   476.12         30.3661
   476.26         30.3196
   476.40         30.2851
   476.54         30.2610
   476.68         30.2437
   476.82         30.2299
   476.96         30.2162
   477.10         30.1988
   477.24         30.1761
   477.38         30.1493
   477.52         30.1188
   477.66         30.0841
   477.80         30.0467
   477.94         30.0092
   478.08         29.9746
   478.22         29.9456
   478.36         29.9244
   478.50         29.9130
   478.64         29.9131
   478.78         29.9256
   478.92         29.9498
   479.06         29.9823
   479.20         30.0162
   479.34         30.0436
   479.48         30.0595
   479.62         30.0618
   479.76         30.0515
   479.90         30.0322
   480.04         30.0080
   480.18         29.9825
   480.32         29.9598
   480.46         29.9439
   480.60         29.9371
   480.74         29.9402
   480.88         29.9521
   481.02         29.9676
   481.16         29.9782
   481.30         29.9746
   481.44         29.9495
   481.58         29.8978
   481.72         29.8172
   481.86         29.7070
   482.00         29.5700
   482.14         29.4141
   482.28         29.2486
   482.42         29.0818
   482.56         28.9210
   482.70         28.7714
   482.84         28.6357
   482.98         28.5132
   483.12         28.3992
   483.26         28.2868
   483.40         28.1670
   483.54         28.0309
   483.68         27.8711
   483.82         27.6832
   483.96         27.4647
   484.10         27.2129
   484.24         26.9238
   484.38         26.5903
   484.52         26.2022
   484.66         25.7481
   484.80         25.2166
   484.94         24.5981
   485.08         23.8922
   485.22         23.1130
   485.36         22.2907
   485.50         21.4681
   485.64         20.6948
   485.78         20.0196
   485.92         19.4854
   486.06         19.1256
   486.20         18.9619
   486.34         19.0013
   486.48         19.2329
   486.62         19.6311
   486.76         20.1600
   486.90         20.7774
   487.04         21.4389
   487.18         22.1026
   487.32         22.7338
   487.46         23.3088
   487.60         23.8183
   487.74         24.2641
   487.88         24.6524
   488.02         24.9904
   488.16         25.2862
   488.30         25.5466
   488.44         25.7786
   488.58         25.9898
   488.72         26.1878
   488.86         26.3783
   489.00         26.5631
   489.14         26.7408
   489.28         26.9097
   489.42         27.0681
   489.56         27.2116
   489.70         27.3345
   489.84         27.4347
   489.98         27.5144
   490.12         27.5771
   490.26         27.6285
   490.40         27.6750
   490.54         27.7228
   490.68         27.7768
   490.82         27.8386
   490.96         27.9025
   491.10         27.9589
   491.24         27.9988
   491.38         28.0163
   491.52         28.0086
   491.66         27.9765
   491.80         27.9264
   491.94         27.8682
   492.08         27.8113
   492.22         27.7636
   492.36         27.7324
   492.50         27.7233
   492.64         27.7352
   492.78         27.7621
   492.92         27.7986
   493.06         27.8394
   493.20         27.8807
   493.34         27.9215
   493.48         27.9636
   493.62         28.0112
   493.76         28.0703
   493.90         28.1473
   494.04         28.2442
   494.18         28.3585
   494.32         28.4828
   494.46         28.6043
   494.60         28.7075
   494.74         28.7787
   494.88         28.8111
   495.02         28.8045
   495.16         28.7635
   495.30         28.6979
   495.44         28.6202
   495.58         28.5422
   495.72         28.4732
   495.86         28.4199
   496.00         28.3849
   496.14         28.3684
   496.28         28.3683
   496.42         28.3794
   496.56         28.3953
   496.70         28.4078
   496.84         28.4076
   496.98         28.3850
   497.12         28.3321
   497.26         28.2472
   497.40         28.1335
   497.54         27.9987
   497.68         27.8527
   497.82         27.7064
   497.96         27.5689
   498.10         27.4465
   498.24         27.3439
   498.38         27.2665
   498.52         27.2190
   498.66         27.2025
   498.80         27.2140
   498.94         27.2467
   499.08         27.2914
   499.22         27.3383
   499.36         27.3764
   499.50         27.3946
   499.64         27.3873
   499.78         27.3552
   499.92         27.3046
   500.06         27.2418
   500.20         27.1702
   500.34         27.0914
   500.48         27.0065
   500.62         26.9170
   500.76         26.8249
   500.90         26.7347
   501.04         26.6523
   501.18         26.5825
   501.32         26.5276
   501.46         26.4893
   501.60         26.4692
   501.74         26.4672
   501.88         26.4816
   502.02         26.5100
   502.16         26.5488
   502.30         26.5948
   502.44         26.6427
   502.58         26.6853
   502.72         26.7142
   502.86         26.7229
   503.00         26.7101
   503.14         26.6803
   503.28         26.6420
   503.42         26.6053
   503.56         26.5799
   503.70         26.5730
   503.84         26.5870
   503.98         26.6217
   504.12         26.6773
   504.26         26.7531
   504.40         26.8462
   504.54         26.9530
   504.68         27.0680
   504.82         27.1859
   504.96         27.3030
   505.10         27.4151
   505.24         27.5163
   505.38         27.5993
   505.52         27.6586
   505.66         27.6929
   505.80         27.7036
   505.94         27.6910
   506.08         27.6532
   506.22         27.5890
   506.36         27.4991
   506.50         27.3884
   506.64         27.2662
   506.78         27.1419
   506.92         27.0216
   507.06         26.9104
   507.20         26.8143
   507.34         26.7389
   507.48         26.6875
   507.62         26.6597
   507.76         26.6526
   507.90         26.6632
   508.04         26.6886
   508.18         26.7269
   508.32         26.7758
   508.46         26.8321
   508.60         26.8898
   508.74         26.9411
   508.88         26.9780
   509.02         26.9945
   509.16         26.9912
   509.30         26.9728
   509.44         26.9440
   509.58         26.9094
   509.72         26.8746
   509.86         26.8448
   510.00         26.8236
   510.14         26.8146
   510.28         26.8223
   510.42         26.8498
   510.56         26.8974
   510.70         26.9615
   510.84         27.0367
   510.98         27.1153
   511.12         27.1902
   511.26         27.2558
   511.40         27.3080
   511.54         27.3446
   511.68         27.3655
   511.82         27.3694
   511.96         27.3505
   512.10         27.3013
   512.24         27.2186
   512.38         27.1050
   512.52         26.9665
   512.66         26.8102
   512.80         26.6434
   512.94         26.4742
   513.08         26.3118
   513.22         26.1648
   513.36         26.0405
   513.50         25.9447
   513.64         25.8812
   513.78         25.8507
   513.92         25.8501
   514.06         25.8743
   514.20         25.9189
   514.34         25.9780
   514.48         26.0448
   514.62         26.1135
   514.76         26.1785
   514.90         26.2342
   515.04         26.2753
   515.18         26.2972
   515.32         26.2949
   515.46         26.2635
   515.60         26.1987
   515.74         26.0965
   515.88         25.9537
   516.02         25.7703
   516.16         25.5534
   516.30         25.3166
   516.44         25.0792
   516.58         24.8649
   516.72         24.6969
   516.86         24.5904
   517.00         24.5494
   517.14         24.5680
   517.28         24.6345
   517.42         24.7348
   517.56         24.8544
   517.70         24.9783
   517.84         25.0896
   517.98         25.1718
   518.12         25.2137
   518.26         25.2132
   518.40         25.1767
   518.54         25.1152
   518.68         25.0437
   518.82         24.9786
   518.96         24.9346
   519.10         24.9208
   519.24         24.9388
   519.38         24.9818
   519.52         25.0375
   519.66         25.0936
   519.80         25.1424
   519.94         25.1823
   520.08         25.2161
   520.22         25.2465
   520.36         25.2744
   520.50         25.2994
   520.64         25.3233
   520.78         25.3513
   520.92         25.3898
   521.06         25.4420
   521.20         25.5076
   521.34         25.5839
   521.48         25.6638
   521.62         25.7361
   521.76         25.7883
   521.90         25.8092
   522.04         25.7912
   522.18         25.7337
   522.32         25.6421
   522.46         25.5259
   522.60         25.3975
   522.74         25.2702
   522.88         25.1556
   523.02         25.0607
   523.16         24.9913
   523.30         24.9539
   523.44         24.9525
   523.58         24.9859
   523.72         25.0486
   523.86         25.1315
   524.00         25.2230
   524.14         25.3113
   524.28         25.3892
   524.42         25.4537
   524.56         25.5032
   524.70         25.5370
   524.84         25.5558
   524.98         25.5593
   525.12         25.5455
   525.26         25.5117
   525.40         25.4545
   525.54         25.3706
   525.68         25.2578
   525.82         25.1186
   525.96         24.9593
   526.10         24.7871
   526.24         24.6095
   526.38         24.4349
   526.52         24.2712
   526.66         24.1270
   526.80         24.0098
   526.94         23.9250
   527.08         23.8732
   527.22         23.8525
   527.36         23.8606
   527.50         23.8935
   527.64         23.9457
   527.78         24.0132
   527.92         24.0953
   528.06         24.1928
   528.20         24.3052
   528.34         24.4305
   528.48         24.5655
   528.62         24.7045
   528.76         24.8402
   528.90         24.9640
   529.04         25.0692
   529.18         25.1500
   529.32         25.2027
   529.46         25.2264
   529.60         25.2230
   529.74         25.1978
   529.88         25.1598
   530.02         25.1186
   530.16         25.0826
   530.30         25.0588
   530.44         25.0506
   530.58         25.0570
   530.72         25.0735
   530.86         25.0933
   531.00         25.1103
   531.14         25.1190
   531.28         25.1146
   531.42         25.0931
   531.56         25.0513
   531.70         24.9886
   531.84         24.9070
   531.98         24.8110
   532.12         24.7069
   532.26         24.6033
   532.40         24.5091
   532.54         24.4307
   532.68         24.3701
   532.82         24.3267
   532.96         24.2982
   533.10         24.2818
   533.24         24.2762
   533.38         24.2813
   533.52         24.2960
   533.66         24.3169
   533.80         24.3396
   533.94         24.3602
   534.08         24.3770
   534.22         24.3905
   534.36         24.4038
   534.50         24.4211
   534.64         24.4474
   534.78         24.4870
   534.92         24.5423
   535.06         24.6114
   535.20         24.6882
   535.34         24.7636
   535.48         24.8278
   535.62         24.8713
   535.76         24.8862
   535.90         24.8673
   536.04         24.8120
   536.18         24.7217
   536.32         24.6036
   536.46         24.4699
   536.60         24.3355
   536.74         24.2138
   536.88         24.1153
   537.02         24.0470
   537.16         24.0120
   537.30         24.0093
   537.44         24.0339
   537.58         24.0774
   537.72         24.1304
   537.86         24.1831
   538.00         24.2276
   538.14         24.2593
   538.28         24.2766
   538.42         24.2790
   538.56         24.2661
   538.70         24.2395
   538.84         24.2017
   538.98         24.1547
   539.12         24.0995
   539.26         24.0357
   539.40         23.9626
   539.54         23.8822
   539.68         23.7989
   539.82         23.7183
   539.96         23.6465
   540.10         23.5874
   540.24         23.5426
   540.38         23.5124
   540.52         23.4961
   540.66         23.4942
   540.80         23.5069
   540.94         23.5331
   541.08         23.5692
   541.22         23.6103
   541.36         23.6529
   541.50         23.6938
   541.64         23.7292
   541.78         23.7562
   541.92         23.7737
   542.06         23.7817
   542.20         23.7813
   542.34         23.7728
   542.48         23.7570
   542.62         23.7364
   542.76         23.7156
   542.90         23.7015
   543.04         23.7017
   543.18         23.7214
   543.32         23.7605
   543.46         23.8126
   543.60         23.8688
   543.74         23.9206
   543.88         23.9621
   544.02         23.9914
   544.16         24.0086
   544.30         24.0143
   544.44         24.0095
   544.58         23.9948
   544.72         23.9711
   544.86         23.9406
   545.00         23.9063
   545.14         23.8730
   545.28         23.8444
   545.42         23.8212
   545.56         23.8018
   545.70         23.7827
   545.84         23.7600
   545.98         23.7318
   546.12         23.6983
   546.26         23.6627
   546.40         23.6286
   546.54         23.5981
   546.68         23.5716
   546.82         23.5458
   546.96         23.5164
   547.10         23.4818
   547.24         23.4430
   547.38         23.4037
   547.52         23.3680
   547.66         23.3389
   547.80         23.3192
   547.94         23.3109
   548.08         23.3157
   548.22         23.3336
   548.36         23.3644
   548.50         23.4074
   548.64         23.4598
   548.78         23.5164
   548.92         23.5717
   549.06         23.6192
   549.20         23.6523
   549.34         23.6666
   549.48         23.6611
   549.62         23.6385
   549.76         23.6035
   549.90         23.5600
   550.04         23.5114
   550.18         23.4622
   550.32         23.4183
   550.46         23.3853
   550.60         23.3662
   550.74         23.3617
   550.88         23.3705
   551.02         23.3910
   551.16         23.4208
   551.30         23.4548
   551.44         23.4864
   551.58         23.5093
   551.72         23.5176
   551.86         23.5085
   552.00         23.4839
   552.14         23.4470
   552.28         23.4009
   552.42         23.3482
   552.56         23.2930
   552.70         23.2408
   552.84         23.1970
   552.98         23.1643
   553.12         23.1424
   553.26         23.1293
   553.40         23.1234
   553.54         23.1233
   553.68         23.1281
   553.82         23.1367
   553.96         23.1469
   554.10         23.1575
   554.24         23.1684
   554.38         23.1799
   554.52         23.1928
   554.66         23.2067
   554.80         23.2195
   554.94         23.2305
   555.08         23.2417
   555.22         23.2560
   555.36         23.2735
   555.50         23.2908
   555.64         23.3026
   555.78         23.3036
   555.92         23.2893
   556.06         23.2571
   556.20         23.2054
   556.34         23.1353
   556.48         23.0509
   556.62         22.9585
   556.76         22.8663
   556.90         22.7820
   557.04         22.7112
   557.18         22.6577
   557.32         22.6228
   557.46         22.6054
   557.60         22.6019
   557.74         22.6067
   557.88         22.6124
   558.02         22.6116
   558.16         22.5978
   558.30         22.5675
   558.44         22.5199
   558.58         22.4573
   558.72         22.3843
   558.86         22.3068
   559.00         22.2326
   559.14         22.1692
   559.28         22.1225
   559.42         22.0966
   559.56         22.0928
   559.70         22.1108
   559.84         22.1489
   559.98         22.2045
   560.12         22.2741
   560.26         22.3533
   560.40         22.4354
   560.54         22.5124
   560.68         22.5765
   560.82         22.6222
   560.96         22.6482
   561.10         22.6567
   561.24         22.6513
   561.38         22.6363
   561.52         22.6163
   561.66         22.5966
   561.80         22.5817
   561.94         22.5742
   562.08         22.5742
   562.22         22.5804
   562.36         22.5900
   562.50         22.5987
   562.64         22.6004
   562.78         22.5902
   562.92         22.5654
   563.06         22.5272
   563.20         22.4801
   563.34         22.4308
   563.48         22.3864
   563.62         22.3538
   563.76         22.3379
   563.90         22.3413
   564.04         22.3636
   564.18         22.4010
   564.32         22.4474
   564.46         22.4957
   564.60         22.5392
   564.74         22.5719
   564.88         22.5883
   565.02         22.5833
   565.16         22.5531
   565.30         22.4971
   565.44         22.4175
   565.58         22.3184
   565.72         22.2060
   565.86         22.0884
   566.00         21.9749
   566.14         21.8757
   566.28         21.7993
   566.42         21.7517
   566.56         21.7346
   566.70         21.7451
   566.84         21.7781
   566.98         21.8265
   567.12         21.8817
   567.26         21.9357
   567.40         21.9807
   567.54         22.0098
   567.68         22.0190
   567.82         22.0088
   567.96         21.9841
   568.10         21.9526
   568.24         21.9237
   568.38         21.9062
   568.52         21.9058
   568.66         21.9243
   568.80         21.9598
   568.94         22.0080
   569.08         22.0626
   569.22         22.1161
   569.36         22.1610
   569.50         22.1912
   569.64         22.2015
   569.78         22.1891
   569.92         22.1537
   570.06         22.0974
   570.20         22.0249
   570.34         21.9431
   570.48         21.8601
   570.62         21.7838
   570.76         21.7206
   570.90         21.6745
   571.04         21.6466
   571.18         21.6358
   571.32         21.6409
   571.46         21.6602
   571.60         21.6910
   571.74         21.7296
   571.88         21.7710
   572.02         21.8100
   572.16         21.8417
   572.30         21.8632
   572.44         21.8738
   572.58         21.8743
   572.72         21.8664
   572.86         21.8525
   573.00         21.8347
   573.14         21.8153
   573.28         21.7967
   573.42         21.7800
   573.56         21.7647
   573.70         21.7496
   573.84         21.7345
   573.98         21.7206
   574.12         21.7079
   574.26         21.6950
   574.40         21.6799
   574.54         21.6613
   574.68         21.6379
   574.82         21.6099
   574.96         21.5786
   575.10         21.5451
   575.24         21.5114
   575.38         21.4811
   575.52         21.4581
   575.66         21.4460
   575.80         21.4467
   575.94         21.4601
   576.08         21.4845
   576.22         21.5172
   576.36         21.5551
   576.50         21.5946
   576.64         21.6319
   576.78         21.6631
   576.92         21.6851
   577.06         21.6962
   577.20         21.6943
   577.34         21.6778
   577.48         21.6480
   577.62         21.6084
   577.76         21.5640
   577.90         21.5192
   578.04         21.4766
   578.18         21.4366
   578.32         21.3990
   578.46         21.3630
   578.60         21.3288
   578.74         21.2976
   578.88         21.2710
   579.02         21.2501
   579.16         21.2359
   579.30         21.2302
   579.44         21.2344
   579.58         21.2486
   579.72         21.2705
   579.86         21.2953
   580.00         21.3180
   580.14         21.3338
   580.28         21.3380
   580.42         21.3269
   580.56         21.2989
   580.70         21.2553
   580.84         21.2014
   580.98         21.1450
   581.12         21.0957
   581.26         21.0625
   581.40         21.0529
   581.54         21.0703
   581.68         21.1136
   581.82         21.1783
   581.96         21.2562
   582.10         21.3364
   582.24         21.4081
   582.38         21.4634
   582.52         21.4977
   582.66         21.5112
   582.80         21.5068
   582.94         21.4885
   583.08         21.4609
   583.22         21.4291
   583.36         21.3975
   583.50         21.3701
   583.64         21.3502
   583.78         21.3384
   583.92         21.3317
   584.06         21.3248
   584.20         21.3135
   584.34         21.2953
   584.48         21.2681
   584.62         21.2304
   584.76         21.1818
   584.90         21.1234
   585.04         21.0570
   585.18         20.9835
   585.32         20.9045
   585.46         20.8237
   585.60         20.7461
   585.74         20.6787
   585.88         20.6287
   586.02         20.5999
   586.16         20.5928
   586.30         20.6038
   586.44         20.6270
   586.58         20.6575
   586.72         20.6950
   586.86         20.7411
   587.00         20.7951
   587.14         20.8521
   587.28         20.9057
   587.42         20.9506
   587.56         20.9817
   587.70         20.9924
   587.84         20.9748
   587.98         20.9219
   588.12         20.8290
   588.26         20.6944
   588.40         20.5198
   588.54         20.3100
   588.68         20.0729
   588.82         19.8226
   588.96         19.5786
   589.10         19.3633
   589.24         19.1961
   589.38         19.0915
   589.52         19.0558
   589.66         19.0867
   589.80         19.1765
   589.94         19.3148
   590.08         19.4886
   590.22         19.6821
   590.36         19.8786
   590.50         20.0636
   590.64         20.2270
   590.78         20.3622
   590.92         20.4653
   591.06         20.5342
   591.20         20.5691
   591.34         20.5747
   591.48         20.5590
   591.62         20.5297
   591.76         20.4917
   591.90         20.4480
   592.04         20.4015
   592.18         20.3543
   592.32         20.3081
   592.46         20.2647
   592.60         20.2245
   592.74         20.1870
   592.88         20.1515
   593.02         20.1171
   593.16         20.0837
   593.30         20.0516
   593.44         20.0208
   593.58         19.9917
   593.72         19.9648
   593.86         19.9412
   594.00         19.9223
   594.14         19.9082
   594.28         19.8969
   594.42         19.8859
   594.56         19.8735
   594.70         19.8597
   594.84         19.8453
   594.98         19.8311
   595.12         19.8172
   595.26         19.8036
   595.40         19.7900
   595.54         19.7764
   595.68         19.7628
   595.82         19.7491
   595.96         19.7355
   596.10         19.7218
   596.24         19.7081
   596.38         19.6944
   596.52         19.6807
   596.66         19.6669
   596.80         19.6531
   596.94         19.6393
   597.08         19.6256
   597.22         19.6119
   597.36         19.5981
   597.50         19.5844
   597.64         19.5707
   597.78         19.5569
   597.92         19.5431
   598.06         19.5293
   598.20         19.5155
   598.34         19.5016
   598.48         19.4878
   598.62         19.4740
   598.76         19.4599
   598.90         19.4436
   599.04         19.4232
   599.18         19.3965
   599.32         19.3620
   599.46         19.3194
   599.60         19.2716
   599.74         19.2248
   599.88         19.1842
   600.02         19.1523
   600.16         19.1295
   600.30         19.1150
   600.44         19.1070
   600.58         19.1041
   600.72         19.1047
   600.86         19.1064
   601.00         19.1063
   601.14         19.1013
   601.28         19.0888
   601.42         19.0680
   601.56         19.0395
   601.70         19.0055
   601.84         18.9700
   601.98         18.9374
   602.12         18.9118
   602.26         18.8950
   602.40         18.8859
   602.54         18.8800
   602.68         18.8718
   602.82         18.8573
   602.96         18.8334
   603.10         18.7984
   603.24         18.7519
   603.38         18.6950
   603.52         18.6308
   603.66         18.5645
   603.80         18.5040
   603.94         18.4598
   604.08         18.4416
   604.22         18.4551
   604.36         18.5020
   604.50         18.5800
   604.64         18.6833
   604.78         18.8033
   604.92         18.9303
   605.06         19.0547
   605.20         19.1669
   605.34         19.2588
   605.48         19.3267
   605.62         19.3719
   605.76         19.3991
   605.90         19.4147
   606.04         19.4259
   606.18         19.4390
   606.32         19.4585
   606.46         19.4869
   606.60         19.5244
   606.74         19.5676
   606.88         19.6111
   607.02         19.6490
   607.16         19.6761
   607.30         19.6888
   607.44         19.6856
   607.58         19.6668
   607.72         19.6346
   607.86         19.5932
   608.00         19.5487
   608.14         19.5064
   608.28         19.4679
   608.42         19.4320
   608.56         19.3987
   608.70         19.3688
   608.84         19.3401
   608.98         19.3092
   609.12         19.2726
   609.26         19.2276
   609.40         19.1735
   609.54         19.1112
   609.68         19.0435
   609.82         18.9753
   609.96         18.9127
   610.10         18.8613
   610.24         18.8244
   610.38         18.8029
   610.52         18.7970
   610.66         18.8052
   610.80         18.8245
   610.94         18.8511
   611.08         18.8834
   611.22         18.9191
   611.36         18.9525
   611.50         18.9779
   611.64         18.9919
   611.78         18.9941
   611.92         18.9863
   612.06         18.9719
   612.20         18.9537
   612.34         18.9342
   612.48         18.9151
   612.62         18.8968
   612.76         18.8784
   612.90         18.8590
   613.04         18.8374
   613.18         18.8134
   613.32         18.7867
   613.46         18.7571
   613.60         18.7248
   613.74         18.6909
   613.88         18.6574
   614.02         18.6269
   614.16         18.6021
   614.30         18.5857
   614.44         18.5816
   614.58         18.5930
   614.72         18.6200
   614.86         18.6604
   615.00         18.7099
   615.14         18.7626
   615.28         18.8113
   615.42         18.8512
   615.56         18.8804
   615.70         18.8997
   615.84         18.9097
   615.98         18.9115
   616.12         18.9059
   616.26         18.8928
   616.40         18.8724
   616.54         18.8456
   616.68         18.8134
   616.82         18.7783
   616.96         18.7445
   617.10         18.7156
   617.24         18.6924
   617.38         18.6739
   617.52         18.6594
   617.66         18.6470
   617.80         18.6348
   617.94         18.6216
   618.08         18.6082
   618.22         18.5956
   618.36         18.5830
   618.50         18.5699
   618.64         18.5568
   618.78         18.5454
   618.92         18.5379
   619.06         18.5375
   619.20         18.5467
   619.34         18.5668
   619.48         18.5979
   619.62         18.6387
   619.76         18.6853
   619.90         18.7321
   620.04         18.7733
   620.18         18.8039
   620.32         18.8212
   620.46         18.8253
   620.60         18.8196
   620.74         18.8083
   620.88         18.7897
   621.02         18.7585
   621.16         18.7124
   621.30         18.6519
   621.44         18.5807
   621.58         18.5048
   621.72         18.4292
   621.86         18.3569
   622.00         18.2905
   622.14         18.2321
   622.28         18.1825
   622.42         18.1415
   622.56         18.1087
   622.70         18.0830
   622.84         18.0643
   622.98         18.0531
   623.12         18.0495
   623.26         18.0515
   623.40         18.0545
   623.54         18.0519
   623.68         18.0433
   623.82         18.0333
   623.96         18.0251
   624.10         18.0205
   624.24         18.0197
   624.38         18.0234
   624.52         18.0332
   624.66         18.0505
   624.80         18.0765
   624.94         18.1115
   625.08         18.1544
   625.22         18.2032
   625.36         18.2553
   625.50         18.3086
   625.64         18.3616
   625.78         18.4111
   625.92         18.4519
   626.06         18.4789
   626.20         18.4900
   626.34         18.4859
   626.48         18.4675
   626.62         18.4344
   626.76         18.3856
   626.90         18.3213
   627.04         18.2437
   627.18         18.1559
   627.32         18.0625
   627.46         17.9701
   627.60         17.8845
   627.74         17.8110
   627.88         17.7549
   628.02         17.7209
   628.16         17.7110
   628.30         17.7234
   628.44         17.7527
   628.58         17.7916
   628.72         17.8326
   628.86         17.8696
   629.00         17.8975
   629.14         17.9138
   629.28         17.9184
   629.42         17.9132
   629.56         17.9020
   629.70         17.8891
   629.84         17.8787
   629.98         17.8733
   630.12         17.8737
   630.26         17.8786
   630.40         17.8854
   630.54         17.8915
   630.68         17.8934
   630.82         17.8876
   630.96         17.8721
   631.10         17.8464
   631.24         17.8131
   631.38         17.7769
   631.52         17.7438
   631.66         17.7187
   631.80         17.7047
   631.94         17.7030
   632.08         17.7129
   632.22         17.7325
   632.36         17.7597
   632.50         17.7912
   632.64         17.8231
   632.78         17.8509
   632.92         17.8719
   633.06         17.8853
   633.20         17.8912
   633.34         17.8898
   633.48         17.8812
   633.62         17.8658
   633.76         17.8451
   633.90         17.8223
   634.04         17.8003
   634.18         17.7809
   634.32         17.7661
   634.46         17.7583
   634.60         17.7580
   634.74         17.7636
   634.88         17.7737
   635.02         17.7867
   635.16         17.7999
   635.30         17.8111
   635.44         17.8193
   635.58         17.8241
   635.72         17.8240
   635.86         17.8181
   636.00         17.8054
   636.14         17.7854
   636.28         17.7593
   636.42         17.7298
   636.56         17.6997
   636.70         17.6712
   636.84         17.6455
   636.98         17.6233
   637.12         17.6035
   637.26         17.5845
   637.40         17.5657
   637.54         17.5492
   637.68         17.5373
   637.82         17.5326
   637.96         17.5384
   638.10         17.5562
   638.24         17.5852
   638.38         17.6225
   638.52         17.6629
   638.66         17.7003
   638.80         17.7299
   638.94         17.7486
   639.08         17.7537
   639.22         17.7435
   639.36         17.7179
   639.50         17.6782
   639.64         17.6272
   639.78         17.5690
   639.92         17.5096
   640.06         17.4555
   640.20         17.4123
   640.34         17.3836
   640.48         17.3708
   640.62         17.3734
   640.76         17.3891
   640.90         17.4131
   641.04         17.4395
   641.18         17.4637
   641.32         17.4821
   641.46         17.4928
   641.60         17.4957
   641.74         17.4915
   641.88         17.4815
   642.02         17.4666
   642.16         17.4470
   642.30         17.4224
   642.44         17.3940
   642.58         17.3648
   642.72         17.3367
   642.86         17.3110
   643.00         17.2907
   643.14         17.2785
   643.28         17.2752
   643.42         17.2793
   643.56         17.2887
   643.70         17.3010
   643.84         17.3124
   643.98         17.3185
   644.12         17.3165
   644.26         17.3048
   644.40         17.2815
   644.54         17.2454
   644.68         17.1970
   644.82         17.1382
   644.96         17.0736
   645.10         17.0098
   645.24         16.9524
   645.38         16.9057
   645.52         16.8740
   645.66         16.8606
   645.80         16.8640
   645.94         16.8801
   646.08         16.9043
   646.22         16.9326
   646.36         16.9617
   646.50         16.9895
   646.64         17.0156
   646.78         17.0403
   646.92         17.0640
   647.06         17.0870
   647.20         17.1100
   647.34         17.1328
   647.48         17.1538
   647.62         17.1722
   647.76         17.1880
   647.90         17.2009
   648.04         17.2093
   648.18         17.2112
   648.32         17.2025
   648.46         17.1790
   648.60         17.1385
   648.74         17.0823
   648.88         17.0154
   649.02         16.9455
   649.16         16.8811
   649.30         16.8299
   649.44         16.7970
   649.58         16.7845
   649.72         16.7919
   649.86         16.8172
   650.00         16.8574
   650.14         16.9091
   650.28         16.9689
   650.42         17.0324
   650.56         17.0933
   650.70         17.1468
   650.84         17.1902
   650.98         17.2238
   651.12         17.2514
   651.26         17.2786
   651.40         17.3111
   651.54         17.3521
   651.68         17.4007
   651.82         17.4520
   651.96         17.4988
   652.10         17.5337
   652.24         17.5510
   652.38         17.5475
   652.52         17.5229
   652.66         17.4779
   652.80         17.4139
   652.94         17.3336
   653.08         17.2414
   653.22         17.1424
   653.36         17.0418
   653.50         16.9432
   653.64         16.8482
   653.78         16.7558
   653.92         16.6631
   654.06         16.5666
   654.20         16.4615
   654.34         16.3427
   654.48         16.2046
   654.62         16.0413
   654.76         15.8463
   654.90         15.6132
   655.04         15.3361
   655.18         15.0121
   655.32         14.6435
   655.46         14.2399
   655.60         13.8197
   655.74         13.4079
   655.88         13.0319
   656.02         12.7188
   656.16         12.4930
   656.30         12.3733
   656.44         12.3698
   656.58         12.4829
   656.72         12.7020
   656.86         13.0071
   657.00         13.3728
   657.14         13.7706
   657.28         14.1724
   657.42         14.5538
   657.56         14.8960
   657.70         15.1879
   657.84         15.4274
   657.98         15.6184
   658.12         15.7676
   658.26         15.8817
   658.40         15.9675
   658.54         16.0307
   658.68         16.0759
   658.82         16.1074
   658.96         16.1291
   659.10         16.1438
   659.24         16.1543
   659.38         16.1631
   659.52         16.1723
   659.66         16.1837
   659.80         16.1982
   659.94         16.2173
   660.08         16.2414
   660.22         16.2698
   660.36         16.3012
   660.50         16.3330
   660.64         16.3620
   660.78         16.3852
   660.92         16.4011
   661.06         16.4103
   661.20         16.4143
   661.34         16.4148
   661.48         16.4149
   661.62         16.4162
   661.76         16.4179
   661.90         16.4180
   662.04         16.4158
   662.18         16.4126
   662.32         16.4111
   662.46         16.4137
   662.60         16.4215
   662.74         16.4340
   662.88         16.4501
   663.02         16.4692
   663.16         16.4898
   663.30         16.5109
   663.44         16.5321
   663.58         16.5533
   663.72         16.5739
   663.86         16.5926
   664.00         16.6080
   664.14         16.6176
   664.28         16.6175
   664.42         16.6057
   664.56         16.5828
   664.70         16.5508
   664.84         16.5119
   664.98         16.4683
   665.12         16.4223
   665.26         16.3770
   665.40         16.3343
   665.54         16.2960
   665.68         16.2631
   665.82         16.2368
   665.96         16.2190
   666.10         16.2108
   666.24         16.2093
   666.38         16.2100
   666.52         16.2092
   666.66         16.2043
   666.80         16.1934
   666.94         16.1756
   667.08         16.1530
   667.22         16.1289
   667.36         16.1063
   667.50         16.0872
   667.64         16.0723
   667.78         16.0597
   667.92         16.0474
   668.06         16.0328
   668.20         16.0151
   668.34         15.9956
   668.48         15.9762
   668.62         15.9585
   668.76         15.9432
   668.90         15.9310
   669.04         15.9238
   669.18         15.9250
   669.32         15.9370
   669.46         15.9596
   669.60         15.9899
   669.74         16.0241
   669.88         16.0570
   670.02         16.0819
   670.16         16.0929
   670.30         16.0864
   670.44         16.0626
   670.58         16.0243
   670.72         15.9749
   670.86         15.9180
   671.00         15.8582
   671.14         15.8002
   671.28         15.7476
   671.42         15.7029
   671.56         15.6674
   671.70         15.6412
   671.84         15.6246
   671.98         15.6176
   672.12         15.6187
   672.26         15.6264
   672.40         15.6394
   672.54         15.6561
   672.68         15.6745
   672.82         15.6938
   672.96         15.7137
   673.10         15.7323
   673.24         15.7458
   673.38         15.7516
   673.52         15.7494
   673.66         15.7399
   673.80         15.7236
   673.94         15.7009
   674.08         15.6726
   674.22         15.6408
   674.36         15.6078
   674.50         15.5767
   674.64         15.5500
   674.78         15.5280
   674.92         15.5107
   675.06         15.4990
   675.20         15.4936
   675.34         15.4952
   675.48         15.5033
   675.62         15.5156
   675.76         15.5299
   675.90         15.5455
   676.04         15.5624
   676.18         15.5792
   676.32         15.5940
   676.46         15.6051
   676.60         15.6112
   676.74         15.6102
   676.88         15.6008
   677.02         15.5831
   677.16         15.5583
   677.30         15.5282
   677.44         15.4956
   677.58         15.4640
   677.72         15.4368
   677.86         15.4159
   678.00         15.4023
   678.14         15.3965
   678.28         15.3982
   678.42         15.4061
   678.56         15.4186
   678.70         15.4348
   678.84         15.4555
   678.98         15.4807
   679.12         15.5086
   679.26         15.5361
   679.40         15.5598
   679.54         15.5772
   679.68         15.5862
   679.82         15.5859
   679.96         15.5768
   680.10         15.5606
   680.24         15.5395
   680.38         15.5156
   680.52         15.4904
   680.66         15.4646
   680.80         15.4389
   680.94         15.4141
   681.08         15.3919
   681.22         15.3737
   681.36         15.3598
   681.50         15.3482
   681.64         15.3348
   681.78         15.3162
   681.92         15.2919
   682.06         15.2628
   682.20         15.2315
   682.34         15.2015
   682.48         15.1755
   682.62         15.1546
   682.76         15.1382
   682.90         15.1246
   683.04         15.1109
   683.18         15.0937
   683.32         15.0714
   683.46         15.0441
   683.60         15.0115
   683.74         14.9721
   683.88         14.9254
   684.02         14.8724
   684.16         14.8144
   684.30         14.7541
   684.44         14.6953
   684.58         14.6422
   684.72         14.5987
   684.86         14.5675
   685.00         14.5484
   685.14         14.5400
   685.28         14.5395
   685.42         14.5421
   685.56         14.5377
   685.70         14.5104
   685.84         14.4424
   685.98         14.3205
   686.12         14.1376
   686.26         13.8935
   686.40         13.5960
   686.54         13.2603
   686.68         12.9075
   686.82         12.5623
   686.96         12.2510
   687.10         11.9987
   687.24         11.8246
   687.38         11.7392
   687.52         11.7427
   687.66         11.8270
   687.80         11.9758
   687.94         12.1655
   688.08         12.3686
   688.22         12.5584
   688.36         12.7154
   688.50         12.8308
   688.64         12.9055
   688.78         12.9467
   688.92         12.9636
   689.06         12.9661
   689.20         12.9640
   689.34         12.9661
   689.48         12.9785
   689.62         13.0048
   689.76         13.0452
   689.90         13.0980
   690.04         13.1608
   690.18         13.2309
   690.32         13.3054
   690.46         13.3809
   690.60         13.4552
   690.74         13.5274
   690.88         13.5978
   691.02         13.6681
   691.16         13.7394
   691.30         13.8126
   691.44         13.8872
   691.58         13.9610
   691.72         14.0310
   691.86         14.0948
   692.00         14.1517
   692.14         14.2024
   692.28         14.2479
   692.42         14.2884
   692.56         14.3235
   692.70         14.3515
   692.84         14.3700
   692.98         14.3776
   693.12         14.3755
   693.26         14.3670
   693.40         14.3547
   693.54         14.3410
   693.68         14.3270
   693.82         14.3128
   693.96         14.2992
   694.10         14.2876
   694.24         14.2793
   694.38         14.2748
   694.52         14.2737
   694.66         14.2751
   694.80         14.2773
   694.94         14.2780
   695.08         14.2754
   695.22         14.2695
   695.36         14.2616
   695.50         14.2544
   695.64         14.2516
   695.78         14.2573
   695.92         14.2734
   696.06         14.2995
   696.20         14.3356
   696.34         14.3819
   696.48         14.4393
   696.62         14.5073
   696.76         14.5822
   696.90         14.6585
   697.04         14.7303
   697.18         14.7925
   697.32         14.8412
   697.46         14.8722
   697.60         14.8823
   697.74         14.8709
   697.88         14.8403
   698.02         14.7946
   698.16         14.7379
   698.30         14.6753
   698.44         14.6123
   698.58         14.5546
   698.72         14.5079
   698.86         14.4753
   699.00         14.4570
   699.14         14.4495
   699.28         14.4468
   699.42         14.4430
   699.56         14.4340
   699.70         14.4168
   699.84         14.3888
   699.98         14.3488
   700.12         14.2985
   700.26         14.2428
   700.40         14.1865
   700.54         14.1336
   700.68         14.0859
   700.82         14.0450
   700.96         14.0126
   701.10         13.9893
   701.24         13.9741
   701.38         13.9646
   701.52         13.9578
   701.66         13.9517
   701.80         13.9469
   701.94         13.9452
   702.08         13.9487
   702.22         13.9589
   702.36         13.9760
   702.50         13.9996
   702.64         14.0282
   702.78         14.0589
   702.92         14.0877
   703.06         14.1112
   703.20         14.1276
   703.34         14.1358
   703.48         14.1357
   703.62         14.1275
   703.76         14.1124
   703.90         14.0924
   704.04         14.0687
   704.18         14.0425
   704.32         14.0154
   704.46         13.9891
   704.60         13.9638
   704.74         13.9384
   704.88         13.9128
   705.02         13.8883
   705.16         13.8667
   705.30         13.8483
   705.44         13.8327
   705.58         13.8201
   705.72         13.8111
   705.86         13.8057
   706.00         13.8054
   706.14         13.8131
   706.28         13.8306
   706.42         13.8572
   706.56         13.8912
   706.70         13.9313
   706.84         13.9766
   706.98         14.0257
   707.12         14.0769
   707.26         14.1273
   707.40         14.1751
   707.54         14.2199
   707.68         14.2601
   707.82         14.2927
   707.96         14.3151
   708.10         14.3261
   708.24         14.3262
   708.38         14.3167
   708.52         14.2993
   708.66         14.2756
   708.80         14.2463
   708.94         14.2110
   709.08         14.1699
   709.22         14.1263
   709.36         14.0845
   709.50         14.0476
   709.64         14.0180
   709.78         13.9972
   709.92         13.9844
   710.06         13.9771
   710.20         13.9720
   710.34         13.9656
   710.48         13.9573
   710.62         13.9488
   710.76         13.9410
   710.90         13.9335
   711.04         13.9262
   711.18         13.9197
   711.32         13.9156
   711.46         13.9158
   711.60         13.9211
   711.74         13.9318
   711.88         13.9478
   712.02         13.9681
   712.16         13.9917
   712.30         14.0185
   712.44         14.0479
   712.58         14.0790
   712.72         14.1115
   712.86         14.1457
   713.00         14.1808
   713.14         14.2150
   713.28         14.2452
   713.42         14.2663
   713.56         14.2729
   713.70         14.2629
   713.84         14.2372
   713.98         14.1982
   714.12         14.1484
   714.26         14.0913
   714.40         14.0324
   714.54         13.9779
   714.68         13.9343
   714.82         13.9072
   714.96         13.8982
   715.10         13.9045
   715.24         13.9202
   715.38         13.9387
   715.52         13.9526
   715.66         13.9551
   715.80         13.9429
   715.94         13.9156
   716.08         13.8739
   716.22         13.8197
   716.36         13.7569
   716.50         13.6909
   716.64         13.6282
   716.78         13.5767
   716.92         13.5428
   717.06         13.5284
   717.20         13.5302
   717.34         13.5401
   717.48         13.5481
   717.62         13.5449
   717.76         13.5245
   717.90         13.4836
   718.04         13.4215
   718.18         13.3406
   718.32         13.2469
   718.46         13.1488
   718.60         13.0545
   718.74         12.9691
   718.88         12.8956
   719.02         12.8362
   719.16         12.7941
   719.30         12.7716
   719.44         12.7673
   719.58         12.7758
   719.72         12.7918
   719.86         12.8122
   720.00         12.8374
   720.14         12.8713
   720.28         12.9191
   720.42         12.9829
   720.56         13.0611
   720.70         13.1509
   720.84         13.2496
   720.98         13.3557
   721.12         13.4666
   721.26         13.5764
   721.40         13.6781
   721.54         13.7653
   721.68         13.8341
   721.82         13.8824
   721.96         13.9086
   722.10         13.9112
   722.24         13.8905
   722.38         13.8500
   722.52         13.7958
   722.66         13.7364
   722.80         13.6783
   722.94         13.6241
   723.08         13.5729
   723.22         13.5240
   723.36         13.4777
   723.50         13.4343
   723.64         13.3930
   723.78         13.3503
   723.92         13.3014
   724.06         13.2426
   724.20         13.1707
   724.34         13.0852
   724.48         12.9903
   724.62         12.8931
   724.76         12.8012
   724.90         12.7222
   725.04         12.6628
   725.18         12.6268
   725.32         12.6125
   725.46         12.6145
   725.60         12.6291
   725.74         12.6559
   725.88         12.6960
   726.02         12.7485
   726.16         12.8097
   726.30         12.8753
   726.44         12.9410
   726.58         13.0022
   726.72         13.0554
   726.86         13.0998
   727.00         13.1365
   727.14         13.1666
   727.28         13.1891
   727.42         13.2016
   727.56         13.2025
   727.70         13.1901
   727.84         13.1621
   727.98         13.1180
   728.12         13.0606
   728.26         12.9953
   728.40         12.9267
   728.54         12.8582
   728.68         12.7938
   728.82         12.7397
   728.96         12.7024
   729.10         12.6852
   729.24         12.6872
   729.38         12.7064
   729.52         12.7392
   729.66         12.7804
   729.80         12.8236
   729.94         12.8615
   730.08         12.8887
   730.22         12.9026
   730.36         12.9023
   730.50         12.8883
   730.64         12.8635
   730.78         12.8328
   730.92         12.8010
   731.06         12.7721
   731.20         12.7489
   731.34         12.7327
   731.48         12.7226
   731.62         12.7148
   731.76         12.7035
   731.90         12.6837
   732.04         12.6526
   732.18         12.6096
   732.32         12.5549
   732.46         12.4907
   732.60         12.4224
   732.74         12.3572
   732.88         12.3011
   733.02         12.2582
   733.16         12.2308
   733.30         12.2203
   733.44         12.2261
   733.58         12.2444
   733.72         12.2697
   733.86         12.2952
   734.00         12.3149
   734.14         12.3252
   734.28         12.3240
   734.42         12.3105
   734.56         12.2857
   734.70         12.2529
   734.84         12.2171
   734.98         12.1835
   735.12         12.1566
   735.26         12.1391
   735.40         12.1310
   735.54         12.1307
   735.68         12.1352
   735.82         12.1407
   735.96         12.1441
   736.10         12.1443
   736.24         12.1418
   736.38         12.1386
   736.52         12.1371
   736.66         12.1400
   736.80         12.1487
   736.94         12.1635
   737.08         12.1836
   737.22         12.2074
   737.36         12.2332
   737.50         12.2589
   737.64         12.2819
   737.78         12.2993
   737.92         12.3098
   738.06         12.3131
   738.20         12.3109
   738.34         12.3053
   738.48         12.2983
   738.62         12.2909
   738.76         12.2832
   738.90         12.2759
   739.04         12.2707
   739.18         12.2703
   739.32         12.2772
   739.46         12.2929
   739.60         12.3178
   739.74         12.3493
   739.88         12.3832
   740.02         12.4151
   740.16         12.4421
   740.30         12.4623
   740.44         12.4749
   740.58         12.4797
   740.72         12.4778
   740.86         12.4709
   741.00         12.4608
   741.14         12.4489
   741.28         12.4370
   741.42         12.4266
   741.56         12.4192
   741.70         12.4155
   741.84         12.4130
   741.98         12.4082
   742.12         12.3997
   742.26         12.3871
   742.40         12.3714
   742.54         12.3550
   742.68         12.3414
   742.82         12.3337
   742.96         12.3337
   743.10         12.3414
   743.24         12.3550
   743.38         12.3714
   743.52         12.3871
   743.66         12.3997
   743.80         12.4082
   743.94         12.4130
   744.08         12.4155
   744.22         12.4192
