# File HD23511
# Wavelength [nm]    Normalized Amplitude
   349.70         6.5352
   349.84         6.5328
   349.98         6.5371
   350.12         6.5461
   350.26         6.5586
   350.40         6.5737
   350.54         6.5900
   350.68         6.6053
   350.82         6.6177
   350.96         6.6257
   351.10         6.6284
   351.24         6.6257
   351.38         6.6177
   351.52         6.6053
   351.66         6.5900
   351.80         6.5737
   351.94         6.5586
   352.08         6.5461
   352.22         6.5371
   352.36         6.5328
   352.50         6.5352
   352.64         6.5464
   352.78         6.5677
   352.92         6.5989
   353.06         6.6372
   353.20         6.6788
   353.34         6.7196
   353.48         6.7559
   353.62         6.7853
   353.76         6.8065
   353.90         6.8196
   354.04         6.8249
   354.18         6.8225
   354.32         6.8123
   354.46         6.7948
   354.60         6.7711
   354.74         6.7424
   354.88         6.7115
   355.02         6.6821
   355.16         6.6568
   355.30         6.6351
   355.44         6.6148
   355.58         6.5928
   355.72         6.5662
   355.86         6.5327
   356.00         6.4909
   356.14         6.4406
   356.28         6.3830
   356.42         6.3207
   356.56         6.2559
   356.70         6.1901
   356.84         6.1250
   356.98         6.0630
   357.12         6.0065
   357.26         5.9556
   357.40         5.9093
   357.54         5.8655
   357.68         5.8224
   357.82         5.7788
   357.96         5.7359
   358.10         5.6987
   358.24         5.6734
   358.38         5.6654
   358.52         5.6789
   358.66         5.7160
   358.80         5.7775
   358.94         5.8607
   359.08         5.9595
   359.22         6.0643
   359.36         6.1648
   359.50         6.2520
   359.64         6.3184
   359.78         6.3592
   359.92         6.3727
   360.06         6.3602
   360.20         6.3261
   360.34         6.2769
   360.48         6.2199
   360.62         6.1617
   360.76         6.1067
   360.90         6.0571
   361.04         6.0142
   361.18         5.9795
   361.32         5.9555
   361.46         5.9454
   361.60         5.9506
   361.74         5.9704
   361.88         6.0024
   362.02         6.0423
   362.16         6.0855
   362.30         6.1269
   362.44         6.1627
   362.58         6.1907
   362.72         6.2099
   362.86         6.2209
   363.00         6.2259
   363.14         6.2274
   363.28         6.2279
   363.42         6.2310
   363.56         6.2405
   363.70         6.2593
   363.84         6.2883
   363.98         6.3273
   364.12         6.3741
   364.26         6.4255
   364.40         6.4778
   364.54         6.5288
   364.68         6.5784
   364.82         6.6287
   364.96         6.6832
   365.10         6.7449
   365.24         6.8143
   365.38         6.8895
   365.52         6.9664
   365.66         7.0391
   365.80         7.1019
   365.94         7.1502
   366.08         7.1816
   366.22         7.1952
   366.36         7.1914
   366.50         7.1724
   366.64         7.1406
   366.78         7.0984
   366.92         7.0481
   367.06         6.9936
   367.20         6.9400
   367.34         6.8918
   367.48         6.8513
   367.62         6.8187
   367.76         6.7927
   367.90         6.7725
   368.04         6.7590
   368.18         6.7553
   368.32         6.7645
   368.46         6.7883
   368.60         6.8263
   368.74         6.8769
   368.88         6.9382
   369.02         7.0067
   369.16         7.0772
   369.30         7.1434
   369.44         7.1995
   369.58         7.2414
   369.72         7.2662
   369.86         7.2719
   370.00         7.2576
   370.14         7.2252
   370.28         7.1805
   370.42         7.1330
   370.56         7.0929
   370.70         7.0678
   370.84         7.0592
   370.98         7.0624
   371.12         7.0705
   371.26         7.0784
   371.40         7.0845
   371.54         7.0871
   371.68         7.0845
   371.82         7.0753
   371.96         7.0588
   372.10         7.0347
   372.24         7.0016
   372.38         6.9585
   372.52         6.9057
   372.66         6.8473
   372.80         6.7914
   372.94         6.7461
   373.08         6.7164
   373.22         6.7020
   373.36         6.6992
   373.50         6.7025
   373.64         6.7067
   373.78         6.7081
   373.92         6.7042
   374.06         6.6943
   374.20         6.6805
   374.34         6.6671
   374.48         6.6594
   374.62         6.6607
   374.76         6.6730
   374.90         6.6995
   375.04         6.7451
   375.18         6.8143
   375.32         6.9088
   375.46         7.0237
   375.60         7.1461
   375.74         7.2589
   375.88         7.3460
   376.02         7.3967
   376.16         7.4084
   376.30         7.3874
   376.44         7.3468
   376.58         7.3040
   376.72         7.2782
   376.86         7.2862
   377.00         7.3386
   377.14         7.4386
   377.28         7.5830
   377.42         7.7643
   377.56         7.9714
   377.70         8.1886
   377.84         8.3987
   377.98         8.5849
   378.12         8.7308
   378.26         8.8215
   378.40         8.8461
   378.54         8.8004
   378.68         8.6885
   378.82         8.5231
   378.96         8.3233
   379.10         8.1113
   379.24         7.9105
   379.38         7.7429
   379.52         7.6264
   379.66         7.5727
   379.80         7.5881
   379.94         7.6718
   380.08         7.8154
   380.22         8.0040
   380.36         8.2194
   380.50         8.4426
   380.64         8.6543
   380.78         8.8350
   380.92         8.9690
   381.06         9.0484
   381.20         9.0734
   381.34         9.0489
   381.48         8.9824
   381.62         8.8816
   381.76         8.7527
   381.90         8.5998
   382.04         8.4252
   382.18         8.2293
   382.32         8.0136
   382.46         7.7806
   382.60         7.5348
   382.74         7.2846
   382.88         7.0442
   383.02         6.8312
   383.16         6.6643
   383.30         6.5595
   383.44         6.5297
   383.58         6.5837
   383.72         6.7252
   383.86         6.9500
   384.00         7.2466
   384.14         7.5984
   384.28         7.9839
   384.42         8.3770
   384.56         8.7501
   384.70         9.0790
   384.84         9.3476
   384.98         9.5504
   385.12         9.6905
   385.26         9.7768
   385.40         9.8215
   385.54         9.8379
   385.68         9.8371
   385.82         9.8272
   385.96         9.8127
   386.10         9.7957
   386.24         9.7768
   386.38         9.7549
   386.52         9.7263
   386.66         9.6867
   386.80         9.6321
   386.94         9.5605
   387.08         9.4708
   387.22         9.3628
   387.36         9.2359
   387.50         9.0892
   387.64         8.9206
   387.78         8.7292
   387.92         8.5179
   388.06         8.2944
   388.20         8.0695
   388.34         7.8566
   388.48         7.6711
   388.62         7.5286
   388.76         7.4430
   388.90         7.4238
   389.04         7.4736
   389.18         7.5869
   389.32         7.7522
   389.46         7.9545
   389.60         8.1761
   389.74         8.3992
   389.88         8.6078
   390.02         8.7902
   390.16         8.9406
   390.30         9.0592
   390.44         9.1505
   390.58         9.2199
   390.72         9.2715
   390.86         9.3073
   391.00         9.3285
   391.14         9.3347
   391.28         9.3231
   391.42         9.2893
   391.56         9.2253
   391.70         9.1202
   391.84         8.9628
   391.98         8.7436
   392.12         8.4582
   392.26         8.1084
   392.40         7.7047
   392.54         7.2663
   392.68         6.8202
   392.82         6.3983
   392.96         6.0332
   393.10         5.7539
   393.24         5.5833
   393.38         5.5356
   393.52         5.6144
   393.66         5.8126
   393.80         6.1127
   393.94         6.4886
   394.08         6.9086
   394.22         7.3391
   394.36         7.7487
   394.50         8.1131
   394.64         8.4168
   394.78         8.6522
   394.92         8.8169
   395.06         8.9114
   395.20         8.9358
   395.34         8.8878
   395.48         8.7632
   395.62         8.5587
   395.76         8.2763
   395.90         7.9261
   396.04         7.5284
   396.18         7.1109
   396.32         6.7068
   396.46         6.3501
   396.60         6.0725
   396.74         5.8996
   396.88         5.8485
   397.02         5.9254
   397.16         6.1241
   397.30         6.4274
   397.44         6.8091
   397.58         7.2381
   397.72         7.6825
   397.86         8.1136
   398.00         8.5082
   398.14         8.8513
   398.28         9.1367
   398.42         9.3664
   398.56         9.5482
   398.70         9.6928
   398.84         9.8109
   398.98         9.9118
   399.12         10.0019
   399.26         10.0838
   399.40         10.1570
   399.54         10.2199
   399.68         10.2723
   399.82         10.3158
   399.96         10.3539
   400.10         10.3908
   400.24         10.4301
   400.38         10.4739
   400.52         10.5226
   400.66         10.5745
   400.80         10.6277
   400.94         10.6804
   401.08         10.7315
   401.22         10.7798
   401.36         10.8243
   401.50         10.8636
   401.64         10.8953
   401.78         10.9156
   401.92         10.9201
   402.06         10.9070
   402.20         10.8783
   402.34         10.8381
   402.48         10.7920
   402.62         10.7459
   402.76         10.7055
   402.90         10.6756
   403.04         10.6587
   403.18         10.6547
   403.32         10.6611
   403.46         10.6746
   403.60         10.6931
   403.74         10.7155
   403.88         10.7406
   404.02         10.7658
   404.16         10.7868
   404.30         10.7984
   404.44         10.7965
   404.58         10.7804
   404.72         10.7535
   404.86         10.7207
   405.00         10.6856
   405.14         10.6493
   405.28         10.6120
   405.42         10.5736
   405.56         10.5346
   405.70         10.4963
   405.84         10.4601
   405.98         10.4278
   406.12         10.4022
   406.26         10.3850
   406.40         10.3743
   406.54         10.3645
   406.68         10.3497
   406.82         10.3274
   406.96         10.2984
   407.10         10.2655
   407.24         10.2317
   407.38         10.2000
   407.52         10.1730
   407.66         10.1533
   407.80         10.1430
   407.94         10.1426
   408.08         10.1506
   408.22         10.1619
   408.36         10.1678
   408.50         10.1566
   408.64         10.1162
   408.78         10.0357
   408.92         9.9059
   409.06         9.7225
   409.20         9.4896
   409.34         9.2207
   409.48         8.9362
   409.62         8.6597
   409.76         8.4143
   409.90         8.2208
   410.04         8.0972
   410.18         8.0565
   410.32         8.1045
   410.46         8.2378
   410.60         8.4447
   410.74         8.7068
   410.88         9.0016
   411.02         9.3056
   411.16         9.5967
   411.30         9.8566
   411.44         10.0723
   411.58         10.2379
   411.72         10.3556
   411.86         10.4328
   412.00         10.4781
   412.14         10.5000
   412.28         10.5068
   412.42         10.5067
   412.56         10.5071
   412.70         10.5149
   412.84         10.5348
   412.98         10.5673
   413.12         10.6098
   413.26         10.6579
   413.40         10.7084
   413.54         10.7588
   413.68         10.8066
   413.82         10.8483
   413.96         10.8803
   414.10         10.9001
   414.24         10.9056
   414.38         10.8959
   414.52         10.8713
   414.66         10.8348
   414.80         10.7921
   414.94         10.7497
   415.08         10.7136
   415.22         10.6879
   415.36         10.6748
   415.50         10.6740
   415.64         10.6828
   415.78         10.6973
   415.92         10.7137
   416.06         10.7271
   416.20         10.7322
   416.34         10.7249
   416.48         10.7029
   416.62         10.6663
   416.76         10.6182
   416.90         10.5637
   417.04         10.5097
   417.18         10.4636
   417.32         10.4313
   417.46         10.4158
   417.60         10.4169
   417.74         10.4325
   417.88         10.4599
   418.02         10.4960
   418.16         10.5378
   418.30         10.5814
   418.44         10.6221
   418.58         10.6542
   418.72         10.6731
   418.86         10.6766
   419.00         10.6648
   419.14         10.6396
   419.28         10.6038
   419.42         10.5619
   419.56         10.5185
   419.70         10.4793
   419.84         10.4500
   419.98         10.4358
   420.12         10.4408
   420.26         10.4673
   420.40         10.5147
   420.54         10.5794
   420.68         10.6546
   420.82         10.7322
   420.96         10.8034
   421.10         10.8598
   421.24         10.8939
   421.38         10.8990
   421.52         10.8717
   421.66         10.8132
   421.80         10.7299
   421.94         10.6316
   422.08         10.5287
   422.22         10.4308
   422.36         10.3455
   422.50         10.2775
   422.64         10.2286
   422.78         10.1988
   422.92         10.1867
   423.06         10.1906
   423.20         10.2083
   423.34         10.2368
   423.48         10.2722
   423.62         10.3093
   423.76         10.3421
   423.90         10.3668
   424.04         10.3832
   424.18         10.3952
   424.32         10.4073
   424.46         10.4222
   424.60         10.4389
   424.74         10.4535
   424.88         10.4616
   425.02         10.4611
   425.16         10.4531
   425.30         10.4411
   425.44         10.4295
   425.58         10.4218
   425.72         10.4193
   425.86         10.4208
   426.00         10.4235
   426.14         10.4242
   426.28         10.4211
   426.42         10.4138
   426.56         10.4037
   426.70         10.3930
   426.84         10.3833
   426.98         10.3748
   427.12         10.3672
   427.26         10.3601
   427.40         10.3525
   427.54         10.3438
   427.68         10.3329
   427.82         10.3175
   427.96         10.2948
   428.10         10.2630
   428.24         10.2216
   428.38         10.1714
   428.52         10.1139
   428.66         10.0508
   428.80         9.9832
   428.94         9.9120
   429.08         9.8381
   429.22         9.7625
   429.36         9.6854
   429.50         9.6060
   429.64         9.5233
   429.78         9.4380
   429.92         9.3534
   430.06         9.2744
   430.20         9.2072
   430.34         9.1593
   430.48         9.1387
   430.62         9.1524
   430.76         9.2036
   430.90         9.2903
   431.04         9.4051
   431.18         9.5361
   431.32         9.6689
   431.46         9.7902
   431.60         9.8906
   431.74         9.9653
   431.88         10.0119
   432.02         10.0292
   432.16         10.0175
   432.30         9.9789
   432.44         9.9159
   432.58         9.8292
   432.72         9.7167
   432.86         9.5755
   433.00         9.4050
   433.14         9.2092
   433.28         8.9966
   433.42         8.7789
   433.56         8.5704
   433.70         8.3859
   433.84         8.2394
   433.98         8.1428
   434.12         8.1058
   434.26         8.1342
   434.40         8.2285
   434.54         8.3824
   434.68         8.5845
   434.82         8.8204
   434.96         9.0738
   435.10         9.3294
   435.24         9.5745
   435.38         9.8004
   435.52         10.0030
   435.66         10.1819
   435.80         10.3382
   435.94         10.4726
   436.08         10.5840
   436.22         10.6692
   436.36         10.7253
   436.50         10.7514
   436.64         10.7508
   436.78         10.7303
   436.92         10.6973
   437.06         10.6564
   437.20         10.6100
   437.34         10.5596
   437.48         10.5075
   437.62         10.4571
   437.76         10.4116
   437.90         10.3731
   438.04         10.3435
   438.18         10.3236
   438.32         10.3142
   438.46         10.3167
   438.60         10.3320
   438.74         10.3590
   438.88         10.3950
   439.02         10.4379
   439.16         10.4858
   439.30         10.5355
   439.44         10.5823
   439.58         10.6215
   439.72         10.6505
   439.86         10.6705
   440.00         10.6854
   440.14         10.6996
   440.28         10.7150
   440.42         10.7315
   440.56         10.7481
   440.70         10.7642
   440.84         10.7796
   440.98         10.7944
   441.12         10.8084
   441.26         10.8203
   441.40         10.8287
   441.54         10.8336
   441.68         10.8356
   441.82         10.8355
   441.96         10.8331
   442.10         10.8287
   442.24         10.8223
   442.38         10.8143
   442.52         10.8049
   442.66         10.7952
   442.80         10.7865
   442.94         10.7791
   443.08         10.7726
   443.22         10.7668
   443.36         10.7624
   443.50         10.7601
   443.64         10.7597
   443.78         10.7610
   443.92         10.7636
   444.06         10.7662
   444.20         10.7658
   444.34         10.7579
   444.48         10.7388
   444.62         10.7067
   444.76         10.6622
   444.90         10.6076
   445.04         10.5468
   445.18         10.4847
   445.32         10.4260
   445.46         10.3740
   445.60         10.3308
   445.74         10.2985
   445.88         10.2798
   446.02         10.2775
   446.16         10.2926
   446.30         10.3243
   446.44         10.3701
   446.58         10.4264
   446.72         10.4875
   446.86         10.5462
   447.00         10.5963
   447.14         10.6348
   447.28         10.6612
   447.42         10.6771
   447.56         10.6839
   447.70         10.6831
   447.84         10.6753
   447.98         10.6621
   448.12         10.6459
   448.26         10.6291
   448.40         10.6142
   448.54         10.6036
   448.68         10.5997
   448.82         10.6036
   448.96         10.6148
   449.10         10.6320
   449.24         10.6546
   449.38         10.6821
   449.52         10.7145
   449.66         10.7518
   449.80         10.7944
   449.94         10.8413
   450.08         10.8903
   450.22         10.9378
   450.36         10.9800
   450.50         11.0137
   450.64         11.0369
   450.78         11.0479
   450.92         11.0459
   451.06         11.0306
   451.20         11.0032
   451.34         10.9657
   451.48         10.9198
   451.62         10.8666
   451.76         10.8069
   451.90         10.7407
   452.04         10.6680
   452.18         10.5883
   452.32         10.5034
   452.46         10.4179
   452.60         10.3380
   452.74         10.2696
   452.88         10.2177
   453.02         10.1860
   453.16         10.1768
   453.30         10.1900
   453.44         10.2233
   453.58         10.2710
   453.72         10.3260
   453.86         10.3805
   454.00         10.4274
   454.14         10.4610
   454.28         10.4774
   454.42         10.4758
   454.56         10.4594
   454.70         10.4340
   454.84         10.4063
   454.98         10.3832
   455.12         10.3701
   455.26         10.3689
   455.40         10.3792
   455.54         10.3991
   455.68         10.4259
   455.82         10.4564
   455.96         10.4875
   456.10         10.5168
   456.24         10.5433
   456.38         10.5679
   456.52         10.5922
   456.66         10.6169
   456.80         10.6405
   456.94         10.6603
   457.08         10.6735
   457.22         10.6785
   457.36         10.6743
   457.50         10.6605
   457.64         10.6376
   457.78         10.6065
   457.92         10.5692
   458.06         10.5286
   458.20         10.4884
   458.34         10.4522
   458.48         10.4231
   458.62         10.4027
   458.76         10.3914
   458.90         10.3884
   459.04         10.3925
   459.18         10.4008
   459.32         10.4107
   459.46         10.4206
   459.60         10.4312
   459.74         10.4443
   459.88         10.4618
   460.02         10.4843
   460.16         10.5106
   460.30         10.5384
   460.44         10.5657
   460.58         10.5909
   460.72         10.6132
   460.86         10.6325
   461.00         10.6491
   461.14         10.6638
   461.28         10.6771
   461.42         10.6894
   461.56         10.7006
   461.70         10.7106
   461.84         10.7184
   461.98         10.7231
   462.12         10.7236
   462.26         10.7190
   462.40         10.7082
   462.54         10.6907
   462.68         10.6666
   462.82         10.6375
   462.96         10.6066
   463.10         10.5772
   463.24         10.5516
   463.38         10.5304
   463.52         10.5129
   463.66         10.4981
   463.80         10.4852
   463.94         10.4733
   464.08         10.4619
   464.22         10.4508
   464.36         10.4405
   464.50         10.4322
   464.64         10.4273
   464.78         10.4278
   464.92         10.4354
   465.06         10.4508
   465.20         10.4734
   465.34         10.5002
   465.48         10.5264
   465.62         10.5457
   465.76         10.5529
   465.90         10.5447
   466.04         10.5211
   466.18         10.4848
   466.32         10.4407
   466.46         10.3952
   466.60         10.3529
   466.74         10.3173
   466.88         10.2907
   467.02         10.2754
   467.16         10.2734
   467.30         10.2858
   467.44         10.3113
   467.58         10.3467
   467.72         10.3876
   467.86         10.4292
   468.00         10.4673
   468.14         10.4999
   468.28         10.5275
   468.42         10.5518
   468.56         10.5737
   468.70         10.5925
   468.84         10.6059
   468.98         10.6113
   469.12         10.6056
   469.26         10.5865
   469.40         10.5535
   469.54         10.5087
   469.68         10.4545
   469.82         10.3944
   469.96         10.3322
   470.10         10.2721
   470.24         10.2177
   470.38         10.1726
   470.52         10.1396
   470.66         10.1217
   470.80         10.1206
   470.94         10.1361
   471.08         10.1663
   471.22         10.2074
   471.36         10.2551
   471.50         10.3042
   471.64         10.3496
   471.78         10.3869
   471.92         10.4138
   472.06         10.4298
   472.20         10.4339
   472.34         10.4263
   472.48         10.4087
   472.62         10.3839
   472.76         10.3548
   472.90         10.3247
   473.04         10.2976
   473.18         10.2780
   473.32         10.2689
   473.46         10.2719
   473.60         10.2865
   473.74         10.3104
   473.88         10.3405
   474.02         10.3724
   474.16         10.4010
   474.30         10.4220
   474.44         10.4321
   474.58         10.4296
   474.72         10.4147
   474.86         10.3885
   475.00         10.3524
   475.14         10.3084
   475.28         10.2587
   475.42         10.2063
   475.56         10.1548
   475.70         10.1083
   475.84         10.0702
   475.98         10.0430
   476.12         10.0282
   476.26         10.0267
   476.40         10.0388
   476.54         10.0641
   476.68         10.0998
   476.82         10.1426
   476.96         10.1890
   477.10         10.2356
   477.24         10.2790
   477.38         10.3154
   477.52         10.3400
   477.66         10.3491
   477.80         10.3422
   477.94         10.3215
   478.08         10.2919
   478.22         10.2593
   478.36         10.2293
   478.50         10.2053
   478.64         10.1894
   478.78         10.1817
   478.92         10.1815
   479.06         10.1866
   479.20         10.1943
   479.34         10.2013
   479.48         10.2054
   479.62         10.2053
   479.76         10.1999
   479.90         10.1885
   480.04         10.1710
   480.18         10.1488
   480.32         10.1259
   480.46         10.1072
   480.60         10.0970
   480.74         10.0981
   480.88         10.1106
   481.02         10.1319
   481.16         10.1575
   481.30         10.1827
   481.44         10.2031
   481.58         10.2159
   481.72         10.2192
   481.86         10.2117
   482.00         10.1936
   482.14         10.1661
   482.28         10.1309
   482.42         10.0902
   482.56         10.0463
   482.70         10.0027
   482.84         9.9628
   482.98         9.9292
   483.12         9.9027
   483.26         9.8820
   483.40         9.8648
   483.54         9.8484
   483.68         9.8298
   483.82         9.8065
   483.96         9.7767
   484.10         9.7391
   484.24         9.6909
   484.38         9.6283
   484.52         9.5468
   484.66         9.4421
   484.80         9.3086
   484.94         9.1413
   485.08         8.9386
   485.22         8.7046
   485.36         8.4497
   485.50         8.1891
   485.64         7.9412
   485.78         7.7241
   485.92         7.5528
   486.06         7.4385
   486.20         7.3875
   486.34         7.4006
   486.48         7.4732
   486.62         7.5969
   486.76         7.7602
   486.90         7.9494
   487.04         8.1499
   487.18         8.3476
   487.32         8.5299
   487.46         8.6874
   487.60         8.8162
   487.74         8.9175
   487.88         8.9949
   488.02         9.0536
   488.16         9.0989
   488.30         9.1360
   488.44         9.1691
   488.58         9.2018
   488.72         9.2381
   488.86         9.2808
   489.00         9.3311
   489.14         9.3886
   489.28         9.4510
   489.42         9.5146
   489.56         9.5741
   489.70         9.6241
   489.84         9.6611
   489.98         9.6845
   490.12         9.6962
   490.26         9.7005
   490.40         9.7024
   490.54         9.7064
   490.68         9.7162
   490.82         9.7329
   490.96         9.7548
   491.10         9.7784
   491.24         9.7999
   491.38         9.8160
   491.52         9.8252
   491.66         9.8275
   491.80         9.8255
   491.94         9.8224
   492.08         9.8212
   492.22         9.8234
   492.36         9.8294
   492.50         9.8382
   492.64         9.8482
   492.78         9.8567
   492.92         9.8614
   493.06         9.8600
   493.20         9.8523
   493.34         9.8398
   493.48         9.8261
   493.62         9.8163
   493.76         9.8161
   493.90         9.8303
   494.04         9.8610
   494.18         9.9079
   494.32         9.9671
   494.46         10.0318
   494.60         10.0928
   494.74         10.1411
   494.88         10.1714
   495.02         10.1821
   495.16         10.1739
   495.30         10.1498
   495.44         10.1146
   495.58         10.0736
   495.72         10.0320
   495.86         9.9940
   496.00         9.9621
   496.14         9.9381
   496.28         9.9226
   496.42         9.9152
   496.56         9.9139
   496.70         9.9156
   496.84         9.9169
   496.98         9.9132
   497.12         9.8995
   497.26         9.8726
   497.40         9.8326
   497.54         9.7829
   497.68         9.7280
   497.82         9.6723
   497.96         9.6207
   498.10         9.5777
   498.24         9.5470
   498.38         9.5320
   498.52         9.5350
   498.66         9.5556
   498.80         9.5908
   498.94         9.6352
   499.08         9.6818
   499.22         9.7238
   499.36         9.7541
   499.50         9.7659
   499.64         9.7567
   499.78         9.7286
   499.92         9.6881
   500.06         9.6417
   500.20         9.5941
   500.34         9.5481
   500.48         9.5050
   500.62         9.4651
   500.76         9.4291
   500.90         9.3980
   501.04         9.3722
   501.18         9.3505
   501.32         9.3318
   501.46         9.3158
   501.60         9.3029
   501.74         9.2942
   501.88         9.2912
   502.02         9.2946
   502.16         9.3050
   502.30         9.3233
   502.44         9.3481
   502.58         9.3760
   502.72         9.4020
   502.86         9.4217
   503.00         9.4318
   503.14         9.4318
   503.28         9.4241
   503.42         9.4129
   503.56         9.4017
   503.70         9.3925
   503.84         9.3865
   503.98         9.3858
   504.12         9.3919
   504.26         9.4062
   504.40         9.4291
   504.54         9.4599
   504.68         9.4969
   504.82         9.5381
   504.96         9.5823
   505.10         9.6274
   505.24         9.6708
   505.38         9.7093
   505.52         9.7409
   505.66         9.7652
   505.80         9.7834
   505.94         9.7960
   506.08         9.8016
   506.22         9.7980
   506.36         9.7847
   506.50         9.7629
   506.64         9.7345
   506.78         9.7007
   506.92         9.6624
   507.06         9.6211
   507.20         9.5796
   507.34         9.5413
   507.48         9.5092
   507.62         9.4855
   507.76         9.4706
   507.90         9.4649
   508.04         9.4684
   508.18         9.4811
   508.32         9.5018
   508.46         9.5273
   508.60         9.5526
   508.74         9.5721
   508.88         9.5817
   509.02         9.5799
   509.16         9.5676
   509.30         9.5466
   509.44         9.5192
   509.58         9.4886
   509.72         9.4585
   509.86         9.4316
   510.00         9.4104
   510.14         9.3971
   510.28         9.3936
   510.42         9.4007
   510.56         9.4188
   510.70         9.4470
   510.84         9.4832
   510.98         9.5232
   511.12         9.5627
   511.26         9.5978
   511.40         9.6258
   511.54         9.6455
   511.68         9.6560
   511.82         9.6558
   511.96         9.6432
   512.10         9.6176
   512.24         9.5811
   512.38         9.5373
   512.52         9.4898
   512.66         9.4414
   512.80         9.3936
   512.94         9.3474
   513.08         9.3036
   513.22         9.2636
   513.36         9.2285
   513.50         9.1987
   513.64         9.1747
   513.78         9.1576
   513.92         9.1486
   514.06         9.1482
   514.20         9.1559
   514.34         9.1704
   514.48         9.1907
   514.62         9.2161
   514.76         9.2462
   514.90         9.2795
   515.04         9.3132
   515.18         9.3435
   515.32         9.3664
   515.46         9.3774
   515.60         9.3719
   515.74         9.3461
   515.88         9.2978
   516.02         9.2257
   516.16         9.1313
   516.30         9.0208
   516.44         8.9036
   516.58         8.7911
   516.72         8.6941
   516.86         8.6219
   517.00         8.5796
   517.14         8.5670
   517.28         8.5793
   517.42         8.6093
   517.56         8.6496
   517.70         8.6926
   517.84         8.7314
   517.98         8.7604
   518.12         8.7768
   518.26         8.7814
   518.40         8.7780
   518.54         8.7721
   518.68         8.7701
   518.82         8.7782
   518.96         8.8009
   519.10         8.8391
   519.24         8.8897
   519.38         8.9466
   519.52         9.0027
   519.66         9.0516
   519.80         9.0900
   519.94         9.1187
   520.08         9.1413
   520.22         9.1608
   520.36         9.1776
   520.50         9.1907
   520.64         9.1999
   520.78         9.2061
   520.92         9.2111
   521.06         9.2160
   521.20         9.2214
   521.34         9.2263
   521.48         9.2281
   521.62         9.2233
   521.76         9.2099
   521.90         9.1878
   522.04         9.1583
   522.18         9.1239
   522.32         9.0877
   522.46         9.0529
   522.60         9.0226
   522.74         8.9993
   522.88         8.9844
   523.02         8.9778
   523.16         8.9800
   523.30         8.9918
   523.44         9.0131
   523.58         9.0414
   523.72         9.0728
   523.86         9.1038
   524.00         9.1310
   524.14         9.1532
   524.28         9.1712
   524.42         9.1876
   524.56         9.2039
   524.70         9.2212
   524.84         9.2397
   524.98         9.2576
   525.12         9.2718
   525.26         9.2778
   525.40         9.2710
   525.54         9.2469
   525.68         9.2028
   525.82         9.1391
   525.96         9.0591
   526.10         8.9679
   526.24         8.8717
   526.38         8.7775
   526.52         8.6926
   526.66         8.6234
   526.80         8.5752
   526.94         8.5509
   527.08         8.5502
   527.22         8.5699
   527.36         8.6054
   527.50         8.6512
   527.64         8.7019
   527.78         8.7541
   527.92         8.8063
   528.06         8.8592
   528.20         8.9141
   528.34         8.9718
   528.48         9.0317
   528.62         9.0906
   528.76         9.1443
   528.90         9.1883
   529.04         9.2192
   529.18         9.2350
   529.32         9.2356
   529.46         9.2229
   529.60         9.2004
   529.74         9.1724
   529.88         9.1444
   530.02         9.1213
   530.16         9.1071
   530.30         9.1042
   530.44         9.1126
   530.58         9.1302
   530.72         9.1531
   530.86         9.1766
   531.00         9.1959
   531.14         9.2063
   531.28         9.2045
   531.42         9.1884
   531.56         9.1571
   531.70         9.1106
   531.84         9.0511
   531.98         8.9831
   532.12         8.9125
   532.26         8.8450
   532.40         8.7858
   532.54         8.7389
   532.68         8.7068
   532.82         8.6907
   532.96         8.6898
   533.10         8.7024
   533.24         8.7260
   533.38         8.7579
   533.52         8.7944
   533.66         8.8311
   533.80         8.8634
   533.94         8.8879
   534.08         8.9036
   534.22         8.9120
   534.36         8.9164
   534.50         8.9219
   534.64         8.9324
   534.78         8.9497
   534.92         8.9736
   535.06         9.0014
   535.20         9.0293
   535.34         9.0532
   535.48         9.0697
   535.62         9.0763
   535.76         9.0715
   535.90         9.0538
   536.04         9.0228
   536.18         8.9802
   536.32         8.9304
   536.46         8.8788
   536.60         8.8319
   536.74         8.7956
   536.88         8.7735
   537.02         8.7675
   537.16         8.7769
   537.30         8.7992
   537.44         8.8309
   537.58         8.8684
   537.72         8.9077
   537.86         8.9451
   538.00         8.9773
   538.14         9.0018
   538.28         9.0170
   538.42         9.0222
   538.56         9.0180
   538.70         9.0064
   538.84         8.9901
   538.98         8.9711
   539.12         8.9502
   539.26         8.9270
   539.40         8.8997
   539.54         8.8672
   539.68         8.8293
   539.82         8.7874
   539.96         8.7436
   540.10         8.7001
   540.24         8.6595
   540.38         8.6238
   540.52         8.5952
   540.66         8.5769
   540.80         8.5716
   540.94         8.5806
   541.08         8.6033
   541.22         8.6365
   541.36         8.6763
   541.50         8.7186
   541.64         8.7593
   541.78         8.7946
   541.92         8.8215
   542.06         8.8380
   542.20         8.8440
   542.34         8.8404
   542.48         8.8290
   542.62         8.8131
   542.76         8.7966
   542.90         8.7835
   543.04         8.7773
   543.18         8.7799
   543.32         8.7903
   543.46         8.8052
   543.60         8.8210
   543.74         8.8348
   543.88         8.8450
   544.02         8.8513
   544.16         8.8538
   544.30         8.8522
   544.44         8.8458
   544.58         8.8344
   544.72         8.8191
   544.86         8.8024
   545.00         8.7865
   545.14         8.7732
   545.28         8.7625
   545.42         8.7536
   545.56         8.7458
   545.70         8.7391
   545.84         8.7334
   545.98         8.7285
   546.12         8.7250
   546.26         8.7241
   546.40         8.7258
   546.54         8.7281
   546.68         8.7285
   546.82         8.7246
   546.96         8.7146
   547.10         8.6984
   547.24         8.6774
   547.38         8.6545
   547.52         8.6327
   547.66         8.6147
   547.80         8.6026
   547.94         8.5987
   548.08         8.6045
   548.22         8.6198
   548.36         8.6426
   548.50         8.6691
   548.64         8.6954
   548.78         8.7178
   548.92         8.7334
   549.06         8.7402
   549.20         8.7377
   549.34         8.7278
   549.48         8.7130
   549.62         8.6963
   549.76         8.6810
   549.90         8.6695
   550.04         8.6628
   550.18         8.6605
   550.32         8.6612
   550.46         8.6636
   550.60         8.6667
   550.74         8.6700
   550.88         8.6732
   551.02         8.6763
   551.16         8.6794
   551.30         8.6823
   551.44         8.6839
   551.58         8.6826
   551.72         8.6770
   551.86         8.6667
   552.00         8.6522
   552.14         8.6348
   552.28         8.6155
   552.42         8.5956
   552.56         8.5764
   552.70         8.5593
   552.84         8.5461
   552.98         8.5376
   553.12         8.5346
   553.26         8.5366
   553.40         8.5428
   553.54         8.5518
   553.68         8.5625
   553.82         8.5744
   553.96         8.5865
   554.10         8.5976
   554.24         8.6066
   554.38         8.6133
   554.52         8.6191
   554.66         8.6251
   554.80         8.6319
   554.94         8.6390
   555.08         8.6463
   555.22         8.6537
   555.36         8.6606
   555.50         8.6656
   555.64         8.6681
   555.78         8.6670
   555.92         8.6615
   556.06         8.6507
   556.20         8.6345
   556.34         8.6137
   556.48         8.5893
   556.62         8.5630
   556.76         8.5369
   556.90         8.5134
   557.04         8.4946
   557.18         8.4824
   557.32         8.4770
   557.46         8.4762
   557.60         8.4767
   557.74         8.4751
   557.88         8.4685
   558.02         8.4549
   558.16         8.4339
   558.30         8.4055
   558.44         8.3710
   558.58         8.3326
   558.72         8.2934
   558.86         8.2565
   559.00         8.2246
   559.14         8.1998
   559.28         8.1837
   559.42         8.1775
   559.56         8.1820
   559.70         8.1978
   559.84         8.2245
   559.98         8.2601
   560.12         8.3014
   560.26         8.3452
   560.40         8.3876
   560.54         8.4248
   560.68         8.4533
   560.82         8.4704
   560.96         8.4752
   561.10         8.4682
   561.24         8.4511
   561.38         8.4258
   561.52         8.3951
   561.66         8.3626
   561.80         8.3328
   561.94         8.3101
   562.08         8.2975
   562.22         8.2954
   562.36         8.3018
   562.50         8.3132
   562.64         8.3260
   562.78         8.3367
   562.92         8.3432
   563.06         8.3447
   563.20         8.3426
   563.34         8.3390
   563.48         8.3362
   563.62         8.3359
   563.76         8.3389
   563.90         8.3455
   564.04         8.3553
   564.18         8.3676
   564.32         8.3812
   564.46         8.3940
   564.60         8.4031
   564.74         8.4055
   564.88         8.3988
   565.02         8.3826
   565.16         8.3586
   565.30         8.3295
   565.44         8.2984
   565.58         8.2684
   565.72         8.2422
   565.86         8.2225
   566.00         8.2111
   566.14         8.2091
   566.28         8.2170
   566.42         8.2336
   566.56         8.2567
   566.70         8.2835
   566.84         8.3110
   566.98         8.3359
   567.12         8.3556
   567.26         8.3684
   567.40         8.3737
   567.54         8.3712
   567.68         8.3613
   567.82         8.3449
   567.96         8.3230
   568.10         8.2971
   568.24         8.2694
   568.38         8.2424
   568.52         8.2191
   568.66         8.2018
   568.80         8.1921
   568.94         8.1899
   569.08         8.1940
   569.22         8.2027
   569.36         8.2138
   569.50         8.2244
   569.64         8.2312
   569.78         8.2313
   569.92         8.2226
   570.06         8.2042
   570.20         8.1769
   570.34         8.1430
   570.48         8.1063
   570.62         8.0713
   570.76         8.0424
   570.90         8.0230
   571.04         8.0152
   571.18         8.0197
   571.32         8.0355
   571.46         8.0603
   571.60         8.0909
   571.74         8.1242
   571.88         8.1573
   572.02         8.1876
   572.16         8.2126
   572.30         8.2318
   572.44         8.2459
   572.58         8.2565
   572.72         8.2651
   572.86         8.2729
   573.00         8.2803
   573.14         8.2875
   573.28         8.2942
   573.42         8.2996
   573.56         8.3025
   573.70         8.3019
   573.84         8.2982
   573.98         8.2916
   574.12         8.2821
   574.26         8.2686
   574.40         8.2502
   574.54         8.2272
   574.68         8.2012
   574.82         8.1745
   574.96         8.1497
   575.10         8.1278
   575.24         8.1088
   575.38         8.0935
   575.52         8.0834
   575.66         8.0797
   575.80         8.0830
   575.94         8.0926
   576.08         8.1069
   576.22         8.1237
   576.36         8.1408
   576.50         8.1567
   576.64         8.1704
   576.78         8.1809
   576.92         8.1877
   577.06         8.1916
   577.20         8.1935
   577.34         8.1929
   577.48         8.1893
   577.62         8.1824
   577.76         8.1729
   577.90         8.1622
   578.04         8.1514
   578.18         8.1408
   578.32         8.1300
   578.46         8.1183
   578.60         8.1059
   578.74         8.0936
   578.88         8.0825
   579.02         8.0740
   579.16         8.0694
   579.30         8.0690
   579.44         8.0715
   579.58         8.0756
   579.72         8.0800
   579.86         8.0841
   580.00         8.0875
   580.14         8.0901
   580.28         8.0912
   580.42         8.0896
   580.56         8.0843
   580.70         8.0746
   580.84         8.0612
   580.98         8.0455
   581.12         8.0289
   581.26         8.0126
   581.40         7.9982
   581.54         7.9869
   581.68         7.9791
   581.82         7.9750
   581.96         7.9738
   582.10         7.9750
   582.24         7.9783
   582.38         7.9840
   582.52         7.9915
   582.66         8.0002
   582.80         8.0094
   582.94         8.0189
   583.08         8.0289
   583.22         8.0399
   583.36         8.0516
   583.50         8.0635
   583.64         8.0751
   583.78         8.0862
   583.92         8.0964
   584.06         8.1049
   584.20         8.1103
   584.34         8.1110
   584.48         8.1057
   584.62         8.0939
   584.76         8.0754
   584.90         8.0512
   585.04         8.0227
   585.18         7.9916
   585.32         7.9608
   585.46         7.9337
   585.60         7.9133
   585.74         7.9025
   585.88         7.9033
   586.02         7.9157
   586.16         7.9380
   586.30         7.9678
   586.44         8.0009
   586.58         8.0324
   586.72         8.0585
   586.86         8.0770
   587.00         8.0865
   587.14         8.0870
   587.28         8.0796
   587.42         8.0663
   587.56         8.0498
   587.70         8.0307
   587.84         8.0080
   587.98         7.9805
   588.12         7.9466
   588.26         7.9047
   588.40         7.8529
   588.54         7.7897
   588.68         7.7160
   588.82         7.6353
   588.96         7.5539
   589.10         7.4795
   589.24         7.4196
   589.38         7.3806
   589.52         7.3668
   589.66         7.3798
   589.80         7.4179
   589.94         7.4764
   590.08         7.5489
   590.22         7.6275
   590.36         7.7043
   590.50         7.7734
   590.64         7.8314
   590.78         7.8761
   590.92         7.9068
   591.06         7.9241
   591.20         7.9307
   591.34         7.9300
   591.48         7.9253
   591.62         7.9198
   591.76         7.9153
   591.90         7.9124
   592.04         7.9111
   592.18         7.9113
   592.32         7.9121
   592.46         7.9127
   592.60         7.9124
   592.74         7.9105
   592.88         7.9066
   593.02         7.8999
   593.16         7.8901
   593.30         7.8765
   593.44         7.8594
   593.58         7.8391
   593.72         7.8165
   593.86         7.7925
   594.00         7.7687
   594.14         7.7466
   594.28         7.7270
   594.42         7.7101
   594.56         7.6961
   594.70         7.6847
   594.84         7.6760
   594.98         7.6694
   595.12         7.6643
   595.26         7.6599
   595.40         7.6556
   595.54         7.6513
   595.68         7.6469
   595.82         7.6425
   595.96         7.6382
   596.10         7.6338
   596.24         7.6294
   596.38         7.6249
   596.52         7.6205
   596.66         7.6160
   596.80         7.6115
   596.94         7.6070
   597.08         7.6025
   597.22         7.5979
   597.36         7.5934
   597.50         7.5888
   597.64         7.5841
   597.78         7.5795
   597.92         7.5748
   598.06         7.5702
   598.20         7.5655
   598.34         7.5608
   598.48         7.5560
   598.62         7.5512
   598.76         7.5464
   598.90         7.5418
   599.04         7.5373
   599.18         7.5318
   599.32         7.5244
   599.46         7.5139
   599.60         7.4998
   599.74         7.4821
   599.88         7.4618
   600.02         7.4401
   600.16         7.4182
   600.30         7.3975
   600.44         7.3791
   600.58         7.3633
   600.72         7.3493
   600.86         7.3357
   601.00         7.3213
   601.14         7.3056
   601.28         7.2887
   601.42         7.2715
   601.56         7.2547
   601.70         7.2393
   601.84         7.2270
   601.98         7.2197
   602.12         7.2189
   602.26         7.2257
   602.40         7.2405
   602.54         7.2625
   602.68         7.2893
   602.82         7.3179
   602.96         7.3440
   603.10         7.3628
   603.24         7.3708
   603.38         7.3664
   603.52         7.3505
   603.66         7.3255
   603.80         7.2956
   603.94         7.2661
   604.08         7.2411
   604.22         7.2239
   604.36         7.2162
   604.50         7.2184
   604.64         7.2303
   604.78         7.2511
   604.92         7.2798
   605.06         7.3145
   605.20         7.3526
   605.34         7.3904
   605.48         7.4249
   605.62         7.4542
   605.76         7.4784
   605.90         7.4987
   606.04         7.5166
   606.18         7.5331
   606.32         7.5485
   606.46         7.5629
   606.60         7.5753
   606.74         7.5833
   606.88         7.5850
   607.02         7.5798
   607.16         7.5682
   607.30         7.5512
   607.44         7.5299
   607.58         7.5049
   607.72         7.4772
   607.86         7.4480
   608.00         7.4195
   608.14         7.3942
   608.28         7.3736
   608.42         7.3583
   608.56         7.3487
   608.70         7.3445
   608.84         7.3448
   608.98         7.3478
   609.12         7.3510
   609.26         7.3518
   609.40         7.3488
   609.54         7.3426
   609.68         7.3345
   609.82         7.3264
   609.96         7.3200
   610.10         7.3166
   610.24         7.3168
   610.38         7.3210
   610.52         7.3293
   610.66         7.3413
   610.80         7.3558
   610.94         7.3714
   611.08         7.3868
   611.22         7.4004
   611.36         7.4101
   611.50         7.4143
   611.64         7.4125
   611.78         7.4060
   611.92         7.3971
   612.06         7.3880
   612.20         7.3799
   612.34         7.3733
   612.48         7.3673
   612.62         7.3607
   612.76         7.3524
   612.90         7.3419
   613.04         7.3297
   613.18         7.3167
   613.32         7.3037
   613.46         7.2917
   613.60         7.2809
   613.74         7.2717
   613.88         7.2647
   614.02         7.2607
   614.16         7.2600
   614.30         7.2627
   614.44         7.2686
   614.58         7.2771
   614.72         7.2874
   614.86         7.2988
   615.00         7.3098
   615.14         7.3186
   615.28         7.3239
   615.42         7.3253
   615.56         7.3230
   615.70         7.3168
   615.84         7.3061
   615.98         7.2911
   616.12         7.2728
   616.26         7.2529
   616.40         7.2337
   616.54         7.2171
   616.68         7.2047
   616.82         7.1973
   616.96         7.1958
   617.10         7.2000
   617.24         7.2091
   617.38         7.2217
   617.52         7.2367
   617.66         7.2528
   617.80         7.2685
   617.94         7.2825
   618.08         7.2940
   618.22         7.3019
   618.36         7.3053
   618.50         7.3044
   618.64         7.3004
   618.78         7.2949
   618.92         7.2893
   619.06         7.2845
   619.20         7.2806
   619.34         7.2776
   619.48         7.2758
   619.62         7.2754
   619.76         7.2766
   619.90         7.2796
   620.04         7.2842
   620.18         7.2888
   620.32         7.2917
   620.46         7.2918
   620.60         7.2895
   620.74         7.2853
   620.88         7.2798
   621.02         7.2736
   621.16         7.2674
   621.30         7.2626
   621.44         7.2600
   621.58         7.2600
   621.72         7.2616
   621.86         7.2632
   622.00         7.2631
   622.14         7.2604
   622.28         7.2551
   622.42         7.2477
   622.56         7.2387
   622.70         7.2281
   622.84         7.2162
   622.98         7.2038
   623.12         7.1920
   623.26         7.1809
   623.40         7.1705
   623.54         7.1607
   623.68         7.1515
   623.82         7.1428
   623.96         7.1345
   624.10         7.1260
   624.24         7.1162
   624.38         7.1043
   624.52         7.0898
   624.66         7.0737
   624.80         7.0578
   624.94         7.0441
   625.08         7.0340
   625.22         7.0282
   625.36         7.0270
   625.50         7.0302
   625.64         7.0377
   625.78         7.0493
   625.92         7.0639
   626.06         7.0803
   626.20         7.0974
   626.34         7.1139
   626.48         7.1282
   626.62         7.1383
   626.76         7.1419
   626.90         7.1373
   627.04         7.1241
   627.18         7.1037
   627.32         7.0785
   627.46         7.0517
   627.60         7.0261
   627.74         7.0038
   627.88         6.9864
   628.02         6.9751
   628.16         6.9705
   628.30         6.9722
   628.44         6.9787
   628.58         6.9873
   628.72         6.9956
   628.86         7.0017
   629.00         7.0040
   629.14         7.0014
   629.28         6.9941
   629.42         6.9829
   629.56         6.9695
   629.70         6.9559
   629.84         6.9438
   629.98         6.9345
   630.12         6.9280
   630.26         6.9242
   630.40         6.9224
   630.54         6.9220
   630.68         6.9221
   630.82         6.9215
   630.96         6.9193
   631.10         6.9153
   631.24         6.9105
   631.38         6.9065
   631.52         6.9049
   631.66         6.9064
   631.80         6.9110
   631.94         6.9184
   632.08         6.9275
   632.22         6.9368
   632.36         6.9449
   632.50         6.9507
   632.64         6.9531
   632.78         6.9515
   632.92         6.9462
   633.06         6.9379
   633.20         6.9281
   633.34         6.9175
   633.48         6.9072
   633.62         6.8979
   633.76         6.8904
   633.90         6.8858
   634.04         6.8849
   634.18         6.8878
   634.32         6.8943
   634.46         6.9045
   634.60         6.9176
   634.74         6.9322
   634.88         6.9468
   635.02         6.9603
   635.16         6.9718
   635.30         6.9807
   635.44         6.9871
   635.58         6.9912
   635.72         6.9930
   635.86         6.9924
   636.00         6.9900
   636.14         6.9863
   636.28         6.9823
   636.42         6.9792
   636.56         6.9775
   636.70         6.9769
   636.84         6.9763
   636.98         6.9747
   637.12         6.9709
   637.26         6.9642
   637.40         6.9546
   637.54         6.9436
   637.68         6.9326
   637.82         6.9235
   637.96         6.9175
   638.10         6.9149
   638.24         6.9156
   638.38         6.9192
   638.52         6.9250
   638.66         6.9323
   638.80         6.9400
   638.94         6.9468
   639.08         6.9520
   639.22         6.9550
   639.36         6.9553
   639.50         6.9528
   639.64         6.9472
   639.78         6.9386
   639.92         6.9275
   640.06         6.9149
   640.20         6.9025
   640.34         6.8915
   640.48         6.8828
   640.62         6.8768
   640.76         6.8734
   640.90         6.8721
   641.04         6.8723
   641.18         6.8737
   641.32         6.8757
   641.46         6.8776
   641.60         6.8792
   641.74         6.8803
   641.88         6.8799
   642.02         6.8766
   642.16         6.8692
   642.30         6.8575
   642.44         6.8425
   642.58         6.8257
   642.72         6.8082
   642.86         6.7906
   643.00         6.7741
   643.14         6.7596
   643.28         6.7486
   643.42         6.7420
   643.56         6.7405
   643.70         6.7437
   643.84         6.7502
   643.98         6.7579
   644.12         6.7654
   644.26         6.7711
   644.40         6.7734
   644.54         6.7715
   644.68         6.7657
   644.82         6.7563
   644.96         6.7443
   645.10         6.7309
   645.24         6.7171
   645.38         6.7037
   645.52         6.6926
   645.66         6.6857
   645.80         6.6838
   645.94         6.6867
   646.08         6.6931
   646.22         6.7021
   646.36         6.7130
   646.50         6.7260
   646.64         6.7413
   646.78         6.7592
   646.92         6.7789
   647.06         6.7996
   647.20         6.8205
   647.34         6.8406
   647.48         6.8588
   647.62         6.8740
   647.76         6.8855
   647.90         6.8925
   648.04         6.8941
   648.18         6.8899
   648.32         6.8789
   648.46         6.8596
   648.60         6.8313
   648.74         6.7948
   648.88         6.7529
   649.02         6.7095
   649.16         6.6691
   649.30         6.6358
   649.44         6.6128
   649.58         6.6012
   649.72         6.6016
   649.86         6.6136
   650.00         6.6360
   650.14         6.6662
   650.28         6.7012
   650.42         6.7375
   650.56         6.7717
   650.70         6.8016
   650.84         6.8254
   650.98         6.8426
   651.12         6.8537
   651.26         6.8611
   651.40         6.8676
   651.54         6.8754
   651.68         6.8852
   651.82         6.8961
   651.96         6.9063
   652.10         6.9143
   652.24         6.9192
   652.38         6.9215
   652.52         6.9221
   652.66         6.9216
   652.80         6.9199
   652.94         6.9167
   653.08         6.9121
   653.22         6.9062
   653.36         6.8988
   653.50         6.8891
   653.64         6.8764
   653.78         6.8597
   653.92         6.8376
   654.06         6.8088
   654.20         6.7717
   654.34         6.7257
   654.48         6.6706
   654.62         6.6068
   654.76         6.5347
   654.90         6.4529
   655.04         6.3581
   655.18         6.2470
   655.32         6.1184
   655.46         5.9756
   655.60         5.8256
   655.74         5.6778
   655.88         5.5422
   656.02         5.4286
   656.16         5.3457
   656.30         5.3004
   656.44         5.2966
   656.58         5.3349
   656.72         5.4124
   656.86         5.5224
   657.00         5.6558
   657.14         5.8020
   657.28         5.9500
   657.42         6.0898
   657.56         6.2125
   657.70         6.3132
   657.84         6.3916
   657.98         6.4512
   658.12         6.4957
   658.26         6.5275
   658.40         6.5482
   658.54         6.5599
   658.68         6.5647
   658.82         6.5645
   658.96         6.5611
   659.10         6.5556
   659.24         6.5492
   659.38         6.5424
   659.52         6.5358
   659.66         6.5304
   659.80         6.5267
   659.94         6.5248
   660.08         6.5238
   660.22         6.5227
   660.36         6.5214
   660.50         6.5200
   660.64         6.5189
   660.78         6.5188
   660.92         6.5204
   661.06         6.5249
   661.20         6.5325
   661.34         6.5430
   661.48         6.5558
   661.62         6.5696
   661.76         6.5829
   661.90         6.5941
   662.04         6.6014
   662.18         6.6034
   662.32         6.5997
   662.46         6.5900
   662.60         6.5754
   662.74         6.5578
   662.88         6.5398
   663.02         6.5237
   663.16         6.5114
   663.30         6.5041
   663.44         6.5026
   663.58         6.5066
   663.72         6.5149
   663.86         6.5265
   664.00         6.5398
   664.14         6.5530
   664.28         6.5639
   664.42         6.5714
   664.56         6.5749
   664.70         6.5744
   664.84         6.5710
   664.98         6.5659
   665.12         6.5601
   665.26         6.5545
   665.40         6.5493
   665.54         6.5437
   665.68         6.5368
   665.82         6.5278
   665.96         6.5167
   666.10         6.5037
   666.24         6.4889
   666.38         6.4729
   666.52         6.4568
   666.66         6.4406
   666.80         6.4245
   666.94         6.4092
   667.08         6.3961
   667.22         6.3866
   667.36         6.3813
   667.50         6.3798
   667.64         6.3806
   667.78         6.3822
   667.92         6.3836
   668.06         6.3844
   668.20         6.3846
   668.34         6.3848
   668.48         6.3856
   668.62         6.3871
   668.76         6.3899
   668.90         6.3941
   669.04         6.3998
   669.18         6.4068
   669.32         6.4143
   669.46         6.4216
   669.60         6.4277
   669.74         6.4314
   669.88         6.4312
   670.02         6.4262
   670.16         6.4159
   670.30         6.4008
   670.44         6.3821
   670.58         6.3613
   670.72         6.3391
   670.86         6.3161
   671.00         6.2930
   671.14         6.2715
   671.28         6.2534
   671.42         6.2403
   671.56         6.2331
   671.70         6.2321
   671.84         6.2366
   671.98         6.2457
   672.12         6.2581
   672.26         6.2723
   672.40         6.2874
   672.54         6.3027
   672.68         6.3173
   672.82         6.3300
   672.96         6.3401
   673.10         6.3464
   673.24         6.3481
   673.38         6.3452
   673.52         6.3390
   673.66         6.3307
   673.80         6.3213
   673.94         6.3107
   674.08         6.2990
   674.22         6.2867
   674.36         6.2741
   674.50         6.2615
   674.64         6.2497
   674.78         6.2387
   674.92         6.2292
   675.06         6.2219
   675.20         6.2173
   675.34         6.2154
   675.48         6.2157
   675.62         6.2173
   675.76         6.2202
   675.90         6.2249
   676.04         6.2320
   676.18         6.2413
   676.32         6.2518
   676.46         6.2625
   676.60         6.2725
   676.74         6.2807
   676.88         6.2862
   677.02         6.2883
   677.16         6.2866
   677.30         6.2815
   677.44         6.2732
   677.58         6.2627
   677.72         6.2506
   677.86         6.2375
   678.00         6.2241
   678.14         6.2115
   678.28         6.2008
   678.42         6.1932
   678.56         6.1893
   678.70         6.1893
   678.84         6.1934
   678.98         6.2010
   679.12         6.2112
   679.26         6.2225
   679.40         6.2332
   679.54         6.2417
   679.68         6.2465
   679.82         6.2468
   679.96         6.2423
   680.10         6.2333
   680.24         6.2204
   680.38         6.2045
   680.52         6.1873
   680.66         6.1702
   680.80         6.1542
   680.94         6.1405
   681.08         6.1305
   681.22         6.1249
   681.36         6.1238
   681.50         6.1265
   681.64         6.1313
   681.78         6.1366
   681.92         6.1413
   682.06         6.1446
   682.20         6.1458
   682.34         6.1444
   682.48         6.1401
   682.62         6.1325
   682.76         6.1212
   682.90         6.1056
   683.04         6.0858
   683.18         6.0621
   683.32         6.0364
   683.46         6.0108
   683.60         5.9876
   683.74         5.9680
   683.88         5.9530
   684.02         5.9433
   684.16         5.9395
   684.30         5.9413
   684.44         5.9479
   684.58         5.9583
   684.72         5.9710
   684.86         5.9847
   685.00         5.9983
   685.14         6.0106
   685.28         6.0202
   685.42         6.0254
   685.56         6.0230
   685.70         6.0081
   685.84         5.9756
   685.98         5.9218
   686.12         5.8444
   686.26         5.7435
   686.40         5.6223
   686.54         5.4874
   686.68         5.3468
   686.82         5.2096
   686.96         5.0853
   687.10         4.9833
   687.24         4.9110
   687.38         4.8726
   687.52         4.8680
   687.66         4.8932
   687.80         4.9412
   687.94         5.0029
   688.08         5.0687
   688.22         5.1299
   688.36         5.1805
   688.50         5.2179
   688.64         5.2434
   688.78         5.2602
   688.92         5.2719
   689.06         5.2824
   689.20         5.2948
   689.34         5.3112
   689.48         5.3329
   689.62         5.3603
   689.76         5.3923
   689.90         5.4268
   690.04         5.4613
   690.18         5.4941
   690.32         5.5238
   690.46         5.5496
   690.60         5.5714
   690.74         5.5897
   690.88         5.6050
   691.02         5.6183
   691.16         5.6309
   691.30         5.6444
   691.44         5.6592
   691.58         5.6755
   691.72         5.6927
   691.86         5.7106
   692.00         5.7295
   692.14         5.7501
   692.28         5.7721
   692.42         5.7948
   692.56         5.8170
   692.70         5.8377
   692.84         5.8551
   692.98         5.8681
   693.12         5.8759
   693.26         5.8787
   693.40         5.8770
   693.54         5.8713
   693.68         5.8620
   693.82         5.8490
   693.96         5.8324
   694.10         5.8137
   694.24         5.7948
   694.38         5.7779
   694.52         5.7651
   694.66         5.7575
   694.80         5.7555
   694.94         5.7583
   695.08         5.7650
   695.22         5.7746
   695.36         5.7858
   695.50         5.7972
   695.64         5.8084
   695.78         5.8192
   695.92         5.8299
   696.06         5.8408
   696.20         5.8521
   696.34         5.8638
   696.48         5.8761
   696.62         5.8891
   696.76         5.9026
   696.90         5.9160
   697.04         5.9281
   697.18         5.9376
   697.32         5.9436
   697.46         5.9455
   697.60         5.9429
   697.74         5.9359
   697.88         5.9251
   698.02         5.9116
   698.16         5.8967
   698.30         5.8819
   698.44         5.8686
   698.58         5.8580
   698.72         5.8502
   698.86         5.8446
   699.00         5.8401
   699.14         5.8358
   699.28         5.8304
   699.42         5.8232
   699.56         5.8140
   699.70         5.8027
   699.84         5.7892
   699.98         5.7737
   700.12         5.7570
   700.26         5.7405
   700.40         5.7256
   700.54         5.7134
   700.68         5.7044
   700.82         5.6987
   700.96         5.6966
   701.10         5.6980
   701.24         5.7022
   701.38         5.7084
   701.52         5.7158
   701.66         5.7239
   701.80         5.7324
   701.94         5.7409
   702.08         5.7489
   702.22         5.7559
   702.36         5.7616
   702.50         5.7663
   702.64         5.7703
   702.78         5.7744
   702.92         5.7783
   703.06         5.7808
   703.20         5.7811
   703.34         5.7791
   703.48         5.7750
   703.62         5.7690
   703.76         5.7614
   703.90         5.7528
   704.04         5.7436
   704.18         5.7339
   704.32         5.7241
   704.46         5.7152
   704.60         5.7086
   704.74         5.7056
   704.88         5.7069
   705.02         5.7128
   705.16         5.7225
   705.30         5.7342
   705.44         5.7460
   705.58         5.7557
   705.72         5.7623
   705.86         5.7650
   706.00         5.7643
   706.14         5.7611
   706.28         5.7565
   706.42         5.7513
   706.56         5.7466
   706.70         5.7433
   706.84         5.7430
   706.98         5.7470
   707.12         5.7560
   707.26         5.7693
   707.40         5.7852
   707.54         5.8020
   707.68         5.8186
   707.82         5.8339
   707.96         5.8471
   708.10         5.8579
   708.24         5.8661
   708.38         5.8721
   708.52         5.8769
   708.66         5.8812
   708.80         5.8855
   708.94         5.8892
   709.08         5.8919
   709.22         5.8936
   709.36         5.8944
   709.50         5.8938
   709.64         5.8907
   709.78         5.8837
   709.92         5.8719
   710.06         5.8544
   710.20         5.8317
   710.34         5.8047
   710.48         5.7755
   710.62         5.7464
   710.76         5.7200
   710.90         5.6979
   711.04         5.6814
   711.18         5.6707
   711.32         5.6659
   711.46         5.6665
   711.60         5.6720
   711.74         5.6815
   711.88         5.6944
   712.02         5.7092
   712.16         5.7238
   712.30         5.7370
   712.44         5.7487
   712.58         5.7597
   712.72         5.7712
   712.86         5.7845
   713.00         5.8006
   713.14         5.8200
   713.28         5.8420
   713.42         5.8644
   713.56         5.8843
   713.70         5.8994
   713.84         5.9087
   713.98         5.9121
   714.12         5.9098
   714.26         5.9021
   714.40         5.8898
   714.54         5.8736
   714.68         5.8547
   714.82         5.8345
   714.96         5.8148
   715.10         5.7972
   715.24         5.7820
   715.38         5.7683
   715.52         5.7550
   715.66         5.7406
   715.80         5.7243
   715.94         5.7056
   716.08         5.6844
   716.22         5.6608
   716.36         5.6361
   716.50         5.6116
   716.64         5.5884
   716.78         5.5679
   716.92         5.5501
   717.06         5.5341
   717.20         5.5186
   717.34         5.5025
   717.48         5.4842
   717.62         5.4625
   717.76         5.4372
   717.90         5.4089
   718.04         5.3786
   718.18         5.3477
   718.32         5.3181
   718.46         5.2919
   718.60         5.2713
   718.74         5.2572
   718.88         5.2498
   719.02         5.2489
   719.16         5.2543
   719.30         5.2653
   719.44         5.2800
   719.58         5.2956
   719.72         5.3101
   719.86         5.3236
   720.00         5.3365
   720.14         5.3501
   720.28         5.3662
   720.42         5.3863
   720.56         5.4112
   720.70         5.4411
   720.84         5.4758
   720.98         5.5152
   721.12         5.5586
   721.26         5.6035
   721.40         5.6458
   721.54         5.6816
   721.68         5.7083
   721.82         5.7237
   721.96         5.7266
   722.10         5.7161
   722.24         5.6924
   722.38         5.6570
   722.52         5.6126
   722.66         5.5631
   722.80         5.5127
   722.94         5.4640
   723.08         5.4197
   723.22         5.3823
   723.36         5.3537
   723.50         5.3342
   723.64         5.3232
   723.78         5.3196
   723.92         5.3216
   724.06         5.3270
   724.20         5.3337
   724.34         5.3395
   724.48         5.3424
   724.62         5.3413
   724.76         5.3355
   724.90         5.3254
   725.04         5.3117
   725.18         5.2952
   725.32         5.2768
   725.46         5.2575
   725.60         5.2397
   725.74         5.2270
   725.88         5.2227
   726.02         5.2283
   726.16         5.2440
   726.30         5.2693
   726.44         5.3022
   726.58         5.3384
   726.72         5.3736
   726.86         5.4051
   727.00         5.4307
   727.14         5.4495
   727.28         5.4610
   727.42         5.4648
   727.56         5.4611
   727.70         5.4494
   727.84         5.4300
   727.98         5.4043
   728.12         5.3749
   728.26         5.3437
   728.40         5.3120
   728.54         5.2810
   728.68         5.2521
   728.82         5.2276
   728.96         5.2094
   729.10         5.1986
   729.24         5.1956
   729.38         5.2008
   729.52         5.2136
   729.66         5.2317
   729.80         5.2515
   729.94         5.2694
   730.08         5.2824
   730.22         5.2884
   730.36         5.2867
   730.50         5.2785
   730.64         5.2658
   730.78         5.2507
   730.92         5.2354
   731.06         5.2217
   731.20         5.2114
   731.34         5.2052
   731.48         5.2027
   731.62         5.2032
   731.76         5.2060
   731.90         5.2104
   732.04         5.2154
   732.18         5.2199
   732.32         5.2231
   732.46         5.2253
   732.60         5.2275
   732.74         5.2309
   732.88         5.2359
   733.02         5.2418
   733.16         5.2474
   733.30         5.2516
   733.44         5.2538
   733.58         5.2538
   733.72         5.2510
   733.86         5.2449
   734.00         5.2352
   734.14         5.2225
   734.28         5.2080
   734.42         5.1925
   734.56         5.1770
   734.70         5.1629
   734.84         5.1523
   734.98         5.1470
   735.12         5.1473
   735.26         5.1518
   735.40         5.1582
   735.54         5.1644
   735.68         5.1686
   735.82         5.1697
   735.96         5.1678
   736.10         5.1632
   736.24         5.1569
   736.38         5.1502
   736.52         5.1446
   736.66         5.1413
   736.80         5.1411
   736.94         5.1444
   737.08         5.1508
   737.22         5.1592
   737.36         5.1683
   737.50         5.1756
   737.64         5.1787
   737.78         5.1759
   737.92         5.1674
   738.06         5.1553
   738.20         5.1424
   738.34         5.1310
   738.48         5.1228
   738.62         5.1185
   738.76         5.1175
   738.90         5.1185
   739.04         5.1200
   739.18         5.1208
   739.32         5.1206
   739.46         5.1195
   739.60         5.1180
   739.74         5.1161
   739.88         5.1138
   740.02         5.1115
   740.16         5.1102
   740.30         5.1108
   740.44         5.1140
   740.58         5.1200
   740.72         5.1283
   740.86         5.1376
   741.00         5.1461
   741.14         5.1518
   741.28         5.1537
   741.42         5.1510
   741.56         5.1441
   741.70         5.1342
   741.84         5.1222
   741.98         5.1084
   742.12         5.0934
   742.26         5.0779
   742.40         5.0629
   742.54         5.0498
   742.68         5.0403
   742.82         5.0353
   742.96         5.0353
   743.10         5.0403
   743.24         5.0498
   743.38         5.0629
   743.52         5.0779
   743.66         5.0934
   743.80         5.1084
   743.94         5.1222
   744.08         5.1342
   744.22         5.1441
