# File HD236894
# Wavelength [nm]    Normalized Amplitude
   349.70         145.8290
   349.84         146.1419
   349.98         146.4283
   350.12         146.7155
   350.26         147.0125
   350.40         147.3041
   350.54         147.5701
   350.68         147.7954
   350.82         147.9606
   350.96         148.0556
   351.10         148.0863
   351.24         148.0556
   351.38         147.9606
   351.52         147.7954
   351.66         147.5701
   351.80         147.3041
   351.94         147.0125
   352.08         146.7155
   352.22         146.4283
   352.36         146.1419
   352.50         145.8290
   352.64         145.4603
   352.78         145.0209
   352.92         144.5158
   353.06         143.9676
   353.20         143.4103
   353.34         142.8870
   353.48         142.4496
   353.62         142.1427
   353.76         141.9697
   353.90         141.8936
   354.04         141.8683
   354.18         141.8500
   354.32         141.8165
   354.46         141.7819
   354.60         141.7743
   354.74         141.8081
   354.88         141.8793
   355.02         141.9765
   355.16         142.0873
   355.30         142.1958
   355.44         142.2796
   355.58         142.3094
   355.72         142.2540
   355.86         142.0881
   356.00         141.8023
   356.14         141.4005
   356.28         140.8963
   356.42         140.3181
   356.56         139.7036
   356.70         139.0961
   356.84         138.5461
   356.98         138.0996
   357.12         137.7702
   357.26         137.5245
   357.40         137.3081
   357.54         137.0758
   357.68         136.7970
   357.82         136.4506
   357.96         136.0266
   358.10         135.5351
   358.24         135.0065
   358.38         134.4804
   358.52         134.0024
   358.66         133.6141
   358.80         133.3366
   358.94         133.1606
   359.08         133.0538
   359.22         132.9968
   359.36         132.9968
   359.50         133.0620
   359.64         133.1770
   359.78         133.3086
   359.92         133.4345
   360.06         133.5519
   360.20         133.6608
   360.34         133.7639
   360.48         133.8680
   360.62         133.9827
   360.76         134.1246
   360.90         134.3017
   361.04         134.5081
   361.18         134.7269
   361.32         134.9281
   361.46         135.0813
   361.60         135.1680
   361.74         135.1791
   361.88         135.1025
   362.02         134.9117
   362.16         134.5777
   362.30         134.0882
   362.44         133.4636
   362.58         132.7515
   362.72         132.0092
   362.86         131.3024
   363.00         130.6972
   363.14         130.2264
   363.28         129.9044
   363.42         129.7451
   363.56         129.7367
   363.70         129.8375
   363.84         129.9885
   363.98         130.1367
   364.12         130.2434
   364.26         130.2836
   364.40         130.2516
   364.54         130.1634
   364.68         130.0643
   364.82         130.0143
   364.96         130.0573
   365.10         130.2023
   365.24         130.4250
   365.38         130.6826
   365.52         130.9212
   365.66         131.0825
   365.80         131.1277
   365.94         131.0482
   366.08         130.8460
   366.22         130.5332
   366.36         130.1530
   366.50         129.7752
   366.64         129.4715
   366.78         129.2851
   366.92         129.2245
   367.06         129.2721
   367.20         129.3815
   367.34         129.4850
   367.48         129.5122
   367.62         129.4039
   367.76         129.1214
   367.90         128.6560
   368.04         128.0255
   368.18         127.2551
   368.32         126.3786
   368.46         125.4485
   368.60         124.5260
   368.74         123.6811
   368.88         122.9807
   369.02         122.4549
   369.16         122.0831
   369.30         121.8101
   369.44         121.5713
   369.58         121.3170
   369.72         121.0207
   369.86         120.6706
   370.00         120.2726
   370.14         119.8520
   370.28         119.4401
   370.42         119.0666
   370.56         118.7545
   370.70         118.5084
   370.84         118.3214
   370.98         118.1983
   371.12         118.1503
   371.26         118.1728
   371.40         118.2412
   371.54         118.3196
   371.68         118.3740
   371.82         118.3874
   371.96         118.3585
   372.10         118.2905
   372.24         118.1844
   372.38         118.0428
   372.52         117.8801
   372.66         117.7182
   372.80         117.5792
   372.94         117.4833
   373.08         117.4510
   373.22         117.4911
   373.36         117.5895
   373.50         117.7207
   373.64         117.8453
   373.78         117.9065
   373.92         117.8486
   374.06         117.6396
   374.20         117.2774
   374.34         116.7836
   374.48         116.1972
   374.62         115.5680
   374.76         114.9502
   374.90         114.4071
   375.04         114.0125
   375.18         113.8228
   375.32         113.8489
   375.46         114.0696
   375.60         114.4407
   375.74         114.8784
   375.88         115.2628
   376.02         115.4778
   376.16         115.4539
   376.30         115.1787
   376.44         114.7038
   376.58         114.1375
   376.72         113.6115
   376.86         113.2467
   377.00         113.1325
   377.14         113.3203
   377.28         113.8209
   377.42         114.6062
   377.56         115.6246
   377.70         116.8067
   377.84         118.0558
   377.98         119.2536
   378.12         120.2844
   378.26         121.0426
   378.40         121.4338
   378.54         121.3910
   378.68         120.8948
   378.82         119.9802
   378.96         118.7274
   379.10         117.2509
   379.24         115.6884
   379.38         114.1895
   379.52         112.9035
   379.66         111.9627
   379.80         111.4702
   379.94         111.4948
   380.08         112.0602
   380.22         113.1310
   380.36         114.6081
   380.50         116.3353
   380.64         118.1160
   380.78         119.7488
   380.92         121.0683
   381.06         121.9704
   381.20         122.4205
   381.34         122.4541
   381.48         122.1615
   381.62         121.6573
   381.76         121.0558
   381.90         120.4520
   382.04         119.8898
   382.18         119.3475
   382.32         118.7682
   382.46         118.0934
   382.60         117.2813
   382.74         116.3173
   382.88         115.2170
   383.02         114.0306
   383.16         112.8427
   383.30         111.7653
   383.44         110.9266
   383.58         110.4428
   383.72         110.3857
   383.86         110.7674
   384.00         111.5506
   384.14         112.6634
   384.28         113.9979
   384.42         115.4184
   384.56         116.7826
   384.70         117.9634
   384.84         118.8792
   384.98         119.5068
   385.12         119.8632
   385.26         119.9852
   385.40         119.9141
   385.54         119.6840
   385.68         119.3291
   385.82         118.8924
   385.96         118.4215
   386.10         117.9633
   386.24         117.5565
   386.38         117.2286
   386.52         116.9996
   386.66         116.8806
   386.80         116.8639
   386.94         116.9135
   387.08         116.9719
   387.22         116.9684
   387.36         116.8207
   387.50         116.4376
   387.64         115.7293
   387.78         114.6304
   387.92         113.1284
   388.06         111.2819
   388.20         109.2195
   388.34         107.1119
   388.48         105.1378
   388.62         103.4647
   388.76         102.2349
   388.90         101.5481
   389.04         101.4553
   389.18         101.9557
   389.32         102.9898
   389.46         104.4405
   389.60         106.1510
   389.74         107.9538
   389.88         109.6870
   390.02         111.2062
   390.16         112.4047
   390.30         113.2358
   390.44         113.7204
   390.58         113.9214
   390.72         113.9143
   390.86         113.7699
   391.00         113.5430
   391.14         113.2725
   391.28         112.9847
   391.42         112.6895
   391.56         112.3790
   391.70         112.0338
   391.84         111.6359
   391.98         111.1704
   392.12         110.6203
   392.26         109.9717
   392.40         109.2340
   392.54         108.4475
   392.68         107.6686
   392.82         106.9588
   392.96         106.3840
   393.10         105.9999
   393.24         105.8375
   393.38         105.9111
   393.52         106.2177
   393.66         106.7246
   393.80         107.3709
   393.94         108.0894
   394.08         108.8169
   394.22         109.4927
   394.36         110.0627
   394.50         110.4853
   394.64         110.7301
   394.78         110.7736
   394.92         110.6074
   395.06         110.2429
   395.20         109.6859
   395.34         108.9250
   395.48         107.9369
   395.62         106.6859
   395.76         105.1347
   395.90         103.2769
   396.04         101.1658
   396.18         98.9088
   396.32         96.6470
   396.46         94.5449
   396.60         92.7713
   396.74         91.4640
   396.88         90.7088
   397.02         90.5457
   397.16         90.9705
   397.30         91.9294
   397.44         93.3191
   397.58         95.0061
   397.72         96.8434
   397.86         98.6792
   398.00         100.3771
   398.14         101.8284
   398.28         102.9673
   398.42         103.7858
   398.56         104.3224
   398.70         104.6371
   398.84         104.7874
   398.98         104.8156
   399.12         104.7488
   399.26         104.6019
   399.40         104.3822
   399.54         104.0998
   399.68         103.7714
   399.82         103.4115
   399.96         103.0284
   400.10         102.6311
   400.24         102.2336
   400.38         101.8461
   400.52         101.4715
   400.66         101.1070
   400.80         100.7488
   400.94         100.3954
   401.08         100.0417
   401.22         99.6689
   401.36         99.2453
   401.50         98.7390
   401.64         98.1366
   401.78         97.4527
   401.92         96.7283
   402.06         96.0223
   402.20         95.4021
   402.34         94.9307
   402.48         94.6540
   402.62         94.5983
   402.76         94.7697
   402.90         95.1483
   403.04         95.6880
   403.18         96.3325
   403.32         97.0253
   403.46         97.7060
   403.60         98.3105
   403.74         98.7838
   403.88         99.0971
   404.02         99.2568
   404.16         99.2999
   404.30         99.2740
   404.44         99.2143
   404.58         99.1375
   404.72         99.0487
   404.86         98.9439
   405.00         98.8093
   405.14         98.6241
   405.28         98.3710
   405.42         98.0373
   405.56         97.6115
   405.70         97.0848
   405.84         96.4565
   405.98         95.7352
   406.12         94.9424
   406.26         94.1204
   406.40         93.3261
   406.54         92.6087
   406.68         91.9990
   406.82         91.5174
   406.96         91.1803
   407.10         90.9927
   407.24         90.9413
   407.38         90.9943
   407.52         91.1040
   407.66         91.2171
   407.80         91.2916
   407.94         91.3049
   408.08         91.2467
   408.22         91.1106
   408.36         90.8899
   408.50         90.5710
   408.64         90.1313
   408.78         89.5375
   408.92         88.7462
   409.06         87.7176
   409.20         86.4408
   409.34         84.9577
   409.48         83.3613
   409.62         81.7705
   409.76         80.3079
   409.90         79.0913
   410.04         78.2214
   410.18         77.7701
   410.32         77.7703
   410.46         78.2057
   410.60         79.0126
   410.74         80.0891
   410.88         81.3055
   411.02         82.5211
   411.16         83.6123
   411.30         84.4970
   411.44         85.1434
   411.58         85.5692
   411.72         85.8362
   411.86         86.0299
   412.00         86.2305
   412.14         86.4883
   412.28         86.8159
   412.42         87.2006
   412.56         87.6163
   412.70         88.0290
   412.84         88.4044
   412.98         88.7076
   413.12         88.9076
   413.26         88.9899
   413.40         88.9531
   413.54         88.8033
   413.68         88.5583
   413.82         88.2519
   413.96         87.9232
   414.10         87.6037
   414.24         87.3138
   414.38         87.0644
   414.52         86.8600
   414.66         86.6993
   414.80         86.5745
   414.94         86.4773
   415.08         86.4050
   415.22         86.3561
   415.36         86.3251
   415.50         86.3030
   415.64         86.2804
   415.78         86.2556
   415.92         86.2306
   416.06         86.2034
   416.20         86.1662
   416.34         86.1117
   416.48         86.0352
   416.62         85.9318
   416.76         85.8011
   416.90         85.6507
   417.04         85.4912
   417.18         85.3301
   417.32         85.1693
   417.46         85.0073
   417.60         84.8442
   417.74         84.6805
   417.88         84.5168
   418.02         84.3498
   418.16         84.1756
   418.30         83.9940
   418.44         83.8016
   418.58         83.5856
   418.72         83.3288
   418.86         83.0211
   419.00         82.6642
   419.14         82.2712
   419.28         81.8634
   419.42         81.4676
   419.56         81.1104
   419.70         80.8119
   419.84         80.5844
   419.98         80.4344
   420.12         80.3648
   420.26         80.3761
   420.40         80.4659
   420.54         80.6250
   420.68         80.8329
   420.82         81.0632
   420.96         81.2889
   421.10         81.4838
   421.24         81.6333
   421.38         81.7381
   421.52         81.8066
   421.66         81.8460
   421.80         81.8633
   421.94         81.8607
   422.08         81.8321
   422.22         81.7656
   422.36         81.6547
   422.50         81.5029
   422.64         81.3261
   422.78         81.1484
   422.92         80.9915
   423.06         80.8671
   423.20         80.7769
   423.34         80.7189
   423.48         80.6912
   423.62         80.6865
   423.76         80.6926
   423.90         80.6918
   424.04         80.6614
   424.18         80.5833
   424.32         80.4519
   424.46         80.2714
   424.60         80.0494
   424.74         79.7967
   424.88         79.5330
   425.02         79.2827
   425.16         79.0637
   425.30         78.8840
   425.44         78.7434
   425.58         78.6377
   425.72         78.5629
   425.86         78.5153
   426.00         78.4883
   426.14         78.4695
   426.28         78.4444
   426.42         78.4036
   426.56         78.3439
   426.70         78.2670
   426.84         78.1772
   426.98         78.0764
   427.12         77.9651
   427.26         77.8467
   427.40         77.7273
   427.54         77.6129
   427.68         77.5077
   427.82         77.4117
   427.96         77.3195
   428.10         77.2232
   428.24         77.1191
   428.38         77.0078
   428.52         76.8921
   428.66         76.7778
   428.80         76.6724
   428.94         76.5840
   429.08         76.5190
   429.22         76.4793
   429.36         76.4597
   429.50         76.4541
   429.64         76.4595
   429.78         76.4731
   429.92         76.4916
   430.06         76.5116
   430.20         76.5300
   430.34         76.5415
   430.48         76.5379
   430.62         76.5125
   430.76         76.4659
   430.90         76.4048
   431.04         76.3351
   431.18         76.2577
   431.32         76.1693
   431.46         76.0648
   431.60         75.9397
   431.74         75.7923
   431.88         75.6243
   432.02         75.4399
   432.16         75.2452
   432.30         75.0401
   432.44         74.8053
   432.58         74.4995
   432.72         74.0657
   432.86         73.4444
   433.00         72.5955
   433.14         71.5174
   433.28         70.2528
   433.42         68.8793
   433.56         67.4941
   433.70         66.2009
   433.84         65.1006
   433.98         64.2797
   434.12         63.8045
   434.26         63.7139
   434.40         64.0108
   434.54         64.6613
   434.68         65.6026
   434.82         66.7514
   434.96         68.0082
   435.10         69.2665
   435.24         70.4325
   435.38         71.4428
   435.52         72.2674
   435.66         72.9062
   435.80         73.3769
   435.94         73.7035
   436.08         73.9083
   436.22         74.0089
   436.36         74.0207
   436.50         73.9586
   436.64         73.8371
   436.78         73.6713
   436.92         73.4755
   437.06         73.2622
   437.20         73.0395
   437.34         72.8079
   437.48         72.5585
   437.62         72.2751
   437.76         71.9435
   437.90         71.5587
   438.04         71.1263
   438.18         70.6640
   438.32         70.2015
   438.46         69.7754
   438.60         69.4168
   438.74         69.1449
   438.88         68.9676
   439.02         68.8818
   439.16         68.8751
   439.30         68.9312
   439.44         69.0332
   439.58         69.1643
   439.72         69.3036
   439.86         69.4244
   440.00         69.5038
   440.14         69.5299
   440.28         69.5018
   440.42         69.4244
   440.56         69.3052
   440.70         69.1546
   440.84         68.9834
   440.98         68.7948
   441.12         68.5804
   441.26         68.3272
   441.40         68.0255
   441.54         67.6701
   441.68         67.2627
   441.82         66.8146
   441.96         66.3442
   442.10         65.8738
   442.24         65.4254
   442.38         65.0176
   442.52         64.6657
   442.66         64.3841
   442.80         64.1867
   442.94         64.0807
   443.08         64.0626
   443.22         64.1231
   443.36         64.2502
   443.50         64.4263
   443.64         64.6309
   443.78         64.8485
   443.92         65.0721
   444.06         65.2971
   444.20         65.5220
   444.34         65.7481
   444.48         65.9727
   444.62         66.1892
   444.76         66.3921
   444.90         66.5780
   445.04         66.7424
   445.18         66.8793
   445.32         66.9821
   445.46         67.0447
   445.60         67.0541
   445.74         66.9868
   445.88         66.8154
   446.02         66.5177
   446.16         66.0893
   446.30         65.5519
   446.44         64.9515
   446.58         64.3473
   446.72         63.7954
   446.86         63.3410
   447.00         63.0148
   447.14         62.8353
   447.28         62.8121
   447.42         62.9429
   447.56         63.2122
   447.70         63.5907
   447.84         64.0397
   447.98         64.5134
   448.12         64.9649
   448.26         65.3549
   448.40         65.6565
   448.54         65.8608
   448.68         65.9773
   448.82         66.0266
   448.96         66.0275
   449.10         65.9902
   449.24         65.9185
   449.38         65.8119
   449.52         65.6691
   449.66         65.4921
   449.80         65.2866
   449.94         65.0613
   450.08         64.8241
   450.22         64.5801
   450.36         64.3330
   450.50         64.0831
   450.64         63.8285
   450.78         63.5711
   450.92         63.3154
   451.06         63.0645
   451.20         62.8261
   451.34         62.6137
   451.48         62.4383
   451.62         62.3054
   451.76         62.2191
   451.90         62.1770
   452.04         62.1682
   452.18         62.1796
   452.32         62.2008
   452.46         62.2240
   452.60         62.2402
   452.74         62.2359
   452.88         62.1959
   453.02         62.1089
   453.16         61.9698
   453.30         61.7800
   453.44         61.5462
   453.58         61.2795
   453.72         60.9961
   453.86         60.7136
   454.00         60.4469
   454.14         60.2099
   454.28         60.0183
   454.42         59.8860
   454.56         59.8187
   454.70         59.8137
   454.84         59.8633
   454.98         59.9550
   455.12         60.0728
   455.26         60.2002
   455.40         60.3209
   455.54         60.4228
   455.68         60.5029
   455.82         60.5672
   455.96         60.6239
   456.10         60.6762
   456.24         60.7242
   456.38         60.7678
   456.52         60.8079
   456.66         60.8445
   456.80         60.8753
   456.94         60.8961
   457.08         60.9029
   457.22         60.8900
   457.36         60.8522
   457.50         60.7882
   457.64         60.6968
   457.78         60.5780
   457.92         60.4380
   458.06         60.2876
   458.20         60.1358
   458.34         59.9899
   458.48         59.8553
   458.62         59.7339
   458.76         59.6264
   458.90         59.5376
   459.04         59.4703
   459.18         59.4203
   459.32         59.3817
   459.46         59.3514
   459.60         59.3276
   459.74         59.3089
   459.88         59.2957
   460.02         59.2916
   460.16         59.2989
   460.30         59.3138
   460.44         59.3338
   460.58         59.3588
   460.72         59.3853
   460.86         59.4088
   461.00         59.4288
   461.14         59.4484
   461.28         59.4718
   461.42         59.5027
   461.56         59.5393
   461.70         59.5742
   461.84         59.5982
   461.98         59.6028
   462.12         59.5776
   462.26         59.5136
   462.40         59.4052
   462.54         59.2484
   462.68         59.0437
   462.82         58.7977
   462.96         58.5204
   463.10         58.2257
   463.24         57.9282
   463.38         57.6382
   463.52         57.3588
   463.66         57.0857
   463.80         56.8102
   463.94         56.5222
   464.08         56.2151
   464.22         55.8888
   464.36         55.5518
   464.50         55.2244
   464.64         54.9378
   464.78         54.7274
   464.92         54.6227
   465.06         54.6380
   465.20         54.7729
   465.34         55.0160
   465.48         55.3431
   465.62         55.7199
   465.76         56.1106
   465.90         56.4814
   466.04         56.8028
   466.18         57.0524
   466.32         57.2218
   466.46         57.3157
   466.60         57.3471
   466.74         57.3341
   466.88         57.2903
   467.02         57.2220
   467.16         57.1268
   467.30         56.9919
   467.44         56.8004
   467.58         56.5409
   467.72         56.2166
   467.86         55.8454
   468.00         55.4518
   468.14         55.0599
   468.28         54.6969
   468.42         54.3910
   468.56         54.1676
   468.70         54.0471
   468.84         54.0366
   468.98         54.1276
   469.12         54.2996
   469.26         54.5258
   469.40         54.7764
   469.54         55.0232
   469.68         55.2420
   469.82         55.4135
   469.96         55.5261
   470.10         55.5772
   470.24         55.5736
   470.38         55.5288
   470.52         55.4558
   470.66         55.3637
   470.80         55.2601
   470.94         55.1539
   471.08         55.0494
   471.22         54.9463
   471.36         54.8415
   471.50         54.7284
   471.64         54.6038
   471.78         54.4690
   471.92         54.3276
   472.06         54.1873
   472.20         54.0547
   472.34         53.9308
   472.48         53.8133
   472.62         53.6997
   472.76         53.5880
   472.90         53.4805
   473.04         53.3803
   473.18         53.2869
   473.32         53.1985
   473.46         53.1149
   473.60         53.0374
   473.74         52.9675
   473.88         52.9075
   474.02         52.8604
   474.16         52.8291
   474.30         52.8161
   474.44         52.8217
   474.58         52.8466
   474.72         52.8901
   474.86         52.9447
   475.00         53.0004
   475.14         53.0465
   475.28         53.0742
   475.42         53.0813
   475.56         53.0701
   475.70         53.0424
   475.84         52.9994
   475.98         52.9424
   476.12         52.8699
   476.26         52.7767
   476.40         52.6603
   476.54         52.5256
   476.68         52.3830
   476.82         52.2452
   476.96         52.1258
   477.10         52.0360
   477.24         51.9818
   477.38         51.9667
   477.52         51.9921
   477.66         52.0526
   477.80         52.1352
   477.94         52.2265
   478.08         52.3141
   478.22         52.3843
   478.36         52.4205
   478.50         52.4101
   478.64         52.3462
   478.78         52.2261
   478.92         52.0516
   479.06         51.8306
   479.20         51.5770
   479.34         51.3087
   479.48         51.0462
   479.62         50.8090
   479.76         50.6113
   479.90         50.4611
   480.04         50.3610
   480.18         50.3072
   480.32         50.2920
   480.46         50.3082
   480.60         50.3500
   480.74         50.4093
   480.88         50.4754
   481.02         50.5392
   481.16         50.5983
   481.30         50.6527
   481.44         50.7013
   481.58         50.7406
   481.72         50.7664
   481.86         50.7755
   482.00         50.7736
   482.14         50.7691
   482.28         50.7607
   482.42         50.7431
   482.56         50.7142
   482.70         50.6783
   482.84         50.6418
   482.98         50.6075
   483.12         50.5746
   483.26         50.5427
   483.40         50.5113
   483.54         50.4782
   483.68         50.4370
   483.82         50.3753
   483.96         50.2807
   484.10         50.1421
   484.24         49.9439
   484.38         49.6712
   484.52         49.3162
   484.66         48.8757
   484.80         48.3376
   484.94         47.6865
   485.08         46.9248
   485.22         46.0760
   485.36         45.1824
   485.50         44.2989
   485.64         43.4869
   485.78         42.8068
   485.92         42.3083
   486.06         42.0231
   486.20         41.9619
   486.34         42.1178
   486.48         42.4661
   486.62         42.9636
   486.76         43.5506
   486.90         44.1630
   487.04         44.7471
   487.18         45.2609
   487.32         45.6740
   487.46         45.9751
   487.60         46.1763
   487.74         46.3085
   487.88         46.4081
   488.02         46.5058
   488.16         46.6207
   488.30         46.7602
   488.44         46.9226
   488.58         47.1027
   488.72         47.2918
   488.86         47.4780
   489.00         47.6525
   489.14         47.8107
   489.28         47.9506
   489.42         48.0747
   489.56         48.1845
   489.70         48.2756
   489.84         48.3415
   489.98         48.3795
   490.12         48.3904
   490.26         48.3716
   490.40         48.3207
   490.54         48.2359
   490.68         48.1164
   490.82         47.9644
   490.96         47.7792
   491.10         47.5551
   491.24         47.2890
   491.38         46.9862
   491.52         46.6622
   491.66         46.3400
   491.80         46.0419
   491.94         45.7893
   492.08         45.6004
   492.22         45.4874
   492.36         45.4571
   492.50         45.5107
   492.64         45.6420
   492.78         45.8354
   492.92         46.0689
   493.06         46.3206
   493.20         46.5667
   493.34         46.7831
   493.48         46.9506
   493.62         47.0576
   493.76         47.1029
   493.90         47.0968
   494.04         47.0526
   494.18         46.9782
   494.32         46.8774
   494.46         46.7528
   494.60         46.6050
   494.74         46.4322
   494.88         46.2367
   495.02         46.0252
   495.16         45.8042
   495.30         45.5822
   495.44         45.3746
   495.58         45.1995
   495.72         45.0677
   495.86         44.9811
   496.00         44.9373
   496.14         44.9300
   496.28         44.9491
   496.42         44.9818
   496.56         45.0148
   496.70         45.0354
   496.84         45.0357
   496.98         45.0156
   497.12         44.9778
   497.26         44.9270
   497.40         44.8744
   497.54         44.8348
   497.68         44.8149
   497.82         44.8152
   497.96         44.8390
   498.10         44.8879
   498.24         44.9527
   498.38         45.0191
   498.52         45.0773
   498.66         45.1225
   498.80         45.1519
   498.94         45.1666
   499.08         45.1713
   499.22         45.1683
   499.36         45.1570
   499.50         45.1376
   499.64         45.1109
   499.78         45.0765
   499.92         45.0330
   500.06         44.9769
   500.20         44.9002
   500.34         44.7893
   500.48         44.6340
   500.62         44.4333
   500.76         44.1914
   500.90         43.9189
   501.04         43.6342
   501.18         43.3577
   501.32         43.1082
   501.46         42.9040
   501.60         42.7614
   501.74         42.6898
   501.88         42.6878
   502.02         42.7460
   502.16         42.8503
   502.30         42.9821
   502.44         43.1196
   502.58         43.2428
   502.72         43.3370
   502.86         43.3927
   503.00         43.4057
   503.14         43.3827
   503.28         43.3371
   503.42         43.2814
   503.56         43.2238
   503.70         43.1678
   503.84         43.1120
   503.98         43.0558
   504.12         42.9997
   504.26         42.9384
   504.40         42.8627
   504.54         42.7646
   504.68         42.6414
   504.82         42.4964
   504.96         42.3382
   505.10         42.1794
   505.24         42.0356
   505.38         41.9200
   505.52         41.8394
   505.66         41.7969
   505.80         41.7935
   505.94         41.8256
   506.08         41.8868
   506.22         41.9674
   506.36         42.0556
   506.50         42.1387
   506.64         42.2061
   506.78         42.2490
   506.92         42.2606
   507.06         42.2408
   507.20         42.1942
   507.34         42.1271
   507.48         42.0473
   507.62         41.9649
   507.76         41.8883
   507.90         41.8222
   508.04         41.7684
   508.18         41.7268
   508.32         41.6953
   508.46         41.6693
   508.60         41.6423
   508.74         41.6085
   508.88         41.5648
   509.02         41.5112
   509.16         41.4502
   509.30         41.3868
   509.44         41.3252
   509.58         41.2678
   509.72         41.2175
   509.86         41.1765
   510.00         41.1449
   510.14         41.1205
   510.28         41.0989
   510.42         41.0736
   510.56         41.0410
   510.70         41.0018
   510.84         40.9572
   510.98         40.9069
   511.12         40.8542
   511.26         40.8060
   511.40         40.7662
   511.54         40.7320
   511.68         40.6946
   511.82         40.6475
   511.96         40.5894
   512.10         40.5225
   512.24         40.4522
   512.38         40.3846
   512.52         40.3228
   512.66         40.2683
   512.80         40.2204
   512.94         40.1765
   513.08         40.1365
   513.22         40.1040
   513.36         40.0837
   513.50         40.0782
   513.64         40.0876
   513.78         40.1086
   513.92         40.1353
   514.06         40.1601
   514.20         40.1755
   514.34         40.1772
   514.48         40.1658
   514.62         40.1429
   514.76         40.1067
   514.90         40.0515
   515.04         39.9705
   515.18         39.8613
   515.32         39.7273
   515.46         39.5739
   515.60         39.4091
   515.74         39.2439
   515.88         39.0870
   516.02         38.9425
   516.16         38.8114
   516.30         38.6931
   516.44         38.5874
   516.58         38.4958
   516.72         38.4190
   516.86         38.3561
   517.00         38.3065
   517.14         38.2717
   517.28         38.2531
   517.42         38.2476
   517.56         38.2507
   517.70         38.2598
   517.84         38.2721
   517.98         38.2835
   518.12         38.2908
   518.26         38.2914
   518.40         38.2836
   518.54         38.2680
   518.68         38.2486
   518.82         38.2311
   518.96         38.2183
   519.10         38.2094
   519.24         38.2021
   519.38         38.1938
   519.52         38.1814
   519.66         38.1644
   519.80         38.1451
   519.94         38.1235
   520.08         38.0976
   520.22         38.0675
   520.36         38.0342
   520.50         38.0006
   520.64         37.9722
   520.78         37.9507
   520.92         37.9310
   521.06         37.9058
   521.20         37.8683
   521.34         37.8128
   521.48         37.7349
   521.62         37.6340
   521.76         37.5136
   521.90         37.3809
   522.04         37.2455
   522.18         37.1178
   522.32         37.0066
   522.46         36.9172
   522.60         36.8516
   522.74         36.8088
   522.88         36.7842
   523.02         36.7723
   523.16         36.7683
   523.30         36.7652
   523.44         36.7508
   523.58         36.7141
   523.72         36.6533
   523.86         36.5748
   524.00         36.4886
   524.14         36.4032
   524.28         36.3244
   524.42         36.2556
   524.56         36.1992
   524.70         36.1564
   524.84         36.1244
   524.98         36.0965
   525.12         36.0656
   525.26         36.0267
   525.40         35.9771
   525.54         35.9156
   525.68         35.8429
   525.82         35.7615
   525.96         35.6733
   526.10         35.5814
   526.24         35.4934
   526.38         35.4205
   526.52         35.3708
   526.66         35.3445
   526.80         35.3370
   526.94         35.3431
   527.08         35.3584
   527.22         35.3790
   527.36         35.4015
   527.50         35.4214
   527.64         35.4340
   527.78         35.4365
   527.92         35.4283
   528.06         35.4076
   528.20         35.3725
   528.34         35.3241
   528.48         35.2656
   528.62         35.1996
   528.76         35.1289
   528.90         35.0573
   529.04         34.9883
   529.18         34.9228
   529.32         34.8595
   529.46         34.7991
   529.60         34.7474
   529.74         34.7087
   529.88         34.6830
   530.02         34.6660
   530.16         34.6519
   530.30         34.6360
   530.44         34.6182
   530.58         34.5985
   530.72         34.5741
   530.86         34.5410
   531.00         34.4991
   531.14         34.4494
   531.28         34.3937
   531.42         34.3359
   531.56         34.2806
   531.70         34.2303
   531.84         34.1856
   531.98         34.1469
   532.12         34.1141
   532.26         34.0850
   532.40         34.0556
   532.54         34.0223
   532.68         33.9834
   532.82         33.9389
   532.96         33.8896
   533.10         33.8351
   533.24         33.7733
   533.38         33.7033
   533.52         33.6289
   533.66         33.5568
   533.80         33.4913
   533.94         33.4326
   534.08         33.3784
   534.22         33.3263
   534.36         33.2771
   534.50         33.2346
   534.64         33.2001
   534.78         33.1701
   534.92         33.1416
   535.06         33.1155
   535.20         33.0924
   535.34         33.0705
   535.48         33.0474
   535.62         33.0232
   535.76         33.0008
   535.90         32.9846
   536.04         32.9775
   536.18         32.9768
   536.32         32.9748
   536.46         32.9641
   536.60         32.9410
   536.74         32.9064
   536.88         32.8650
   537.02         32.8210
   537.16         32.7740
   537.30         32.7190
   537.44         32.6535
   537.58         32.5819
   537.72         32.5103
   537.86         32.4413
   538.00         32.3754
   538.14         32.3154
   538.28         32.2658
   538.42         32.2288
   538.56         32.2000
   538.70         32.1726
   538.84         32.1427
   538.98         32.1100
   539.12         32.0758
   539.26         32.0402
   539.40         32.0030
   539.54         31.9623
   539.68         31.9112
   539.82         31.8376
   539.96         31.7299
   540.10         31.5835
   540.24         31.4022
   540.38         31.1953
   540.52         30.9776
   540.66         30.7682
   540.80         30.5886
   540.94         30.4589
   541.08         30.3914
   541.22         30.3896
   541.36         30.4519
   541.50         30.5725
   541.64         30.7384
   541.78         30.9325
   541.92         31.1368
   542.06         31.3322
   542.20         31.4986
   542.34         31.6185
   542.48         31.6833
   542.62         31.6948
   542.76         31.6635
   542.90         31.6039
   543.04         31.5293
   543.18         31.4492
   543.32         31.3691
   543.46         31.2929
   543.60         31.2222
   543.74         31.1555
   543.88         31.0917
   544.02         31.0338
   544.16         30.9851
   544.30         30.9463
   544.44         30.9165
   544.58         30.8955
   544.72         30.8834
   544.86         30.8786
   545.00         30.8785
   545.14         30.8810
   545.28         30.8841
   545.42         30.8854
   545.56         30.8804
   545.70         30.8642
   545.84         30.8345
   545.98         30.7917
   546.12         30.7380
   546.26         30.6764
   546.40         30.6116
   546.54         30.5498
   546.68         30.4965
   546.82         30.4534
   546.96         30.4198
   547.10         30.3963
   547.24         30.3831
   547.38         30.3755
   547.52         30.3641
   547.66         30.3403
   547.80         30.2991
   547.94         30.2375
   548.08         30.1542
   548.22         30.0518
   548.36         29.9387
   548.50         29.8278
   548.64         29.7322
   548.78         29.6614
   548.92         29.6210
   549.06         29.6142
   549.20         29.6389
   549.34         29.6878
   549.48         29.7503
   549.62         29.8151
   549.76         29.8719
   549.90         29.9092
   550.04         29.9165
   550.18         29.8893
   550.32         29.8311
   550.46         29.7490
   550.60         29.6510
   550.74         29.5471
   550.88         29.4505
   551.02         29.3733
   551.16         29.3210
   551.30         29.2915
   551.44         29.2786
   551.58         29.2776
   551.72         29.2848
   551.86         29.2945
   552.00         29.3007
   552.14         29.2995
   552.28         29.2881
   552.42         29.2629
   552.56         29.2218
   552.70         29.1657
   552.84         29.0970
   552.98         29.0188
   553.12         28.9338
   553.26         28.8465
   553.40         28.7624
   553.54         28.6863
   553.68         28.6209
   553.82         28.5688
   553.96         28.5350
   554.10         28.5242
   554.24         28.5383
   554.38         28.5746
   554.52         28.6256
   554.66         28.6808
   554.80         28.7307
   554.94         28.7693
   555.08         28.7941
   555.22         28.8055
   555.36         28.8051
   555.50         28.7958
   555.64         28.7808
   555.78         28.7625
   555.92         28.7447
   556.06         28.7314
   556.20         28.7247
   556.34         28.7250
   556.48         28.7309
   556.62         28.7400
   556.76         28.7502
   556.90         28.7597
   557.04         28.7663
   557.18         28.7673
   557.32         28.7606
   557.46         28.7457
   557.60         28.7207
   557.74         28.6824
   557.88         28.6279
   558.02         28.5536
   558.16         28.4552
   558.30         28.3303
   558.44         28.1834
   558.58         28.0247
   558.72         27.8639
   558.86         27.7096
   559.00         27.5712
   559.14         27.4582
   559.28         27.3773
   559.42         27.3305
   559.56         27.3158
   559.70         27.3290
   559.84         27.3645
   559.98         27.4141
   560.12         27.4688
   560.26         27.5198
   560.40         27.5594
   560.54         27.5817
   560.68         27.5829
   560.82         27.5631
   560.96         27.5278
   561.10         27.4832
   561.24         27.4320
   561.38         27.3759
   561.52         27.3181
   561.66         27.2630
   561.80         27.2128
   561.94         27.1667
   562.08         27.1237
   562.22         27.0826
   562.36         27.0406
   562.50         26.9945
   562.64         26.9434
   562.78         26.8899
   562.92         26.8374
   563.06         26.7916
   563.20         26.7578
   563.34         26.7384
   563.48         26.7332
   563.62         26.7400
   563.76         26.7547
   563.90         26.7722
   564.04         26.7885
   564.18         26.7992
   564.32         26.7986
   564.46         26.7830
   564.60         26.7520
   564.74         26.7072
   564.88         26.6507
   565.02         26.5854
   565.16         26.5153
   565.30         26.4443
   565.44         26.3735
   565.58         26.3033
   565.72         26.2360
   565.86         26.1736
   566.00         26.1173
   566.14         26.0685
   566.28         26.0290
   566.42         25.9988
   566.56         25.9759
   566.70         25.9593
   566.84         25.9495
   566.98         25.9478
   567.12         25.9547
   567.26         25.9687
   567.40         25.9863
   567.54         26.0034
   567.68         26.0162
   567.82         26.0223
   567.96         26.0213
   568.10         26.0141
   568.24         26.0036
   568.38         25.9922
   568.52         25.9799
   568.66         25.9638
   568.80         25.9406
   568.94         25.9074
   569.08         25.8612
   569.22         25.8018
   569.36         25.7322
   569.50         25.6564
   569.64         25.5778
   569.78         25.5004
   569.92         25.4290
   570.06         25.3688
   570.20         25.3255
   570.34         25.3045
   570.48         25.3077
   570.62         25.3319
   570.76         25.3692
   570.90         25.4085
   571.04         25.4402
   571.18         25.4578
   571.32         25.4555
   571.46         25.4306
   571.60         25.3857
   571.74         25.3270
   571.88         25.2625
   572.02         25.2020
   572.16         25.1550
   572.30         25.1282
   572.44         25.1239
   572.58         25.1395
   572.72         25.1692
   572.86         25.2046
   573.00         25.2351
   573.14         25.2501
   573.28         25.2434
   573.42         25.2124
   573.56         25.1590
   573.70         25.0898
   573.84         25.0121
   573.98         24.9316
   574.12         24.8541
   574.26         24.7844
   574.40         24.7260
   574.54         24.6810
   574.68         24.6483
   574.82         24.6238
   574.96         24.6008
   575.10         24.5737
   575.24         24.5397
   575.38         24.4984
   575.52         24.4507
   575.66         24.3970
   575.80         24.3394
   575.94         24.2812
   576.08         24.2251
   576.22         24.1730
   576.36         24.1262
   576.50         24.0838
   576.64         24.0421
   576.78         23.9943
   576.92         23.9323
   577.06         23.8493
   577.20         23.7421
   577.34         23.6132
   577.48         23.4703
   577.62         23.3235
   577.76         23.1829
   577.90         23.0572
   578.04         22.9537
   578.18         22.8777
   578.32         22.8318
   578.46         22.8161
   578.60         22.8284
   578.74         22.8631
   578.88         22.9119
   579.02         22.9645
   579.16         23.0107
   579.30         23.0425
   579.44         23.0560
   579.58         23.0534
   579.72         23.0423
   579.86         23.0317
   580.00         23.0269
   580.14         23.0296
   580.28         23.0397
   580.42         23.0567
   580.56         23.0799
   580.70         23.1076
   580.84         23.1385
   580.98         23.1743
   581.12         23.2181
   581.26         23.2701
   581.40         23.3283
   581.54         23.3906
   581.68         23.4548
   581.82         23.5198
   581.96         23.5855
   582.10         23.6498
   582.24         23.7083
   582.38         23.7569
   582.52         23.7932
   582.66         23.8155
   582.80         23.8216
   582.94         23.8083
   583.08         23.7723
   583.22         23.7124
   583.36         23.6310
   583.50         23.5341
   583.64         23.4279
   583.78         23.3163
   583.92         23.2009
   584.06         23.0855
   584.20         22.9752
   584.34         22.8734
   584.48         22.7837
   584.62         22.7119
   584.76         22.6630
   584.90         22.6403
   585.04         22.6462
   585.18         22.6774
   585.32         22.7254
   585.46         22.7810
   585.60         22.8372
   585.74         22.8892
   585.88         22.9330
   586.02         22.9618
   586.16         22.9646
   586.30         22.9283
   586.44         22.8405
   586.58         22.6947
   586.72         22.4965
   586.86         22.2611
   587.00         22.0070
   587.14         21.7560
   587.28         21.5313
   587.42         21.3496
   587.56         21.2153
   587.70         21.1183
   587.84         21.0394
   587.98         20.9646
   588.12         20.8884
   588.26         20.8033
   588.40         20.6970
   588.54         20.5605
   588.68         20.3952
   588.82         20.2150
   588.96         20.0439
   589.10         19.9109
   589.24         19.8436
   589.38         19.8626
   589.52         19.9743
   589.66         20.1705
   589.80         20.4321
   589.94         20.7312
   590.08         21.0351
   590.22         21.3154
   590.36         21.5534
   590.50         21.7442
   590.64         21.8912
   590.78         21.9947
   590.92         22.0503
   591.06         22.0614
   591.20         22.0428
   591.34         22.0090
   591.48         21.9686
   591.62         21.9269
   591.76         21.8872
   591.90         21.8490
   592.04         21.8097
   592.18         21.7674
   592.32         21.7239
   592.46         21.6824
   592.60         21.6457
   592.74         21.6158
   592.88         21.5929
   593.02         21.5743
   593.16         21.5546
   593.30         21.5291
   593.44         21.4957
   593.58         21.4549
   593.72         21.4077
   593.86         21.3541
   594.00         21.2937
   594.14         21.2307
   594.28         21.1709
   594.42         21.1164
   594.56         21.0672
   594.70         21.0249
   594.84         20.9921
   594.98         20.9694
   595.12         20.9538
   595.26         20.9409
   595.40         20.9284
   595.54         20.9154
   595.68         20.9020
   595.82         20.8896
   595.96         20.8811
   596.10         20.8766
   596.24         20.8718
   596.38         20.8637
   596.52         20.8527
   596.66         20.8395
   596.80         20.8234
   596.94         20.8034
   597.08         20.7789
   597.22         20.7497
   597.36         20.7153
   597.50         20.6754
   597.64         20.6294
   597.78         20.5768
   597.92         20.5202
   598.06         20.4646
   598.20         20.4160
   598.34         20.3798
   598.48         20.3600
   598.62         20.3562
   598.76         20.3640
   598.90         20.3805
   599.04         20.4047
   599.18         20.4324
   599.32         20.4577
   599.46         20.4749
   599.60         20.4794
   599.74         20.4676
   599.88         20.4378
   600.02         20.3928
   600.16         20.3367
   600.30         20.2721
   600.44         20.2041
   600.58         20.1400
   600.72         20.0838
   600.86         20.0368
   601.00         19.9992
   601.14         19.9697
   601.28         19.9455
   601.42         19.9241
   601.56         19.9031
   601.70         19.8798
   601.84         19.8536
   601.98         19.8260
   602.12         19.7969
   602.26         19.7663
   602.40         19.7348
   602.54         19.7024
   602.68         19.6680
   602.82         19.6306
   602.96         19.5897
   603.10         19.5465
   603.24         19.5034
   603.38         19.4629
   603.52         19.4266
   603.66         19.3964
   603.80         19.3742
   603.94         19.3623
   604.08         19.3624
   604.22         19.3756
   604.36         19.4021
   604.50         19.4414
   604.64         19.4908
   604.78         19.5459
   604.92         19.6039
   605.06         19.6620
   605.20         19.7174
   605.34         19.7675
   605.48         19.8086
   605.62         19.8360
   605.76         19.8465
   605.90         19.8397
   606.04         19.8162
   606.18         19.7785
   606.32         19.7311
   606.46         19.6796
   606.60         19.6292
   606.74         19.5833
   606.88         19.5445
   607.02         19.5143
   607.16         19.4945
   607.30         19.4859
   607.44         19.4876
   607.58         19.4972
   607.72         19.5109
   607.86         19.5232
   608.00         19.5291
   608.14         19.5249
   608.28         19.5085
   608.42         19.4794
   608.56         19.4380
   608.70         19.3857
   608.84         19.3249
   608.98         19.2585
   609.12         19.1898
   609.26         19.1215
   609.40         19.0562
   609.54         18.9967
   609.68         18.9479
   609.82         18.9151
   609.96         18.9012
   610.10         18.9060
   610.24         18.9258
   610.38         18.9546
   610.52         18.9866
   610.66         19.0165
   610.80         19.0385
   610.94         19.0474
   611.08         19.0410
   611.22         19.0195
   611.36         18.9858
   611.50         18.9456
   611.64         18.9050
   611.78         18.8681
   611.92         18.8367
   612.06         18.8119
   612.20         18.7939
   612.34         18.7825
   612.48         18.7752
   612.62         18.7682
   612.76         18.7571
   612.90         18.7387
   613.04         18.7125
   613.18         18.6801
   613.32         18.6445
   613.46         18.6100
   613.60         18.5814
   613.74         18.5631
   613.88         18.5578
   614.02         18.5660
   614.16         18.5862
   614.30         18.6137
   614.44         18.6418
   614.58         18.6658
   614.72         18.6828
   614.86         18.6897
   615.00         18.6836
   615.14         18.6636
   615.28         18.6292
   615.42         18.5795
   615.56         18.5138
   615.70         18.4329
   615.84         18.3387
   615.98         18.2355
   616.12         18.1299
   616.26         18.0299
   616.40         17.9434
   616.54         17.8761
   616.68         17.8311
   616.82         17.8094
   616.96         17.8110
   617.10         17.8337
   617.24         17.8736
   617.38         17.9245
   617.52         17.9793
   617.66         18.0325
   617.80         18.0789
   617.94         18.1134
   618.08         18.1328
   618.22         18.1375
   618.36         18.1300
   618.50         18.1137
   618.64         18.0931
   618.78         18.0724
   618.92         18.0535
   619.06         18.0356
   619.20         18.0177
   619.34         18.0013
   619.48         17.9889
   619.62         17.9823
   619.76         17.9829
   619.90         17.9912
   620.04         18.0062
   620.18         18.0259
   620.32         18.0485
   620.46         18.0718
   620.60         18.0932
   620.74         18.1105
   620.88         18.1214
   621.02         18.1234
   621.16         18.1149
   621.30         18.0949
   621.44         18.0641
   621.58         18.0250
   621.72         17.9811
   621.86         17.9369
   622.00         17.8963
   622.14         17.8603
   622.28         17.8280
   622.42         17.7981
   622.56         17.7691
   622.70         17.7401
   622.84         17.7114
   622.98         17.6856
   623.12         17.6656
   623.26         17.6533
   623.40         17.6502
   623.54         17.6554
   623.68         17.6671
   623.82         17.6831
   623.96         17.7030
   624.10         17.7274
   624.24         17.7556
   624.38         17.7848
   624.52         17.8112
   624.66         17.8307
   624.80         17.8404
   624.94         17.8385
   625.08         17.8232
   625.22         17.7913
   625.36         17.7413
   625.50         17.6755
   625.64         17.5995
   625.78         17.5174
   625.92         17.4312
   626.06         17.3434
   626.20         17.2575
   626.34         17.1780
   626.48         17.1077
   626.62         17.0463
   626.76         16.9916
   626.90         16.9398
   627.04         16.8851
   627.18         16.8205
   627.32         16.7396
   627.46         16.6409
   627.60         16.5281
   627.74         16.4096
   627.88         16.2983
   628.02         16.2092
   628.16         16.1554
   628.30         16.1449
   628.44         16.1790
   628.58         16.2554
   628.72         16.3684
   628.86         16.5082
   629.00         16.6616
   629.14         16.8130
   629.28         16.9465
   629.42         17.0486
   629.56         17.1103
   629.70         17.1271
   629.84         17.1012
   629.98         17.0403
   630.12         16.9564
   630.26         16.8624
   630.40         16.7693
   630.54         16.6858
   630.68         16.6188
   630.82         16.5732
   630.96         16.5512
   631.10         16.5518
   631.24         16.5716
   631.38         16.6067
   631.52         16.6530
   631.66         16.7053
   631.80         16.7575
   631.94         16.8043
   632.08         16.8423
   632.22         16.8710
   632.36         16.8911
   632.50         16.9047
   632.64         16.9142
   632.78         16.9227
   632.92         16.9323
   633.06         16.9433
   633.20         16.9532
   633.34         16.9587
   633.48         16.9567
   633.62         16.9442
   633.76         16.9189
   633.90         16.8809
   634.04         16.8327
   634.18         16.7783
   634.32         16.7216
   634.46         16.6675
   634.60         16.6221
   634.74         16.5921
   634.88         16.5817
   635.02         16.5907
   635.16         16.6141
   635.30         16.6442
   635.44         16.6720
   635.58         16.6895
   635.72         16.6911
   635.86         16.6754
   636.00         16.6444
   636.14         16.6019
   636.28         16.5515
   636.42         16.4965
   636.56         16.4405
   636.70         16.3872
   636.84         16.3382
   636.98         16.2939
   637.12         16.2557
   637.26         16.2257
   637.40         16.2047
   637.54         16.1922
   637.68         16.1868
   637.82         16.1870
   637.96         16.1916
   638.10         16.1999
   638.24         16.2109
   638.38         16.2236
   638.52         16.2361
   638.66         16.2454
   638.80         16.2485
   638.94         16.2436
   639.08         16.2306
   639.22         16.2114
   639.36         16.1874
   639.50         16.1599
   639.64         16.1301
   639.78         16.0986
   639.92         16.0644
   640.06         16.0267
   640.20         15.9864
   640.34         15.9454
   640.48         15.9054
   640.62         15.8681
   640.76         15.8363
   640.90         15.8129
   641.04         15.7994
   641.18         15.7963
   641.32         15.8030
   641.46         15.8170
   641.60         15.8355
   641.74         15.8559
   641.88         15.8761
   642.02         15.8956
   642.16         15.9151
   642.30         15.9362
   642.44         15.9600
   642.58         15.9871
   642.72         16.0172
   642.86         16.0481
   643.00         16.0765
   643.14         16.0983
   643.28         16.1116
   643.42         16.1158
   643.56         16.1102
   643.70         16.0932
   643.84         16.0630
   643.98         16.0193
   644.12         15.9638
   644.26         15.8996
   644.40         15.8311
   644.54         15.7627
   644.68         15.6995
   644.82         15.6458
   644.96         15.6031
   645.10         15.5697
   645.24         15.5429
   645.38         15.5206
   645.52         15.5024
   645.66         15.4886
   645.80         15.4789
   645.94         15.4730
   646.08         15.4696
   646.22         15.4656
   646.36         15.4587
   646.50         15.4483
   646.64         15.4359
   646.78         15.4236
   646.92         15.4139
   647.06         15.4078
   647.20         15.4050
   647.34         15.4044
   647.48         15.4052
   647.62         15.4067
   647.76         15.4089
   647.90         15.4129
   648.04         15.4203
   648.18         15.4320
   648.32         15.4471
   648.46         15.4644
   648.60         15.4829
   648.74         15.5011
   648.88         15.5186
   649.02         15.5364
   649.16         15.5561
   649.30         15.5785
   649.44         15.6027
   649.58         15.6273
   649.72         15.6509
   649.86         15.6723
   650.00         15.6914
   650.14         15.7071
   650.28         15.7161
   650.42         15.7152
   650.56         15.7025
   650.70         15.6787
   650.84         15.6458
   650.98         15.6073
   651.12         15.5665
   651.26         15.5262
   651.40         15.4878
   651.54         15.4517
   651.68         15.4180
   651.82         15.3880
   651.96         15.3631
   652.10         15.3446
   652.24         15.3336
   652.38         15.3287
   652.52         15.3273
   652.66         15.3265
   652.80         15.3239
   652.94         15.3177
   653.08         15.3077
   653.22         15.2947
   653.36         15.2805
   653.50         15.2660
   653.64         15.2511
   653.78         15.2346
   653.92         15.2154
   654.06         15.1917
   654.20         15.1615
   654.34         15.1230
   654.48         15.0723
   654.62         15.0024
   654.76         14.9034
   654.90         14.7653
   655.04         14.5819
   655.18         14.3536
   655.32         14.0893
   655.46         13.8047
   655.60         13.5203
   655.74         13.2587
   655.88         13.0414
   656.02         12.8853
   656.16         12.8012
   656.30         12.7946
   656.44         12.8659
   656.58         13.0088
   656.72         13.2098
   656.86         13.4501
   657.00         13.7085
   657.14         13.9636
   657.28         14.1967
   657.42         14.3946
   657.56         14.5516
   657.70         14.6700
   657.84         14.7572
   657.98         14.8212
   658.12         14.8694
   658.26         14.9076
   658.40         14.9397
   658.54         14.9681
   658.68         14.9938
   658.82         15.0173
   658.96         15.0386
   659.10         15.0566
   659.24         15.0690
   659.38         15.0732
   659.52         15.0673
   659.66         15.0503
   659.80         15.0232
   659.94         14.9882
   660.08         14.9473
   660.22         14.9027
   660.36         14.8564
   660.50         14.8099
   660.64         14.7648
   660.78         14.7233
   660.92         14.6877
   661.06         14.6585
   661.20         14.6363
   661.34         14.6207
   661.48         14.6108
   661.62         14.6054
   661.76         14.6024
   661.90         14.5989
   662.04         14.5922
   662.18         14.5811
   662.32         14.5675
   662.46         14.5541
   662.60         14.5419
   662.74         14.5300
   662.88         14.5172
   663.02         14.5032
   663.16         14.4871
   663.30         14.4674
   663.44         14.4425
   663.58         14.4118
   663.72         14.3759
   663.86         14.3357
   664.00         14.2920
   664.14         14.2451
   664.28         14.1969
   664.42         14.1505
   664.56         14.1091
   664.70         14.0758
   664.84         14.0529
   664.98         14.0405
   665.12         14.0357
   665.26         14.0343
   665.40         14.0336
   665.54         14.0328
   665.68         14.0322
   665.82         14.0327
   665.96         14.0354
   666.10         14.0395
   666.24         14.0420
   666.38         14.0376
   666.52         14.0198
   666.66         13.9838
   666.80         13.9279
   666.94         13.8539
   667.08         13.7657
   667.22         13.6686
   667.36         13.5692
   667.50         13.4759
   667.64         13.3964
   667.78         13.3377
   667.92         13.3059
   668.06         13.3049
   668.20         13.3348
   668.34         13.3922
   668.48         13.4699
   668.62         13.5576
   668.76         13.6438
   668.90         13.7187
   669.04         13.7763
   669.18         13.8147
   669.32         13.8355
   669.46         13.8422
   669.60         13.8383
   669.74         13.8265
   669.88         13.8094
   670.02         13.7897
   670.16         13.7701
   670.30         13.7519
   670.44         13.7357
   670.58         13.7215
   670.72         13.7094
   670.86         13.7002
   671.00         13.6951
   671.14         13.6948
   671.28         13.6993
   671.42         13.7075
   671.56         13.7189
   671.70         13.7319
   671.84         13.7443
   671.98         13.7536
   672.12         13.7571
   672.26         13.7523
   672.40         13.7382
   672.54         13.7157
   672.68         13.6862
   672.82         13.6519
   672.96         13.6151
   673.10         13.5781
   673.24         13.5441
   673.38         13.5166
   673.52         13.4976
   673.66         13.4872
   673.80         13.4839
   673.94         13.4860
   674.08         13.4921
   674.22         13.5004
   674.36         13.5080
   674.50         13.5114
   674.64         13.5079
   674.78         13.4950
   674.92         13.4720
   675.06         13.4399
   675.20         13.4007
   675.34         13.3567
   675.48         13.3112
   675.62         13.2672
   675.76         13.2267
   675.90         13.1910
   676.04         13.1604
   676.18         13.1354
   676.32         13.1164
   676.46         13.1038
   676.60         13.0977
   676.74         13.0967
   676.88         13.0983
   677.02         13.0994
   677.16         13.0981
   677.30         13.0940
   677.44         13.0873
   677.58         13.0793
   677.72         13.0721
   677.86         13.0667
   678.00         13.0629
   678.14         13.0597
   678.28         13.0557
   678.42         13.0503
   678.56         13.0444
   678.70         13.0389
   678.84         13.0343
   678.98         13.0304
   679.12         13.0264
   679.26         13.0213
   679.40         13.0148
   679.54         13.0079
   679.68         13.0025
   679.82         13.0011
   679.96         13.0052
   680.10         13.0166
   680.24         13.0371
   680.38         13.0664
   680.52         13.1007
   680.66         13.1347
   680.80         13.1641
   680.94         13.1856
   681.08         13.1970
   681.22         13.1965
   681.36         13.1826
   681.50         13.1546
   681.64         13.1132
   681.78         13.0609
   681.92         13.0016
   682.06         12.9400
   682.20         12.8797
   682.34         12.8231
   682.48         12.7721
   682.62         12.7292
   682.76         12.6963
   682.90         12.6730
   683.04         12.6568
   683.18         12.6454
   683.32         12.6373
   683.46         12.6317
   683.60         12.6271
   683.74         12.6227
   683.88         12.6181
   684.02         12.6126
   684.16         12.6056
   684.30         12.5975
   684.44         12.5884
   684.58         12.5773
   684.72         12.5623
   684.86         12.5419
   685.00         12.5165
   685.14         12.4870
   685.28         12.4536
   685.42         12.4135
   685.56         12.3591
   685.70         12.2798
   685.84         12.1650
   685.98         12.0078
   686.12         11.8071
   686.26         11.5678
   686.40         11.3002
   686.54         11.0179
   686.68         10.7369
   686.82         10.4748
   686.96         10.2497
   687.10         10.0777
   687.24         9.9690
   687.38         9.9272
   687.52         9.9484
   687.66         10.0218
   687.80         10.1306
   687.94         10.2554
   688.08         10.3767
   688.22         10.4783
   688.36         10.5513
   688.50         10.5951
   688.64         10.6145
   688.78         10.6161
   688.92         10.6063
   689.06         10.5920
   689.20         10.5800
   689.34         10.5763
   689.48         10.5860
   689.62         10.6116
   689.76         10.6526
   689.90         10.7063
   690.04         10.7691
   690.18         10.8378
   690.32         10.9105
   690.46         10.9867
   690.60         11.0656
   690.74         11.1449
   690.88         11.2212
   691.02         11.2910
   691.16         11.3514
   691.30         11.4007
   691.44         11.4391
   691.58         11.4687
   691.72         11.4928
   691.86         11.5138
   692.00         11.5340
   692.14         11.5547
   692.28         11.5760
   692.42         11.5976
   692.56         11.6197
   692.70         11.6426
   692.84         11.6671
   692.98         11.6951
   693.12         11.7272
   693.26         11.7615
   693.40         11.7949
   693.54         11.8250
   693.68         11.8499
   693.82         11.8676
   693.96         11.8771
   694.10         11.8790
   694.24         11.8744
   694.38         11.8640
   694.52         11.8484
   694.66         11.8286
   694.80         11.8065
   694.94         11.7842
   695.08         11.7640
   695.22         11.7484
   695.36         11.7399
   695.50         11.7402
   695.64         11.7497
   695.78         11.7668
   695.92         11.7890
   696.06         11.8137
   696.20         11.8394
   696.34         11.8635
   696.48         11.8832
   696.62         11.8961
   696.76         11.9004
   696.90         11.8956
   697.04         11.8816
   697.18         11.8597
   697.32         11.8325
   697.46         11.8029
   697.60         11.7732
   697.74         11.7448
   697.88         11.7186
   698.02         11.6950
   698.16         11.6743
   698.30         11.6567
   698.44         11.6416
   698.58         11.6284
   698.72         11.6162
   698.86         11.6042
   699.00         11.5927
   699.14         11.5833
   699.28         11.5789
   699.42         11.5814
   699.56         11.5913
   699.70         11.6073
   699.84         11.6268
   699.98         11.6468
   700.12         11.6642
   700.26         11.6757
   700.40         11.6785
   700.54         11.6719
   700.68         11.6565
   700.82         11.6334
   700.96         11.6024
   701.10         11.5629
   701.24         11.5152
   701.38         11.4616
   701.52         11.4050
   701.66         11.3484
   701.80         11.2941
   701.94         11.2439
   702.08         11.2002
   702.22         11.1657
   702.36         11.1440
   702.50         11.1373
   702.64         11.1458
   702.78         11.1684
   702.92         11.2032
   703.06         11.2475
   703.20         11.2972
   703.34         11.3464
   703.48         11.3894
   703.62         11.4219
   703.76         11.4418
   703.90         11.4491
   704.04         11.4442
   704.18         11.4274
   704.32         11.4005
   704.46         11.3667
   704.60         11.3293
   704.74         11.2911
   704.88         11.2521
   705.02         11.2094
   705.16         11.1573
   705.30         11.0905
   705.44         11.0068
   705.58         10.9079
   705.72         10.7988
   705.86         10.6881
   706.00         10.5874
   706.14         10.5084
   706.28         10.4590
   706.42         10.4425
   706.56         10.4581
   706.70         10.5018
   706.84         10.5676
   706.98         10.6487
   707.12         10.7373
   707.26         10.8247
   707.40         10.9023
   707.54         10.9642
   707.68         11.0083
   707.82         11.0364
   707.96         11.0521
   708.10         11.0597
   708.24         11.0633
   708.38         11.0655
   708.52         11.0675
   708.66         11.0680
   708.80         11.0639
   708.94         11.0524
   709.08         11.0325
   709.22         11.0054
   709.36         10.9743
   709.50         10.9432
   709.64         10.9158
   709.78         10.8946
   709.92         10.8816
   710.06         10.8787
   710.20         10.8878
   710.34         10.9081
   710.48         10.9361
   710.62         10.9679
   710.76         11.0009
   710.90         11.0332
   711.04         11.0636
   711.18         11.0908
   711.32         11.1136
   711.46         11.1311
   711.60         11.1432
   711.74         11.1509
   711.88         11.1550
   712.02         11.1558
   712.16         11.1530
   712.30         11.1456
   712.44         11.1333
   712.58         11.1156
   712.72         11.0925
   712.86         11.0628
   713.00         11.0254
   713.14         10.9804
   713.28         10.9296
   713.42         10.8753
   713.56         10.8204
   713.70         10.7671
   713.84         10.7183
   713.98         10.6775
   714.12         10.6478
   714.26         10.6308
   714.40         10.6263
   714.54         10.6332
   714.68         10.6499
   714.82         10.6745
   714.96         10.7043
   715.10         10.7359
   715.24         10.7658
   715.38         10.7903
   715.52         10.8058
   715.66         10.8102
   715.80         10.8020
   715.94         10.7798
   716.08         10.7432
   716.22         10.6929
   716.36         10.6306
   716.50         10.5587
   716.64         10.4802
   716.78         10.3982
   716.92         10.3153
   717.06         10.2350
   717.20         10.1592
   717.34         10.0879
   717.48         10.0212
   717.62         9.9613
   717.76         9.9100
   717.90         9.8688
   718.04         9.8392
   718.18         9.8222
   718.32         9.8187
   718.46         9.8287
   718.60         9.8498
   718.74         9.8779
   718.88         9.9090
   719.02         9.9405
   719.16         9.9704
   719.30         9.9985
   719.44         10.0245
   719.58         10.0478
   719.72         10.0691
   719.86         10.0922
   720.00         10.1229
   720.14         10.1675
   720.28         10.2298
   720.42         10.3101
   720.56         10.4066
   720.70         10.5150
   720.84         10.6283
   720.98         10.7378
   721.12         10.8337
   721.26         10.9076
   721.40         10.9547
   721.54         10.9752
   721.68         10.9713
   721.82         10.9450
   721.96         10.8991
   722.10         10.8356
   722.24         10.7570
   722.38         10.6690
   722.52         10.5793
   722.66         10.4935
   722.80         10.4138
   722.94         10.3413
   723.08         10.2763
   723.22         10.2187
   723.36         10.1684
   723.50         10.1254
   723.64         10.0898
   723.78         10.0623
   723.92         10.0430
   724.06         10.0315
   724.20         10.0273
   724.34         10.0293
   724.48         10.0359
   724.62         10.0457
   724.76         10.0582
   724.90         10.0746
   725.04         10.0957
   725.18         10.1197
   725.32         10.1419
   725.46         10.1583
   725.60         10.1669
   725.74         10.1681
   725.88         10.1625
   726.02         10.1499
   726.16         10.1283
   726.30         10.0964
   726.44         10.0539
   726.58         10.0022
   726.72         9.9435
   726.86         9.8799
   727.00         9.8134
   727.14         9.7459
   727.28         9.6811
   727.42         9.6236
   727.56         9.5778
   727.70         9.5459
   727.84         9.5282
   727.98         9.5246
   728.12         9.5350
   728.26         9.5590
   728.40         9.5955
   728.54         9.6425
   728.68         9.6974
   728.82         9.7581
   728.96         9.8226
   729.10         9.8874
   729.24         9.9481
   729.38         10.0000
   729.52         10.0392
   729.66         10.0637
   729.80         10.0727
   729.94         10.0658
   730.08         10.0440
   730.22         10.0092
   730.36         9.9647
   730.50         9.9140
   730.64         9.8604
   730.78         9.8075
   730.92         9.7580
   731.06         9.7142
   731.20         9.6776
   731.34         9.6501
   731.48         9.6328
   731.62         9.6254
   731.76         9.6270
   731.90         9.6373
   732.04         9.6552
   732.18         9.6794
   732.32         9.7075
   732.46         9.7369
   732.60         9.7658
   732.74         9.7929
   732.88         9.8162
   733.02         9.8324
   733.16         9.8382
   733.30         9.8339
   733.44         9.8230
   733.58         9.8104
   733.72         9.8005
   733.86         9.7972
   734.00         9.8020
   734.14         9.8142
   734.28         9.8315
   734.42         9.8516
   734.56         9.8719
   734.70         9.8901
   734.84         9.9047
   734.98         9.9138
   735.12         9.9149
   735.26         9.9058
   735.40         9.8848
   735.54         9.8518
   735.68         9.8082
   735.82         9.7571
   735.96         9.7034
   736.10         9.6513
   736.24         9.6041
   736.38         9.5643
   736.52         9.5332
   736.66         9.5103
   736.80         9.4954
   736.94         9.4887
   737.08         9.4890
   737.22         9.4940
   737.36         9.5012
   737.50         9.5087
   737.64         9.5147
   737.78         9.5173
   737.92         9.5151
   738.06         9.5079
   738.20         9.4968
   738.34         9.4836
   738.48         9.4705
   738.62         9.4586
   738.76         9.4490
   738.90         9.4421
   739.04         9.4376
   739.18         9.4340
   739.32         9.4299
   739.46         9.4236
   739.60         9.4132
   739.74         9.3976
   739.88         9.3771
   740.02         9.3532
   740.16         9.3279
   740.30         9.3032
   740.44         9.2815
   740.58         9.2659
   740.72         9.2596
   740.86         9.2641
   741.00         9.2784
   741.14         9.2997
   741.28         9.3245
   741.42         9.3491
   741.56         9.3696
   741.70         9.3831
   741.84         9.3876
   741.98         9.3826
   742.12         9.3696
   742.26         9.3517
   742.40         9.3325
   742.54         9.3148
   742.68         9.3011
   742.82         9.2934
   742.96         9.2934
   743.10         9.3011
   743.24         9.3148
   743.38         9.3325
   743.52         9.3517
   743.66         9.3696
   743.80         9.3826
   743.94         9.3876
   744.08         9.3831
   744.22         9.3696
