# File HD242935
# Wavelength [nm]    Normalized Amplitude
   349.70         162.9376
   349.84         163.1164
   349.98         163.2917
   350.12         163.4460
   350.26         163.5627
   350.40         163.6242
   350.54         163.6194
   350.68         163.5561
   350.82         163.4698
   350.96         163.4021
   351.10         163.3772
   351.24         163.4021
   351.38         163.4698
   351.52         163.5561
   351.66         163.6194
   351.80         163.6242
   351.94         163.5627
   352.08         163.4460
   352.22         163.2917
   352.36         163.1164
   352.50         162.9376
   352.64         162.7776
   352.78         162.6550
   352.92         162.5763
   353.06         162.5361
   353.20         162.5200
   353.34         162.5137
   353.48         162.5028
   353.62         162.4594
   353.76         162.3326
   353.90         162.0610
   354.04         161.6003
   354.18         160.9303
   354.32         160.0653
   354.46         159.0671
   354.60         158.0259
   354.74         157.0254
   354.88         156.1260
   355.02         155.3665
   355.16         154.7764
   355.30         154.3697
   355.44         154.1312
   355.58         154.0213
   355.72         153.9797
   355.86         153.9306
   356.00         153.8078
   356.14         153.5756
   356.28         153.2172
   356.42         152.7173
   356.56         152.0810
   356.70         151.3480
   356.84         150.5745
   356.98         149.8280
   357.12         149.1684
   357.26         148.6185
   357.40         148.1635
   357.54         147.7735
   357.68         147.4110
   357.82         147.0318
   357.96         146.5996
   358.10         146.0986
   358.24         145.5310
   358.38         144.9089
   358.52         144.2613
   358.66         143.6382
   358.80         143.0861
   358.94         142.6217
   359.08         142.2442
   359.22         141.9576
   359.36         141.7699
   359.50         141.6759
   359.64         141.6481
   359.78         141.6475
   359.92         141.6370
   360.06         141.5938
   360.20         141.5155
   360.34         141.4119
   360.48         141.2984
   360.62         141.1950
   360.76         141.1159
   360.90         141.0611
   361.04         141.0237
   361.18         140.9856
   361.32         140.9168
   361.46         140.7853
   361.60         140.5656
   361.74         140.2480
   361.88         139.8366
   362.02         139.3433
   362.16         138.7902
   362.30         138.2195
   362.44         137.6843
   362.58         137.2231
   362.72         136.8526
   362.86         136.5697
   363.00         136.3564
   363.14         136.1992
   363.28         136.1032
   363.42         136.0806
   363.56         136.1378
   363.70         136.2756
   363.84         136.4900
   363.98         136.7856
   364.12         137.1759
   364.26         137.6618
   364.40         138.2302
   364.54         138.8588
   364.68         139.5247
   364.82         140.2036
   364.96         140.8474
   365.10         141.3779
   365.24         141.7229
   365.38         141.8481
   365.52         141.7557
   365.66         141.4774
   365.80         141.0639
   365.94         140.5692
   366.08         140.0320
   366.22         139.4731
   366.36         138.9075
   366.50         138.3456
   366.64         137.7963
   366.78         137.2678
   366.92         136.7666
   367.06         136.3014
   367.20         135.8817
   367.34         135.5166
   367.48         135.2128
   367.62         134.9777
   367.76         134.8302
   367.90         134.7872
   368.04         134.8403
   368.18         134.9615
   368.32         135.1114
   368.46         135.2424
   368.60         135.3048
   368.74         135.2534
   368.88         135.0642
   369.02         134.7405
   369.16         134.2997
   369.30         133.7635
   369.44         133.1551
   369.58         132.4991
   369.72         131.8227
   369.86         131.1580
   370.00         130.5420
   370.14         130.0045
   370.28         129.5582
   370.42         129.2003
   370.56         128.9235
   370.70         128.7300
   370.84         128.6192
   370.98         128.5642
   371.12         128.5302
   371.26         128.5003
   371.40         128.4730
   371.54         128.4436
   371.68         128.3976
   371.82         128.3200
   371.96         128.2040
   372.10         128.0485
   372.24         127.8476
   372.38         127.5921
   372.52         127.2813
   372.66         126.9296
   372.80         126.5622
   372.94         126.2083
   373.08         125.8957
   373.22         125.6472
   373.36         125.4721
   373.50         125.3621
   373.64         125.3111
   373.78         125.3252
   373.92         125.3937
   374.06         125.4590
   374.20         125.4263
   374.34         125.2130
   374.48         124.7778
   374.62         124.1198
   374.76         123.2710
   374.90         122.2872
   375.04         121.2521
   375.18         120.2713
   375.32         119.4507
   375.46         118.8682
   375.60         118.5479
   375.74         118.4610
   375.88         118.5346
   376.02         118.6657
   376.16         118.7502
   376.30         118.7134
   376.44         118.5260
   376.58         118.2026
   376.72         117.8014
   376.86         117.4268
   377.00         117.2181
   377.14         117.3050
   377.28         117.7764
   377.42         118.6736
   377.56         119.9841
   377.70         121.6415
   377.84         123.5228
   377.98         125.4594
   378.12         127.2591
   378.26         128.7282
   378.40         129.6949
   378.54         130.0270
   378.68         129.6624
   378.82         128.6315
   378.96         127.0513
   379.10         125.0978
   379.24         122.9683
   379.38         120.8595
   379.52         118.9568
   379.66         117.4235
   379.80         116.3846
   379.94         115.9175
   380.08         116.0479
   380.22         116.7470
   380.36         117.9298
   380.50         119.4664
   380.64         121.2089
   380.78         123.0083
   380.92         124.7245
   381.06         126.2444
   381.20         127.5037
   381.34         128.4921
   381.48         129.2364
   381.62         129.7729
   381.76         130.1224
   381.90         130.2862
   382.04         130.2437
   382.18         129.9445
   382.32         129.3198
   382.46         128.3098
   382.60         126.8904
   382.74         125.1002
   382.88         123.0392
   383.02         120.8479
   383.16         118.6967
   383.30         116.7725
   383.44         115.2529
   383.58         114.2775
   383.72         113.9289
   383.86         114.2229
   384.00         115.1115
   384.14         116.4965
   384.28         118.2400
   384.42         120.1783
   384.56         122.1354
   384.70         123.9332
   384.84         125.4215
   384.98         126.5198
   385.12         127.2334
   385.26         127.6341
   385.40         127.8172
   385.54         127.8607
   385.68         127.8062
   385.82         127.6679
   385.96         127.4532
   386.10         127.1677
   386.24         126.8095
   386.38         126.3723
   386.52         125.8542
   386.66         125.2632
   386.80         124.6119
   386.94         123.9054
   387.08         123.1323
   387.22         122.2672
   387.36         121.2841
   387.50         120.1568
   387.64         118.8504
   387.78         117.3304
   387.92         115.5781
   388.06         113.6076
   388.20         111.4817
   388.34         109.3104
   388.48         107.2380
   388.62         105.4272
   388.76         104.0337
   388.90         103.1903
   389.04         102.9888
   389.18         103.4614
   389.32         104.5758
   389.46         106.2330
   389.60         108.2736
   389.74         110.5014
   389.88         112.7132
   390.02         114.7214
   390.16         116.3727
   390.30         117.5811
   390.44         118.3381
   390.58         118.6867
   390.72         118.6957
   390.86         118.4418
   391.00         118.0017
   391.14         117.4477
   391.28         116.8403
   391.42         116.2287
   391.56         115.6503
   391.70         115.1266
   391.84         114.6709
   391.98         114.2914
   392.12         113.9829
   392.26         113.7234
   392.40         113.4907
   392.54         113.2790
   392.68         113.0921
   392.82         112.9359
   392.96         112.8152
   393.10         112.7264
   393.24         112.6638
   393.38         112.6327
   393.52         112.6427
   393.66         112.7016
   393.80         112.8081
   393.94         112.9519
   394.08         113.1198
   394.22         113.2904
   394.36         113.4328
   394.50         113.5128
   394.64         113.4976
   394.78         113.3604
   394.92         113.0877
   395.06         112.6826
   395.20         112.1504
   395.34         111.4787
   395.48         110.6351
   395.62         109.5701
   395.76         108.2258
   395.90         106.5596
   396.04         104.5712
   396.18         102.3149
   396.32         99.8993
   396.46         97.4737
   396.60         95.2041
   396.74         93.2552
   396.88         91.7778
   397.02         90.8920
   397.16         90.6660
   397.30         91.1038
   397.44         92.1482
   397.58         93.6903
   397.72         95.5833
   397.86         97.6614
   398.00         99.7530
   398.14         101.6911
   398.28         103.3356
   398.42         104.6071
   398.56         105.5010
   398.70         106.0645
   398.84         106.3640
   398.98         106.4648
   399.12         106.4228
   399.26         106.2825
   399.40         106.0869
   399.54         105.8746
   399.68         105.6690
   399.82         105.4819
   399.96         105.3224
   400.10         105.1936
   400.24         105.0840
   400.38         104.9715
   400.52         104.8354
   400.66         104.6571
   400.80         104.4209
   400.94         104.1279
   401.08         103.7946
   401.22         103.4310
   401.36         103.0268
   401.50         102.5591
   401.64         102.0117
   401.78         101.3850
   401.92         100.6991
   402.06         99.9939
   402.20         99.3191
   402.34         98.7225
   402.48         98.2458
   402.62         97.9196
   402.76         97.7605
   402.90         97.7768
   403.04         97.9721
   403.18         98.3393
   403.32         98.8486
   403.46         99.4498
   403.60         100.0846
   403.74         100.6957
   403.88         101.2358
   404.02         101.6798
   404.16         102.0284
   404.30         102.3022
   404.44         102.5218
   404.58         102.6945
   404.72         102.8168
   404.86         102.8830
   405.00         102.8912
   405.14         102.8467
   405.28         102.7611
   405.42         102.6494
   405.56         102.5237
   405.70         102.3894
   405.84         102.2465
   405.98         102.0963
   406.12         101.9400
   406.26         101.7726
   406.40         101.5825
   406.54         101.3595
   406.68         101.1010
   406.82         100.8078
   406.96         100.4805
   407.10         100.1238
   407.24         99.7505
   407.38         99.3835
   407.52         99.0489
   407.66         98.7604
   407.80         98.5137
   407.94         98.2905
   408.08         98.0625
   408.22         97.7934
   408.36         97.4431
   408.50         96.9725
   408.64         96.3445
   408.78         95.5194
   408.92         94.4568
   409.06         93.1291
   409.20         91.5426
   409.34         89.7471
   409.48         87.8312
   409.62         85.9151
   409.76         84.1372
   409.90         82.6404
   410.04         81.5513
   410.18         80.9539
   410.32         80.8794
   410.46         81.3118
   410.60         82.1945
   410.74         83.4342
   410.88         84.9062
   411.02         86.4680
   411.16         87.9812
   411.30         89.3312
   411.44         90.4405
   411.58         91.2773
   411.72         91.8608
   411.86         92.2524
   412.00         92.5275
   412.14         92.7476
   412.28         92.9510
   412.42         93.1540
   412.56         93.3576
   412.70         93.5498
   412.84         93.7123
   412.98         93.8281
   413.12         93.8802
   413.26         93.8543
   413.40         93.7402
   413.54         93.5321
   413.68         93.2377
   413.82         92.8792
   413.96         92.4858
   414.10         92.0851
   414.24         91.6987
   414.38         91.3435
   414.52         91.0312
   414.66         90.7676
   414.80         90.5574
   414.94         90.4071
   415.08         90.3247
   415.22         90.3146
   415.36         90.3725
   415.50         90.4828
   415.64         90.6189
   415.78         90.7501
   415.92         90.8532
   416.06         90.9110
   416.20         90.9104
   416.34         90.8464
   416.48         90.7184
   416.62         90.5275
   416.76         90.2784
   416.90         89.9851
   417.04         89.6708
   417.18         89.3570
   417.32         89.0606
   417.46         88.7964
   417.60         88.5763
   417.74         88.4067
   417.88         88.2843
   418.02         88.1944
   418.16         88.1152
   418.30         88.0229
   418.44         87.8956
   418.58         87.7149
   418.72         87.4638
   418.86         87.1281
   419.00         86.7039
   419.14         86.2045
   419.28         85.6612
   419.42         85.1184
   419.56         84.6264
   419.70         84.2302
   419.84         83.9637
   419.98         83.8500
   420.12         83.8921
   420.26         84.0672
   420.40         84.3376
   420.54         84.6594
   420.68         84.9868
   420.82         85.2791
   420.96         85.5068
   421.10         85.6527
   421.24         85.7137
   421.38         85.6994
   421.52         85.6308
   421.66         85.5377
   421.80         85.4507
   421.94         85.3922
   422.08         85.3712
   422.22         85.3849
   422.36         85.4198
   422.50         85.4549
   422.64         85.4680
   422.78         85.4428
   422.92         85.3790
   423.06         85.2932
   423.20         85.2003
   423.34         85.1050
   423.48         85.0086
   423.62         84.9101
   423.76         84.8033
   423.90         84.6795
   424.04         84.5314
   424.18         84.3559
   424.32         84.1549
   424.46         83.9325
   424.60         83.6920
   424.74         83.4355
   424.88         83.1671
   425.02         82.8976
   425.16         82.6447
   425.30         82.4281
   425.44         82.2608
   425.58         82.1461
   425.72         82.0796
   425.86         82.0511
   426.00         82.0523
   426.14         82.0769
   426.28         82.1136
   426.42         82.1481
   426.56         82.1697
   426.70         82.1729
   426.84         82.1575
   426.98         82.1303
   427.12         82.1008
   427.26         82.0779
   427.40         82.0680
   427.54         82.0737
   427.68         82.0943
   427.82         82.1256
   427.96         82.1602
   428.10         82.1887
   428.24         82.2046
   428.38         82.2050
   428.52         82.1863
   428.66         82.1440
   428.80         82.0781
   428.94         81.9947
   429.08         81.9039
   429.22         81.8167
   429.36         81.7398
   429.50         81.6715
   429.64         81.6019
   429.78         81.5163
   429.92         81.4019
   430.06         81.2520
   430.20         81.0651
   430.34         80.8453
   430.48         80.6044
   430.62         80.3577
   430.76         80.1196
   430.90         79.9023
   431.04         79.7172
   431.18         79.5732
   431.32         79.4742
   431.46         79.4173
   431.60         79.3887
   431.74         79.3656
   431.88         79.3191
   432.02         79.2183
   432.16         79.0394
   432.30         78.7676
   432.44         78.3860
   432.58         77.8678
   432.72         77.1745
   432.86         76.2647
   433.00         75.1135
   433.14         73.7287
   433.28         72.1576
   433.42         70.4822
   433.56         68.8066
   433.70         67.2442
   433.84         65.9060
   433.98         64.8894
   434.12         64.2677
   434.26         64.0824
   434.40         64.3388
   434.54         65.0066
   434.68         66.0236
   434.82         67.3027
   434.96         68.7335
   435.10         70.1916
   435.24         71.5605
   435.38         72.7522
   435.52         73.7215
   435.66         74.4670
   435.80         75.0148
   435.94         75.3949
   436.08         75.6301
   436.22         75.7415
   436.36         75.7550
   436.50         75.6956
   436.64         75.5849
   436.78         75.4414
   436.92         75.2784
   437.06         75.1049
   437.20         74.9260
   437.34         74.7431
   437.48         74.5522
   437.62         74.3443
   437.76         74.1133
   437.90         73.8621
   438.04         73.6038
   438.18         73.3556
   438.32         73.1322
   438.46         72.9429
   438.60         72.7961
   438.74         72.7056
   438.88         72.6869
   439.02         72.7458
   439.16         72.8753
   439.30         73.0637
   439.44         73.2949
   439.58         73.5445
   439.72         73.7851
   439.86         73.9926
   440.00         74.1465
   440.14         74.2289
   440.28         74.2298
   440.42         74.1493
   440.56         73.9921
   440.70         73.7631
   440.84         73.4692
   440.98         73.1215
   441.12         72.7337
   441.26         72.3212
   441.40         71.8999
   441.54         71.4859
   441.68         71.0921
   441.82         70.7261
   441.96         70.3887
   442.10         70.0754
   442.24         69.7810
   442.38         69.5051
   442.52         69.2521
   442.66         69.0236
   442.80         68.8175
   442.94         68.6329
   443.08         68.4713
   443.22         68.3362
   443.36         68.2330
   443.50         68.1697
   443.64         68.1544
   443.78         68.1923
   443.92         68.2840
   444.06         68.4256
   444.20         68.6094
   444.34         68.8237
   444.48         69.0517
   444.62         69.2757
   444.76         69.4826
   444.90         69.6638
   445.04         69.8142
   445.18         69.9323
   445.32         70.0199
   445.46         70.0801
   445.60         70.1134
   445.74         70.1118
   445.88         70.0554
   446.02         69.9180
   446.16         69.6800
   446.30         69.3364
   446.44         68.8958
   446.58         68.3782
   446.72         67.8138
   446.86         67.2399
   447.00         66.6939
   447.14         66.2096
   447.28         65.8184
   447.42         65.5487
   447.56         65.4197
   447.70         65.4353
   447.84         65.5829
   447.98         65.8353
   448.12         66.1528
   448.26         66.4907
   448.40         66.8124
   448.54         67.0978
   448.68         67.3437
   448.82         67.5560
   448.96         67.7402
   449.10         67.8983
   449.24         68.0297
   449.38         68.1310
   449.52         68.1962
   449.66         68.2209
   449.80         68.2030
   449.94         68.1452
   450.08         68.0555
   450.22         67.9421
   450.36         67.8086
   450.50         67.6611
   450.64         67.5141
   450.78         67.3853
   450.92         67.2910
   451.06         67.2441
   451.20         67.2505
   451.34         67.3042
   451.48         67.3879
   451.62         67.4815
   451.76         67.5658
   451.90         67.6224
   452.04         67.6337
   452.18         67.5853
   452.32         67.4693
   452.46         67.2857
   452.60         67.0446
   452.74         66.7605
   452.88         66.4417
   453.02         66.0936
   453.16         65.7271
   453.30         65.3608
   453.44         65.0139
   453.58         64.7036
   453.72         64.4442
   453.86         64.2446
   454.00         64.1086
   454.14         64.0392
   454.28         64.0398
   454.42         64.1122
   454.56         64.2532
   454.70         64.4511
   454.84         64.6874
   454.98         64.9421
   455.12         65.1967
   455.26         65.4323
   455.40         65.6296
   455.54         65.7756
   455.68         65.8694
   455.82         65.9209
   455.96         65.9416
   456.10         65.9358
   456.24         65.9008
   456.38         65.8317
   456.52         65.7267
   456.66         65.5916
   456.80         65.4361
   456.94         65.2711
   457.08         65.1082
   457.22         64.9584
   457.36         64.8296
   457.50         64.7268
   457.64         64.6529
   457.78         64.6051
   457.92         64.5747
   458.06         64.5485
   458.20         64.5140
   458.34         64.4630
   458.48         64.3888
   458.62         64.2848
   458.76         64.1496
   458.90         63.9893
   459.04         63.8130
   459.18         63.6289
   459.32         63.4439
   459.46         63.2628
   459.60         63.0926
   459.74         62.9429
   459.88         62.8243
   460.02         62.7440
   460.16         62.7016
   460.30         62.6899
   460.44         62.7005
   460.58         62.7274
   460.72         62.7655
   460.86         62.8096
   461.00         62.8505
   461.14         62.8763
   461.28         62.8775
   461.42         62.8500
   461.56         62.7922
   461.70         62.7020
   461.84         62.5780
   461.98         62.4247
   462.12         62.2558
   462.26         62.0895
   462.40         61.9395
   462.54         61.8103
   462.68         61.6983
   462.82         61.5987
   462.96         61.5128
   463.10         61.4487
   463.24         61.4082
   463.38         61.3833
   463.52         61.3627
   463.66         61.3376
   463.80         61.3043
   463.94         61.2617
   464.08         61.2075
   464.22         61.1381
   464.36         61.0514
   464.50         60.9511
   464.64         60.8496
   464.78         60.7639
   464.92         60.7092
   465.06         60.6960
   465.20         60.7274
   465.34         60.7998
   465.48         60.9006
   465.62         61.0092
   465.76         61.1010
   465.90         61.1525
   466.04         61.1505
   466.18         61.0952
   466.32         60.9935
   466.46         60.8512
   466.60         60.6723
   466.74         60.4614
   466.88         60.2298
   467.02         59.9934
   467.16         59.7655
   467.30         59.5475
   467.44         59.3248
   467.58         59.0741
   467.72         58.7761
   467.86         58.4231
   468.00         58.0223
   468.14         57.5975
   468.28         57.1869
   468.42         56.8353
   468.56         56.5816
   468.70         56.4495
   468.84         56.4439
   468.98         56.5535
   469.12         56.7577
   469.26         57.0329
   469.40         57.3522
   469.54         57.6828
   469.68         57.9881
   469.82         58.2348
   469.96         58.4004
   470.10         58.4779
   470.24         58.4800
   470.38         58.4324
   470.52         58.3609
   470.66         58.2827
   470.80         58.2051
   470.94         58.1297
   471.08         58.0553
   471.22         57.9773
   471.36         57.8873
   471.50         57.7812
   471.64         57.6643
   471.78         57.5464
   471.92         57.4352
   472.06         57.3368
   472.20         57.2556
   472.34         57.1936
   472.48         57.1507
   472.62         57.1228
   472.76         57.1033
   472.90         57.0894
   473.04         57.0798
   473.18         57.0707
   473.32         57.0576
   473.46         57.0359
   473.60         57.0013
   473.74         56.9495
   473.88         56.8794
   474.02         56.7952
   474.16         56.7049
   474.30         56.6187
   474.44         56.5446
   474.58         56.4886
   474.72         56.4511
   474.86         56.4238
   475.00         56.3976
   475.14         56.3672
   475.28         56.3293
   475.42         56.2842
   475.56         56.2376
   475.70         56.1933
   475.84         56.1496
   475.98         56.1042
   476.12         56.0545
   476.26         55.9988
   476.40         55.9404
   476.54         55.8822
   476.68         55.8201
   476.82         55.7450
   476.96         55.6481
   477.10         55.5225
   477.24         55.3649
   477.38         55.1797
   477.52         54.9797
   477.66         54.7830
   477.80         54.6052
   477.94         54.4549
   478.08         54.3372
   478.22         54.2519
   478.36         54.1929
   478.50         54.1562
   478.64         54.1429
   478.78         54.1512
   478.92         54.1739
   479.06         54.2025
   479.20         54.2285
   479.34         54.2459
   479.48         54.2544
   479.62         54.2580
   479.76         54.2600
   479.90         54.2602
   480.04         54.2540
   480.18         54.2329
   480.32         54.1900
   480.46         54.1220
   480.60         54.0292
   480.74         53.9167
   480.88         53.7937
   481.02         53.6716
   481.16         53.5624
   481.30         53.4738
   481.44         53.4108
   481.58         53.3785
   481.72         53.3816
   481.86         53.4226
   482.00         53.4993
   482.14         53.6044
   482.28         53.7253
   482.42         53.8461
   482.56         53.9534
   482.70         54.0377
   482.84         54.0919
   482.98         54.1092
   483.12         54.0838
   483.26         54.0148
   483.40         53.9052
   483.54         53.7584
   483.68         53.5780
   483.82         53.3679
   483.96         53.1297
   484.10         52.8609
   484.24         52.5541
   484.38         52.1994
   484.52         51.7860
   484.66         51.3008
   484.80         50.7299
   484.94         50.0587
   485.08         49.2738
   485.22         48.3733
   485.36         47.3777
   485.50         46.3291
   485.64         45.2846
   485.78         44.3104
   485.92         43.4717
   486.06         42.8226
   486.20         42.4025
   486.34         42.2343
   486.48         42.3206
   486.62         42.6433
   486.76         43.1663
   486.90         43.8380
   487.04         44.5955
   487.18         45.3725
   487.32         46.1081
   487.46         46.7561
   487.60         47.2906
   487.74         47.7073
   487.88         48.0211
   488.02         48.2558
   488.16         48.4317
   488.30         48.5630
   488.44         48.6593
   488.58         48.7271
   488.72         48.7726
   488.86         48.8037
   489.00         48.8306
   489.14         48.8640
   489.28         48.9114
   489.42         48.9738
   489.56         49.0481
   489.70         49.1309
   489.84         49.2193
   489.98         49.3119
   490.12         49.4093
   490.26         49.5094
   490.40         49.6059
   490.54         49.6917
   490.68         49.7586
   490.82         49.7941
   490.96         49.7840
   491.10         49.7180
   491.24         49.5930
   491.38         49.4138
   491.52         49.1951
   491.66         48.9596
   491.80         48.7286
   491.94         48.5165
   492.08         48.3349
   492.22         48.1952
   492.36         48.1065
   492.50         48.0698
   492.64         48.0806
   492.78         48.1317
   492.92         48.2147
   493.06         48.3218
   493.20         48.4454
   493.34         48.5736
   493.48         48.6942
   493.62         48.8030
   493.76         48.9019
   493.90         48.9958
   494.04         49.0887
   494.18         49.1783
   494.32         49.2543
   494.46         49.3036
   494.60         49.3190
   494.74         49.3022
   494.88         49.2592
   495.02         49.1924
   495.16         49.1004
   495.30         48.9852
   495.44         48.8532
   495.58         48.7130
   495.72         48.5707
   495.86         48.4277
   496.00         48.2824
   496.14         48.1365
   496.28         47.9952
   496.42         47.8624
   496.56         47.7397
   496.70         47.6257
   496.84         47.5215
   496.98         47.4309
   497.12         47.3572
   497.26         47.2992
   497.40         47.2515
   497.54         47.2051
   497.68         47.1509
   497.82         47.0873
   497.96         47.0200
   498.10         46.9571
   498.24         46.9043
   498.38         46.8600
   498.52         46.8174
   498.66         46.7711
   498.80         46.7203
   498.94         46.6657
   499.08         46.6047
   499.22         46.5353
   499.36         46.4611
   499.50         46.3920
   499.64         46.3395
   499.78         46.3101
   499.92         46.3036
   500.06         46.3142
   500.20         46.3324
   500.34         46.3474
   500.48         46.3475
   500.62         46.3230
   500.76         46.2682
   500.90         46.1810
   501.04         46.0611
   501.18         45.9136
   501.32         45.7519
   501.46         45.5921
   501.60         45.4492
   501.74         45.3363
   501.88         45.2637
   502.02         45.2351
   502.16         45.2447
   502.30         45.2772
   502.44         45.3119
   502.58         45.3334
   502.72         45.3364
   502.86         45.3220
   503.00         45.2960
   503.14         45.2684
   503.28         45.2505
   503.42         45.2461
   503.56         45.2510
   503.70         45.2579
   503.84         45.2614
   503.98         45.2575
   504.12         45.2419
   504.26         45.2113
   504.40         45.1612
   504.54         45.0864
   504.68         44.9855
   504.82         44.8643
   504.96         44.7344
   505.10         44.6097
   505.24         44.5030
   505.38         44.4209
   505.52         44.3620
   505.66         44.3221
   505.80         44.2950
   505.94         44.2702
   506.08         44.2347
   506.22         44.1817
   506.36         44.1114
   506.50         44.0271
   506.64         43.9319
   506.78         43.8293
   506.92         43.7244
   507.06         43.6234
   507.20         43.5336
   507.34         43.4624
   507.48         43.4163
   507.62         43.3981
   507.76         43.4063
   507.90         43.4389
   508.04         43.4937
   508.18         43.5658
   508.32         43.6468
   508.46         43.7247
   508.60         43.7863
   508.74         43.8265
   508.88         43.8465
   509.02         43.8461
   509.16         43.8235
   509.30         43.7782
   509.44         43.7121
   509.58         43.6284
   509.72         43.5303
   509.86         43.4207
   510.00         43.3030
   510.14         43.1811
   510.28         43.0596
   510.42         42.9450
   510.56         42.8451
   510.70         42.7622
   510.84         42.6922
   510.98         42.6299
   511.12         42.5728
   511.26         42.5192
   511.40         42.4664
   511.54         42.4091
   511.68         42.3410
   511.82         42.2582
   511.96         42.1601
   512.10         42.0502
   512.24         41.9343
   512.38         41.8189
   512.52         41.7102
   512.66         41.6142
   512.80         41.5360
   512.94         41.4814
   513.08         41.4546
   513.22         41.4542
   513.36         41.4730
   513.50         41.5012
   513.64         41.5293
   513.78         41.5495
   513.92         41.5581
   514.06         41.5530
   514.20         41.5306
   514.34         41.4877
   514.48         41.4232
   514.62         41.3416
   514.76         41.2497
   514.90         41.1541
   515.04         41.0607
   515.18         40.9746
   515.32         40.8994
   515.46         40.8354
   515.60         40.7807
   515.74         40.7323
   515.88         40.6871
   516.02         40.6427
   516.16         40.5986
   516.30         40.5557
   516.44         40.5155
   516.58         40.4784
   516.72         40.4429
   516.86         40.4105
   517.00         40.3856
   517.14         40.3709
   517.28         40.3665
   517.42         40.3709
   517.56         40.3803
   517.70         40.3873
   517.84         40.3832
   517.98         40.3611
   518.12         40.3172
   518.26         40.2534
   518.40         40.1769
   518.54         40.0947
   518.68         40.0106
   518.82         39.9265
   518.96         39.8450
   519.10         39.7683
   519.24         39.6975
   519.38         39.6343
   519.52         39.5784
   519.66         39.5259
   519.80         39.4741
   519.94         39.4228
   520.08         39.3709
   520.22         39.3148
   520.36         39.2517
   520.50         39.1839
   520.64         39.1172
   520.78         39.0560
   520.92         39.0003
   521.06         38.9461
   521.20         38.8871
   521.34         38.8189
   521.48         38.7414
   521.62         38.6572
   521.76         38.5687
   521.90         38.4812
   522.04         38.4020
   522.18         38.3348
   522.32         38.2813
   522.46         38.2425
   522.60         38.2156
   522.74         38.1927
   522.88         38.1665
   523.02         38.1346
   523.16         38.0953
   523.30         38.0456
   523.44         37.9854
   523.58         37.9173
   523.72         37.8457
   523.86         37.7769
   524.00         37.7199
   524.14         37.6843
   524.28         37.6766
   524.42         37.6997
   524.56         37.7533
   524.70         37.8309
   524.84         37.9212
   524.98         38.0112
   525.12         38.0884
   525.26         38.1402
   525.40         38.1569
   525.54         38.1338
   525.68         38.0720
   525.82         37.9754
   525.96         37.8498
   526.10         37.7030
   526.24         37.5440
   526.38         37.3840
   526.52         37.2345
   526.66         37.1048
   526.80         36.9990
   526.94         36.9166
   527.08         36.8553
   527.22         36.8111
   527.36         36.7781
   527.50         36.7503
   527.64         36.7236
   527.78         36.6969
   527.92         36.6714
   528.06         36.6494
   528.20         36.6342
   528.34         36.6274
   528.48         36.6258
   528.62         36.6228
   528.76         36.6160
   528.90         36.6070
   529.04         36.5953
   529.18         36.5779
   529.32         36.5510
   529.46         36.5109
   529.60         36.4561
   529.74         36.3873
   529.88         36.3075
   530.02         36.2214
   530.16         36.1347
   530.30         36.0527
   530.44         35.9787
   530.58         35.9151
   530.72         35.8632
   530.86         35.8232
   531.00         35.7952
   531.14         35.7789
   531.28         35.7740
   531.42         35.7831
   531.56         35.8068
   531.70         35.8412
   531.84         35.8809
   531.98         35.9205
   532.12         35.9548
   532.26         35.9798
   532.40         35.9908
   532.54         35.9821
   532.68         35.9477
   532.82         35.8836
   532.96         35.7901
   533.10         35.6712
   533.24         35.5335
   533.38         35.3833
   533.52         35.2285
   533.66         35.0805
   533.80         34.9503
   533.94         34.8473
   534.08         34.7794
   534.22         34.7485
   534.36         34.7506
   534.50         34.7785
   534.64         34.8241
   534.78         34.8792
   534.92         34.9359
   535.06         34.9878
   535.20         35.0309
   535.34         35.0643
   535.48         35.0896
   535.62         35.1067
   535.76         35.1116
   535.90         35.0991
   536.04         35.0675
   536.18         35.0213
   536.32         34.9675
   536.46         34.9086
   536.60         34.8445
   536.74         34.7761
   536.88         34.7052
   537.02         34.6345
   537.16         34.5667
   537.30         34.5052
   537.44         34.4515
   537.58         34.4035
   537.72         34.3594
   537.86         34.3186
   538.00         34.2808
   538.14         34.2445
   538.28         34.2076
   538.42         34.1697
   538.56         34.1337
   538.70         34.1036
   538.84         34.0805
   538.98         34.0612
   539.12         34.0394
   539.26         34.0107
   539.40         33.9702
   539.54         33.9115
   539.68         33.8265
   539.82         33.7052
   539.96         33.5390
   540.10         33.3229
   540.24         33.0609
   540.38         32.7689
   540.52         32.4702
   540.66         32.1894
   540.80         31.9486
   540.94         31.7652
   541.08         31.6514
   541.22         31.6122
   541.36         31.6461
   541.50         31.7476
   541.64         31.9051
   541.78         32.1005
   541.92         32.3100
   542.06         32.5097
   542.20         32.6815
   542.34         32.8134
   542.48         32.8997
   542.62         32.9431
   542.76         32.9530
   542.90         32.9416
   543.04         32.9198
   543.18         32.8934
   543.32         32.8642
   543.46         32.8304
   543.60         32.7897
   543.74         32.7420
   543.88         32.6887
   544.02         32.6320
   544.16         32.5746
   544.30         32.5171
   544.44         32.4594
   544.58         32.4013
   544.72         32.3439
   544.86         32.2880
   545.00         32.2328
   545.14         32.1768
   545.28         32.1203
   545.42         32.0654
   545.56         32.0161
   545.70         31.9767
   545.84         31.9509
   545.98         31.9418
   546.12         31.9511
   546.26         31.9807
   546.40         32.0303
   546.54         32.0937
   546.68         32.1619
   546.82         32.2268
   546.96         32.2810
   547.10         32.3179
   547.24         32.3304
   547.38         32.3133
   547.52         32.2675
   547.66         32.1996
   547.80         32.1174
   547.94         32.0290
   548.08         31.9423
   548.22         31.8633
   548.36         31.7949
   548.50         31.7380
   548.64         31.6932
   548.78         31.6597
   548.92         31.6363
   549.06         31.6186
   549.20         31.6015
   549.34         31.5820
   549.48         31.5580
   549.62         31.5253
   549.76         31.4810
   549.90         31.4268
   550.04         31.3688
   550.18         31.3154
   550.32         31.2724
   550.46         31.2419
   550.60         31.2238
   550.74         31.2169
   550.88         31.2200
   551.02         31.2312
   551.16         31.2477
   551.30         31.2644
   551.44         31.2747
   551.58         31.2728
   551.72         31.2559
   551.86         31.2225
   552.00         31.1718
   552.14         31.1052
   552.28         31.0267
   552.42         30.9425
   552.56         30.8566
   552.70         30.7692
   552.84         30.6788
   552.98         30.5838
   553.12         30.4839
   553.26         30.3808
   553.40         30.2805
   553.54         30.1903
   553.68         30.1161
   553.82         30.0611
   553.96         30.0258
   554.10         30.0091
   554.24         30.0083
   554.38         30.0190
   554.52         30.0365
   554.66         30.0570
   554.80         30.0767
   554.94         30.0915
   555.08         30.0966
   555.22         30.0878
   555.36         30.0621
   555.50         30.0179
   555.64         29.9564
   555.78         29.8814
   555.92         29.7987
   556.06         29.7143
   556.20         29.6320
   556.34         29.5542
   556.48         29.4819
   556.62         29.4148
   556.76         29.3546
   556.90         29.3044
   557.04         29.2651
   557.18         29.2357
   557.32         29.2136
   557.46         29.1983
   557.60         29.1927
   557.74         29.1985
   557.88         29.2150
   558.02         29.2382
   558.16         29.2620
   558.30         29.2826
   558.44         29.2984
   558.58         29.3092
   558.72         29.3165
   558.86         29.3206
   559.00         29.3192
   559.14         29.3103
   559.28         29.2943
   559.42         29.2740
   559.56         29.2508
   559.70         29.2260
   559.84         29.2027
   559.98         29.1840
   560.12         29.1715
   560.26         29.1645
   560.40         29.1599
   560.54         29.1559
   560.68         29.1518
   560.82         29.1478
   560.96         29.1445
   561.10         29.1412
   561.24         29.1341
   561.38         29.1164
   561.52         29.0790
   561.66         29.0167
   561.80         28.9313
   561.94         28.8290
   562.08         28.7172
   562.22         28.6037
   562.36         28.4980
   562.50         28.4083
   562.64         28.3402
   562.78         28.2976
   562.92         28.2816
   563.06         28.2893
   563.20         28.3143
   563.34         28.3483
   563.48         28.3836
   563.62         28.4130
   563.76         28.4298
   563.90         28.4296
   564.04         28.4107
   564.18         28.3751
   564.32         28.3293
   564.46         28.2800
   564.60         28.2317
   564.74         28.1868
   564.88         28.1460
   565.02         28.1080
   565.16         28.0692
   565.30         28.0264
   565.44         27.9781
   565.58         27.9239
   565.72         27.8634
   565.86         27.7958
   566.00         27.7214
   566.14         27.6423
   566.28         27.5597
   566.42         27.4766
   566.56         27.3982
   566.70         27.3265
   566.84         27.2617
   566.98         27.2042
   567.12         27.1545
   567.26         27.1130
   567.40         27.0798
   567.54         27.0550
   567.68         27.0399
   567.82         27.0349
   567.96         27.0405
   568.10         27.0577
   568.24         27.0861
   568.38         27.1234
   568.52         27.1661
   568.66         27.2117
   568.80         27.2567
   568.94         27.2958
   569.08         27.3222
   569.22         27.3266
   569.36         27.2999
   569.50         27.2392
   569.64         27.1480
   569.78         27.0332
   569.92         26.9030
   570.06         26.7673
   570.20         26.6379
   570.34         26.5263
   570.48         26.4414
   570.62         26.3893
   570.76         26.3723
   570.90         26.3884
   571.04         26.4321
   571.18         26.4959
   571.32         26.5706
   571.46         26.6449
   571.60         26.7063
   571.74         26.7423
   571.88         26.7456
   572.02         26.7185
   572.16         26.6700
   572.30         26.6091
   572.44         26.5429
   572.58         26.4762
   572.72         26.4129
   572.86         26.3569
   573.00         26.3102
   573.14         26.2721
   573.28         26.2392
   573.42         26.2069
   573.56         26.1707
   573.70         26.1278
   573.84         26.0775
   573.98         26.0214
   574.12         25.9622
   574.26         25.9031
   574.40         25.8487
   574.54         25.8058
   574.68         25.7801
   574.82         25.7716
   574.96         25.7766
   575.10         25.7936
   575.24         25.8234
   575.38         25.8665
   575.52         25.9203
   575.66         25.9782
   575.80         26.0318
   575.94         26.0735
   576.08         26.0983
   576.22         26.1037
   576.36         26.0896
   576.50         26.0569
   576.64         26.0053
   576.78         25.9302
   576.92         25.8237
   577.06         25.6828
   577.20         25.5117
   577.34         25.3194
   577.48         25.1177
   577.62         24.9200
   577.76         24.7405
   577.90         24.5917
   578.04         24.4810
   578.18         24.4118
   578.32         24.3860
   578.46         24.4017
   578.60         24.4516
   578.74         24.5244
   578.88         24.6051
   579.02         24.6769
   579.16         24.7237
   579.30         24.7352
   579.44         24.7085
   579.58         24.6511
   579.72         24.5769
   579.86         24.4987
   580.00         24.4252
   580.14         24.3616
   580.28         24.3116
   580.42         24.2779
   580.56         24.2613
   580.70         24.2611
   580.84         24.2769
   580.98         24.3082
   581.12         24.3519
   581.26         24.4042
   581.40         24.4619
   581.54         24.5238
   581.68         24.5911
   581.82         24.6668
   581.96         24.7523
   582.10         24.8429
   582.24         24.9285
   582.38         24.9982
   582.52         25.0448
   582.66         25.0653
   582.80         25.0602
   582.94         25.0309
   583.08         24.9805
   583.22         24.9148
   583.36         24.8426
   583.50         24.7716
   583.64         24.7065
   583.78         24.6501
   583.92         24.6048
   584.06         24.5719
   584.20         24.5503
   584.34         24.5372
   584.48         24.5298
   584.62         24.5253
   584.76         24.5221
   584.90         24.5210
   585.04         24.5245
   585.18         24.5336
   585.32         24.5468
   585.46         24.5613
   585.60         24.5723
   585.74         24.5744
   585.88         24.5636
   586.02         24.5341
   586.16         24.4777
   586.30         24.3854
   586.44         24.2507
   586.58         24.0742
   586.72         23.8659
   586.86         23.6425
   587.00         23.4229
   587.14         23.2261
   587.28         23.0678
   587.42         22.9579
   587.56         22.8964
   587.70         22.8713
   587.84         22.8600
   587.98         22.8403
   588.12         22.7957
   588.26         22.7132
   588.40         22.5837
   588.54         22.4053
   588.68         22.1873
   588.82         21.9492
   588.96         21.7178
   589.10         21.5240
   589.24         21.3972
   589.38         21.3576
   589.52         21.4108
   589.66         21.5502
   589.80         21.7609
   589.94         22.0202
   590.08         22.3001
   590.22         22.5719
   590.36         22.8119
   590.50         23.0068
   590.64         23.1547
   590.78         23.2594
   590.92         23.3279
   591.06         23.3705
   591.20         23.4014
   591.34         23.4344
   591.48         23.4765
   591.62         23.5266
   591.76         23.5789
   591.90         23.6265
   592.04         23.6635
   592.18         23.6844
   592.32         23.6844
   592.46         23.6615
   592.60         23.6179
   592.74         23.5590
   592.88         23.4901
   593.02         23.4158
   593.16         23.3411
   593.30         23.2714
   593.44         23.2123
   593.58         23.1654
   593.72         23.1280
   593.86         23.0956
   594.00         23.0617
   594.14         23.0215
   594.28         22.9726
   594.42         22.9169
   594.56         22.8582
   594.70         22.7991
   594.84         22.7410
   594.98         22.6858
   595.12         22.6376
   595.26         22.6011
   595.40         22.5780
   595.54         22.5671
   595.68         22.5675
   595.82         22.5792
   595.96         22.5998
   596.10         22.6235
   596.24         22.6428
   596.38         22.6526
   596.52         22.6504
   596.66         22.6374
   596.80         22.6176
   596.94         22.5940
   597.08         22.5684
   597.22         22.5419
   597.36         22.5155
   597.50         22.4894
   597.64         22.4628
   597.78         22.4351
   597.92         22.4063
   598.06         22.3752
   598.20         22.3397
   598.34         22.3000
   598.48         22.2565
   598.62         22.2092
   598.76         22.1599
   598.90         22.1126
   599.04         22.0715
   599.18         22.0391
   599.32         22.0161
   599.46         22.0003
   599.60         21.9878
   599.74         21.9746
   599.88         21.9560
   600.02         21.9283
   600.16         21.8887
   600.30         21.8361
   600.44         21.7727
   600.58         21.7028
   600.72         21.6302
   600.86         21.5584
   601.00         21.4906
   601.14         21.4297
   601.28         21.3792
   601.42         21.3429
   601.56         21.3229
   601.70         21.3194
   601.84         21.3290
   601.98         21.3466
   602.12         21.3661
   602.26         21.3813
   602.40         21.3875
   602.54         21.3826
   602.68         21.3676
   602.82         21.3437
   602.96         21.3123
   603.10         21.2772
   603.24         21.2431
   603.38         21.2128
   603.52         21.1877
   603.66         21.1688
   603.80         21.1569
   603.94         21.1518
   604.08         21.1526
   604.22         21.1571
   604.36         21.1617
   604.50         21.1632
   604.64         21.1598
   604.78         21.1513
   604.92         21.1387
   605.06         21.1242
   605.20         21.1098
   605.34         21.0972
   605.48         21.0875
   605.62         21.0809
   605.76         21.0770
   605.90         21.0733
   606.04         21.0664
   606.18         21.0537
   606.32         21.0342
   606.46         21.0084
   606.60         20.9780
   606.74         20.9451
   606.88         20.9106
   607.02         20.8751
   607.16         20.8411
   607.30         20.8117
   607.44         20.7890
   607.58         20.7758
   607.72         20.7753
   607.86         20.7897
   608.00         20.8182
   608.14         20.8567
   608.28         20.9006
   608.42         20.9480
   608.56         20.9978
   608.70         21.0485
   608.84         21.0954
   608.98         21.1314
   609.12         21.1486
   609.26         21.1413
   609.40         21.1088
   609.54         21.0549
   609.68         20.9858
   609.82         20.9081
   609.96         20.8291
   610.10         20.7568
   610.24         20.6986
   610.38         20.6581
   610.52         20.6352
   610.66         20.6273
   610.80         20.6316
   610.94         20.6446
   611.08         20.6618
   611.22         20.6771
   611.36         20.6851
   611.50         20.6829
   611.64         20.6701
   611.78         20.6481
   611.92         20.6200
   612.06         20.5901
   612.20         20.5623
   612.34         20.5390
   612.48         20.5219
   612.62         20.5119
   612.76         20.5074
   612.90         20.5056
   613.04         20.5042
   613.18         20.5027
   613.32         20.5005
   613.46         20.4962
   613.60         20.4892
   613.74         20.4794
   613.88         20.4661
   614.02         20.4478
   614.16         20.4231
   614.30         20.3900
   614.44         20.3486
   614.58         20.3018
   614.72         20.2523
   614.86         20.1994
   615.00         20.1415
   615.14         20.0771
   615.28         20.0048
   615.42         19.9266
   615.56         19.8474
   615.70         19.7739
   615.84         19.7129
   615.98         19.6687
   616.12         19.6436
   616.26         19.6388
   616.40         19.6523
   616.54         19.6777
   616.68         19.7083
   616.82         19.7378
   616.96         19.7602
   617.10         19.7712
   617.24         19.7665
   617.38         19.7435
   617.52         19.7031
   617.66         19.6494
   617.80         19.5879
   617.94         19.5242
   618.08         19.4650
   618.22         19.4155
   618.36         19.3775
   618.50         19.3498
   618.64         19.3299
   618.78         19.3158
   618.92         19.3054
   619.06         19.2944
   619.20         19.2779
   619.34         19.2531
   619.48         19.2198
   619.62         19.1795
   619.76         19.1365
   619.90         19.0964
   620.04         19.0665
   620.18         19.0548
   620.32         19.0681
   620.46         19.1086
   620.60         19.1734
   620.74         19.2564
   620.88         19.3496
   621.02         19.4442
   621.16         19.5334
   621.30         19.6118
   621.44         19.6748
   621.58         19.7171
   621.72         19.7332
   621.86         19.7216
   622.00         19.6856
   622.14         19.6327
   622.28         19.5712
   622.42         19.5078
   622.56         19.4465
   622.70         19.3899
   622.84         19.3396
   622.98         19.2941
   623.12         19.2495
   623.26         19.2047
   623.40         19.1625
   623.54         19.1278
   623.68         19.1058
   623.82         19.1005
   623.96         19.1115
   624.10         19.1337
   624.24         19.1617
   624.38         19.1915
   624.52         19.2200
   624.66         19.2447
   624.80         19.2640
   624.94         19.2781
   625.08         19.2873
   625.22         19.2905
   625.36         19.2870
   625.50         19.2770
   625.64         19.2599
   625.78         19.2356
   625.92         19.2050
   626.06         19.1689
   626.20         19.1272
   626.34         19.0782
   626.48         19.0178
   626.62         18.9415
   626.76         18.8476
   626.90         18.7369
   627.04         18.6096
   627.18         18.4653
   627.32         18.3043
   627.46         18.1307
   627.60         17.9538
   627.74         17.7854
   627.88         17.6378
   628.02         17.5227
   628.16         17.4492
   628.30         17.4221
   628.44         17.4420
   628.58         17.5061
   628.72         17.6089
   628.86         17.7418
   629.00         17.8926
   629.14         18.0457
   629.28         18.1872
   629.42         18.3086
   629.56         18.4046
   629.70         18.4722
   629.84         18.5105
   629.98         18.5226
   630.12         18.5159
   630.26         18.4977
   630.40         18.4711
   630.54         18.4364
   630.68         18.3948
   630.82         18.3494
   630.96         18.3050
   631.10         18.2657
   631.24         18.2343
   631.38         18.2116
   631.52         18.1962
   631.66         18.1862
   631.80         18.1793
   631.94         18.1745
   632.08         18.1707
   632.22         18.1639
   632.36         18.1496
   632.50         18.1253
   632.64         18.0914
   632.78         18.0505
   632.92         18.0060
   633.06         17.9627
   633.20         17.9252
   633.34         17.8963
   633.48         17.8761
   633.62         17.8628
   633.76         17.8541
   633.90         17.8484
   634.04         17.8455
   634.18         17.8472
   634.32         17.8548
   634.46         17.8684
   634.60         17.8877
   634.74         17.9120
   634.88         17.9397
   635.02         17.9680
   635.16         17.9937
   635.30         18.0136
   635.44         18.0262
   635.58         18.0310
   635.72         18.0270
   635.86         18.0134
   636.00         17.9907
   636.14         17.9617
   636.28         17.9295
   636.42         17.8965
   636.56         17.8638
   636.70         17.8323
   636.84         17.8018
   636.98         17.7703
   637.12         17.7360
   637.26         17.6979
   637.40         17.6552
   637.54         17.6081
   637.68         17.5576
   637.82         17.5058
   637.96         17.4561
   638.10         17.4114
   638.24         17.3727
   638.38         17.3387
   638.52         17.3077
   638.66         17.2790
   638.80         17.2528
   638.94         17.2291
   639.08         17.2074
   639.22         17.1875
   639.36         17.1690
   639.50         17.1515
   639.64         17.1344
   639.78         17.1187
   639.92         17.1072
   640.06         17.1024
   640.20         17.1053
   640.34         17.1148
   640.48         17.1292
   640.62         17.1469
   640.76         17.1669
   640.90         17.1889
   641.04         17.2128
   641.18         17.2391
   641.32         17.2671
   641.46         17.2942
   641.60         17.3169
   641.74         17.3325
   641.88         17.3397
   642.02         17.3383
   642.16         17.3286
   642.30         17.3112
   642.44         17.2865
   642.58         17.2545
   642.72         17.2153
   642.86         17.1689
   643.00         17.1164
   643.14         17.0603
   643.28         17.0044
   643.42         16.9521
   643.56         16.9041
   643.70         16.8605
   643.84         16.8216
   643.98         16.7890
   644.12         16.7660
   644.26         16.7561
   644.40         16.7607
   644.54         16.7780
   644.68         16.8048
   644.82         16.8366
   644.96         16.8691
   645.10         16.8979
   645.24         16.9204
   645.38         16.9360
   645.52         16.9443
   645.66         16.9459
   645.80         16.9423
   645.94         16.9346
   646.08         16.9236
   646.22         16.9096
   646.36         16.8935
   646.50         16.8753
   646.64         16.8549
   646.78         16.8326
   646.92         16.8090
   647.06         16.7847
   647.20         16.7599
   647.34         16.7349
   647.48         16.7097
   647.62         16.6848
   647.76         16.6618
   647.90         16.6418
   648.04         16.6242
   648.18         16.6060
   648.32         16.5844
   648.46         16.5586
   648.60         16.5303
   648.74         16.5029
   648.88         16.4806
   649.02         16.4672
   649.16         16.4649
   649.30         16.4737
   649.44         16.4928
   649.58         16.5208
   649.72         16.5549
   649.86         16.5915
   650.00         16.6263
   650.14         16.6553
   650.28         16.6747
   650.42         16.6810
   650.56         16.6724
   650.70         16.6491
   650.84         16.6151
   650.98         16.5762
   651.12         16.5375
   651.26         16.5014
   651.40         16.4685
   651.54         16.4380
   651.68         16.4076
   651.82         16.3747
   651.96         16.3385
   652.10         16.3003
   652.24         16.2626
   652.38         16.2272
   652.52         16.1946
   652.66         16.1648
   652.80         16.1386
   652.94         16.1182
   653.08         16.1068
   653.22         16.1077
   653.36         16.1227
   653.50         16.1504
   653.64         16.1862
   653.78         16.2229
   653.92         16.2527
   654.06         16.2683
   654.20         16.2639
   654.34         16.2364
   654.48         16.1845
   654.62         16.1056
   654.76         15.9968
   654.90         15.8557
   655.04         15.6805
   655.18         15.4715
   655.32         15.2331
   655.46         14.9750
   655.60         14.7110
   655.74         14.4575
   655.88         14.2315
   656.02         14.0487
   656.16         13.9219
   656.30         13.8606
   656.44         13.8695
   656.58         13.9487
   656.72         14.0937
   656.86         14.2952
   657.00         14.5386
   657.14         14.8040
   657.28         15.0706
   657.42         15.3212
   657.56         15.5435
   657.70         15.7302
   657.84         15.8803
   657.98         15.9974
   658.12         16.0870
   658.26         16.1547
   658.40         16.2053
   658.54         16.2425
   658.68         16.2688
   658.82         16.2859
   658.96         16.2941
   659.10         16.2928
   659.24         16.2827
   659.38         16.2658
   659.52         16.2450
   659.66         16.2220
   659.80         16.1986
   659.94         16.1771
   660.08         16.1593
   660.22         16.1447
   660.36         16.1317
   660.50         16.1174
   660.64         16.0975
   660.78         16.0684
   660.92         16.0282
   661.06         15.9778
   661.20         15.9216
   661.34         15.8657
   661.48         15.8163
   661.62         15.7782
   661.76         15.7549
   661.90         15.7485
   662.04         15.7583
   662.18         15.7811
   662.32         15.8112
   662.46         15.8425
   662.60         15.8692
   662.74         15.8856
   662.88         15.8880
   663.02         15.8758
   663.16         15.8505
   663.30         15.8150
   663.44         15.7733
   663.58         15.7302
   663.72         15.6909
   663.86         15.6591
   664.00         15.6356
   664.14         15.6192
   664.28         15.6068
   664.42         15.5946
   664.56         15.5799
   664.70         15.5609
   664.84         15.5367
   664.98         15.5060
   665.12         15.4677
   665.26         15.4215
   665.40         15.3679
   665.54         15.3089
   665.68         15.2470
   665.82         15.1836
   665.96         15.1210
   666.10         15.0624
   666.24         15.0100
   666.38         14.9633
   666.52         14.9195
   666.66         14.8769
   666.80         14.8349
   666.94         14.7930
   667.08         14.7527
   667.22         14.7154
   667.36         14.6813
   667.50         14.6502
   667.64         14.6227
   667.78         14.5995
   667.92         14.5827
   668.06         14.5749
   668.20         14.5774
   668.34         14.5905
   668.48         14.6123
   668.62         14.6395
   668.76         14.6675
   668.90         14.6915
   669.04         14.7089
   669.18         14.7201
   669.32         14.7275
   669.46         14.7317
   669.60         14.7328
   669.74         14.7319
   669.88         14.7299
   670.02         14.7286
   670.16         14.7301
   670.30         14.7356
   670.44         14.7447
   670.58         14.7567
   670.72         14.7700
   670.86         14.7823
   671.00         14.7918
   671.14         14.7974
   671.28         14.7989
   671.42         14.7985
   671.56         14.7995
   671.70         14.8044
   671.84         14.8136
   671.98         14.8257
   672.12         14.8383
   672.26         14.8494
   672.40         14.8575
   672.54         14.8606
   672.68         14.8561
   672.82         14.8416
   672.96         14.8163
   673.10         14.7822
   673.24         14.7433
   673.38         14.7033
   673.52         14.6656
   673.66         14.6330
   673.80         14.6056
   673.94         14.5826
   674.08         14.5636
   674.22         14.5486
   674.36         14.5381
   674.50         14.5333
   674.64         14.5353
   674.78         14.5435
   674.92         14.5562
   675.06         14.5707
   675.20         14.5837
   675.34         14.5924
   675.48         14.5960
   675.62         14.5951
   675.76         14.5884
   675.90         14.5735
   676.04         14.5478
   676.18         14.5097
   676.32         14.4587
   676.46         14.3965
   676.60         14.3276
   676.74         14.2579
   676.88         14.1928
   677.02         14.1353
   677.16         14.0864
   677.30         14.0457
   677.44         14.0120
   677.58         13.9843
   677.72         13.9616
   677.86         13.9438
   678.00         13.9313
   678.14         13.9230
   678.28         13.9159
   678.42         13.9069
   678.56         13.8952
   678.70         13.8823
   678.84         13.8716
   678.98         13.8666
   679.12         13.8701
   679.26         13.8833
   679.40         13.9062
   679.54         13.9370
   679.68         13.9727
   679.82         14.0100
   679.96         14.0447
   680.10         14.0717
   680.24         14.0869
   680.38         14.0891
   680.52         14.0798
   680.66         14.0620
   680.80         14.0380
   680.94         14.0098
   681.08         13.9796
   681.22         13.9499
   681.36         13.9237
   681.50         13.9035
   681.64         13.8902
   681.78         13.8834
   681.92         13.8822
   682.06         13.8840
   682.20         13.8853
   682.34         13.8826
   682.48         13.8740
   682.62         13.8597
   682.76         13.8410
   682.90         13.8203
   683.04         13.8005
   683.18         13.7839
   683.32         13.7708
   683.46         13.7602
   683.60         13.7524
   683.74         13.7491
   683.88         13.7532
   684.02         13.7675
   684.16         13.7917
   684.30         13.8224
   684.44         13.8543
   684.58         13.8816
   684.72         13.8995
   684.86         13.9055
   685.00         13.8989
   685.14         13.8799
   685.28         13.8482
   685.42         13.8013
   685.56         13.7331
   685.70         13.6337
   685.84         13.4929
   685.98         13.3046
   686.12         13.0700
   686.26         12.7973
   686.40         12.4988
   686.54         12.1902
   686.68         11.8894
   686.82         11.6158
   686.96         11.3878
   687.10         11.2207
   687.24         11.1251
   687.38         11.1037
   687.52         11.1498
   687.66         11.2481
   687.80         11.3776
   687.94         11.5156
   688.08         11.6399
   688.22         11.7333
   688.36         11.7875
   688.50         11.8053
   688.64         11.7968
   688.78         11.7751
   688.92         11.7538
   689.06         11.7449
   689.20         11.7575
   689.34         11.7965
   689.48         11.8624
   689.62         11.9509
   689.76         12.0554
   689.90         12.1680
   690.04         12.2797
   690.18         12.3818
   690.32         12.4688
   690.46         12.5393
   690.60         12.5953
   690.74         12.6401
   690.88         12.6773
   691.02         12.7108
   691.16         12.7437
   691.30         12.7790
   691.44         12.8189
   691.58         12.8637
   691.72         12.9102
   691.86         12.9531
   692.00         12.9877
   692.14         13.0109
   692.28         13.0208
   692.42         13.0162
   692.56         12.9963
   692.70         12.9611
   692.84         12.9126
   692.98         12.8547
   693.12         12.7922
   693.26         12.7305
   693.40         12.6744
   693.54         12.6279
   693.68         12.5940
   693.82         12.5760
   693.96         12.5772
   694.10         12.5991
   694.24         12.6404
   694.38         12.6972
   694.52         12.7642
   694.66         12.8358
   694.80         12.9064
   694.94         12.9707
   695.08         13.0241
   695.22         13.0642
   695.36         13.0913
   695.50         13.1084
   695.64         13.1196
   695.78         13.1300
   695.92         13.1443
   696.06         13.1657
   696.20         13.1961
   696.34         13.2368
   696.48         13.2884
   696.62         13.3490
   696.76         13.4144
   696.90         13.4792
   697.04         13.5364
   697.18         13.5792
   697.32         13.6024
   697.46         13.6021
   697.60         13.5764
   697.74         13.5274
   697.88         13.4602
   698.02         13.3814
   698.16         13.2975
   698.30         13.2148
   698.44         13.1391
   698.58         13.0755
   698.72         13.0280
   698.86         12.9991
   699.00         12.9900
   699.14         12.9997
   699.28         13.0245
   699.42         13.0584
   699.56         13.0951
   699.70         13.1288
   699.84         13.1543
   699.98         13.1679
   700.12         13.1688
   700.26         13.1591
   700.40         13.1417
   700.54         13.1188
   700.68         13.0918
   700.82         13.0622
   700.96         13.0320
   701.10         13.0025
   701.24         12.9736
   701.38         12.9446
   701.52         12.9149
   701.66         12.8836
   701.80         12.8500
   701.94         12.8140
   702.08         12.7757
   702.22         12.7353
   702.36         12.6927
   702.50         12.6473
   702.64         12.5997
   702.78         12.5521
   702.92         12.5061
   703.06         12.4623
   703.20         12.4216
   703.34         12.3851
   703.48         12.3546
   703.62         12.3312
   703.76         12.3139
   703.90         12.3002
   704.04         12.2882
   704.18         12.2766
   704.32         12.2644
   704.46         12.2511
   704.60         12.2377
   704.74         12.2249
   704.88         12.2135
   705.02         12.2030
   705.16         12.1900
   705.30         12.1690
   705.44         12.1353
   705.58         12.0876
   705.72         12.0303
   705.86         11.9714
   706.00         11.9181
   706.14         11.8752
   706.28         11.8447
   706.42         11.8262
   706.56         11.8200
   706.70         11.8276
   706.84         11.8499
   706.98         11.8882
   707.12         11.9443
   707.26         12.0172
   707.40         12.1016
   707.54         12.1896
   707.68         12.2743
   707.82         12.3509
   707.96         12.4181
   708.10         12.4778
   708.24         12.5330
   708.38         12.5843
   708.52         12.6282
   708.66         12.6595
   708.80         12.6741
   708.94         12.6709
   709.08         12.6503
   709.22         12.6143
   709.36         12.5656
   709.50         12.5072
   709.64         12.4441
   709.78         12.3819
   709.92         12.3233
   710.06         12.2692
   710.20         12.2217
   710.34         12.1821
   710.48         12.1499
   710.62         12.1245
   710.76         12.1071
   710.90         12.1000
   711.04         12.1064
   711.18         12.1290
   711.32         12.1674
   711.46         12.2175
   711.60         12.2725
   711.74         12.3261
   711.88         12.3739
   712.02         12.4151
   712.16         12.4520
   712.30         12.4872
   712.44         12.5211
   712.58         12.5535
   712.72         12.5862
   712.86         12.6208
   713.00         12.6552
   713.14         12.6863
   713.28         12.7125
   713.42         12.7320
   713.56         12.7411
   713.70         12.7359
   713.84         12.7141
   713.98         12.6757
   714.12         12.6248
   714.26         12.5691
   714.40         12.5154
   714.54         12.4696
   714.68         12.4353
   714.82         12.4118
   714.96         12.3930
   715.10         12.3724
   715.24         12.3450
   715.38         12.3064
   715.52         12.2520
   715.66         12.1790
   715.80         12.0889
   715.94         11.9860
   716.08         11.8750
   716.22         11.7602
   716.36         11.6456
   716.50         11.5331
   716.64         11.4221
   716.78         11.3117
   716.92         11.2025
   717.06         11.0957
   717.20         10.9934
   717.34         10.8956
   717.48         10.8000
   717.62         10.7082
   717.76         10.6256
   717.90         10.5553
   718.04         10.4965
   718.18         10.4482
   718.32         10.4111
   718.46         10.3873
   718.60         10.3798
   718.74         10.3930
   718.88         10.4299
   719.02         10.4904
   719.16         10.5733
   719.30         10.6744
   719.44         10.7860
   719.58         10.8990
   719.72         11.0060
   719.86         11.1016
   720.00         11.1861
   720.14         11.2660
   720.28         11.3497
   720.42         11.4408
   720.56         11.5391
   720.70         11.6469
   720.84         11.7687
   720.98         11.9056
   721.12         12.0510
   721.26         12.1942
   721.40         12.3226
   721.54         12.4228
   721.68         12.4839
   721.82         12.4992
   721.96         12.4647
   722.10         12.3806
   722.24         12.2528
   722.38         12.0902
   722.52         11.9058
   722.66         11.7148
   722.80         11.5292
   722.94         11.3554
   723.08         11.1978
   723.22         11.0607
   723.36         10.9469
   723.50         10.8572
   723.64         10.7902
   723.78         10.7435
   723.92         10.7163
   724.06         10.7075
   724.20         10.7143
   724.34         10.7334
   724.48         10.7611
   724.62         10.7941
   724.76         10.8315
   724.90         10.8760
   725.04         10.9309
   725.18         10.9951
   725.32         11.0609
   725.46         11.1185
   725.60         11.1620
   725.74         11.1904
   725.88         11.2074
   726.02         11.2199
   726.16         11.2350
   726.30         11.2565
   726.44         11.2830
   726.58         11.3107
   726.72         11.3363
   726.86         11.3595
   727.00         11.3812
   727.14         11.4018
   727.28         11.4207
   727.42         11.4356
   727.56         11.4425
   727.70         11.4368
   727.84         11.4151
   727.98         11.3778
   728.12         11.3291
   728.26         11.2757
   728.40         11.2238
   728.54         11.1795
   728.68         11.1477
   728.82         11.1296
   728.96         11.1240
   729.10         11.1267
   729.24         11.1325
   729.38         11.1385
   729.52         11.1436
   729.66         11.1468
   729.80         11.1444
   729.94         11.1313
   730.08         11.1038
   730.22         11.0607
   730.36         11.0028
   730.50         10.9327
   730.64         10.8563
   730.78         10.7833
   730.92         10.7260
   731.06         10.6947
   731.20         10.6953
   731.34         10.7283
   731.48         10.7882
   731.62         10.8665
   731.76         10.9549
   731.90         11.0460
   732.04         11.1342
   732.18         11.2140
   732.32         11.2792
   732.46         11.3251
   732.60         11.3502
   732.74         11.3556
   732.88         11.3445
   733.02         11.3213
   733.16         11.2911
   733.30         11.2588
   733.44         11.2284
   733.58         11.2015
   733.72         11.1758
   733.86         11.1475
   734.00         11.1133
   734.14         11.0723
   734.28         11.0275
   734.42         10.9835
   734.56         10.9453
   734.70         10.9169
   734.84         10.9017
   734.98         10.9006
   735.12         10.9113
   735.26         10.9299
   735.40         10.9526
   735.54         10.9761
   735.68         10.9966
   735.82         11.0109
   735.96         11.0168
   736.10         11.0127
   736.24         10.9954
   736.38         10.9621
   736.52         10.9119
   736.66         10.8491
   736.80         10.7810
   736.94         10.7139
   737.08         10.6524
   737.22         10.6000
   737.36         10.5590
   737.50         10.5326
   737.64         10.5231
   737.78         10.5305
   737.92         10.5531
   738.06         10.5863
   738.20         10.6225
   738.34         10.6539
   738.48         10.6752
   738.62         10.6830
   738.76         10.6762
   738.90         10.6554
   739.04         10.6241
   739.18         10.5867
   739.32         10.5467
   739.46         10.5066
   739.60         10.4682
   739.74         10.4333
   739.88         10.4021
   740.02         10.3736
   740.16         10.3455
   740.30         10.3153
   740.44         10.2820
   740.58         10.2467
   740.72         10.2115
   740.86         10.1802
   741.00         10.1574
   741.14         10.1471
   741.28         10.1517
   741.42         10.1714
   741.56         10.2049
   741.70         10.2495
   741.84         10.3021
   741.98         10.3600
   742.12         10.4208
   742.26         10.4799
   742.40         10.5316
   742.54         10.5719
   742.68         10.5990
   742.82         10.6122
   742.96         10.6122
   743.10         10.5990
   743.24         10.5719
   743.38         10.5316
   743.52         10.4799
   743.66         10.4208
   743.80         10.3600
   743.94         10.3021
   744.08         10.2495
   744.22         10.2049
