# File HD240344
# Wavelength [nm]    Normalized Amplitude
   349.70         292.1529
   349.84         293.9115
   349.98         295.9545
   350.12         298.1146
   350.26         300.2203
   350.40         302.1543
   350.54         303.8639
   350.68         305.3052
   350.82         306.3975
   350.96         307.0652
   351.10         307.2870
   351.24         307.0652
   351.38         306.3975
   351.52         305.3052
   351.66         303.8639
   351.80         302.1543
   351.94         300.2203
   352.08         298.1146
   352.22         295.9545
   352.36         293.9115
   352.50         292.1529
   352.64         290.8191
   352.78         290.0201
   352.92         289.8273
   353.06         290.2281
   353.20         291.1020
   353.34         292.2830
   353.48         293.6226
   353.62         295.0154
   353.76         296.3603
   353.90         297.5324
   354.04         298.4250
   354.18         298.9635
   354.32         299.1067
   354.46         298.8572
   354.60         298.2708
   354.74         297.4601
   354.88         296.5375
   355.02         295.5487
   355.16         294.5039
   355.30         293.4580
   355.44         292.5401
   355.58         291.8411
   355.72         291.3337
   355.86         290.9683
   356.00         290.7306
   356.14         290.6172
   356.28         290.6364
   356.42         290.8091
   356.56         291.1359
   356.70         291.5744
   356.84         292.0561
   356.98         292.5151
   357.12         292.9075
   357.26         293.2356
   357.40         293.5460
   357.54         293.8877
   357.68         294.2861
   357.82         294.7122
   357.96         295.0680
   358.10         295.2200
   358.24         295.0474
   358.38         294.4920
   358.52         293.5833
   358.66         292.4256
   358.80         291.1700
   358.94         289.9817
   359.08         289.0037
   359.22         288.3282
   359.36         287.9912
   359.50         287.9692
   359.64         288.1823
   359.78         288.5216
   359.92         288.8811
   360.06         289.1277
   360.20         289.0776
   360.34         288.5763
   360.48         287.5786
   360.62         286.1733
   360.76         284.5394
   360.90         282.8355
   361.04         281.1544
   361.18         279.6027
   361.32         278.3487
   361.46         277.5318
   361.60         277.2117
   361.74         277.3717
   361.88         277.9137
   362.02         278.7047
   362.16         279.6184
   362.30         280.5187
   362.44         281.2878
   362.58         281.8679
   362.72         282.2483
   362.86         282.4720
   363.00         282.6345
   363.14         282.8263
   363.28         283.0954
   363.42         283.4581
   363.56         283.9116
   363.70         284.4515
   363.84         285.0663
   363.98         285.7013
   364.12         286.2451
   364.26         286.5694
   364.40         286.5597
   364.54         286.1532
   364.68         285.3763
   364.82         284.3068
   364.96         283.0553
   365.10         281.7808
   365.24         280.6372
   365.38         279.7285
   365.52         279.1070
   365.66         278.7540
   365.80         278.5739
   365.94         278.4149
   366.08         278.1091
   366.22         277.5374
   366.36         276.6941
   366.50         275.6979
   366.64         274.7202
   366.78         273.9122
   366.92         273.3878
   367.06         273.2409
   367.20         273.5350
   367.34         274.2345
   367.48         275.1801
   367.62         276.1677
   367.76         277.0080
   367.90         277.5502
   368.04         277.7017
   368.18         277.3987
   368.32         276.6128
   368.46         275.3711
   368.60         273.7554
   368.74         271.9250
   368.88         270.1170
   369.02         268.5867
   369.16         267.4913
   369.30         266.8413
   369.44         266.5929
   369.58         266.7196
   369.72         267.1780
   369.86         267.8326
   370.00         268.4791
   370.14         268.9798
   370.28         269.3249
   370.42         269.5834
   370.56         269.8374
   370.70         270.1208
   370.84         270.4146
   370.98         270.6879
   371.12         270.9091
   371.26         271.0872
   371.40         271.3087
   371.54         271.7041
   371.68         272.3915
   371.82         273.4052
   371.96         274.6886
   372.10         276.1278
   372.24         277.5427
   372.38         278.7199
   372.52         279.5323
   372.66         280.0454
   372.80         280.5022
   372.94         281.2097
   373.08         282.4354
   373.22         284.3321
   373.36         286.8772
   373.50         289.8865
   373.64         293.0517
   373.78         295.9900
   373.92         298.3213
   374.06         299.7444
   374.20         300.1302
   374.34         299.5682
   374.48         298.3304
   374.62         296.8393
   374.76         295.6400
   374.90         295.3554
   375.04         296.5896
   375.18         299.7455
   375.32         304.8564
   375.46         311.5596
   375.60         319.1416
   375.74         326.5744
   375.88         332.6571
   376.02         336.2937
   376.16         336.7966
   376.30         334.0592
   376.44         328.5785
   376.58         321.3642
   376.72         313.7397
   376.86         307.0916
   377.00         302.6267
   377.14         301.2182
   377.28         303.3159
   377.42         308.8915
   377.56         317.4835
   377.70         328.2659
   377.84         340.1404
   377.98         351.8849
   378.12         362.2896
   378.26         370.2467
   378.40         374.8521
   378.54         375.5552
   378.68         372.2656
   378.82         365.3593
   378.96         355.5950
   379.10         344.0081
   379.24         331.8012
   379.38         320.2361
   379.52         310.5256
   379.66         303.6976
   379.80         300.4571
   379.94         301.1001
   380.08         305.5602
   380.22         313.5036
   380.36         324.3110
   380.50         337.0291
   380.64         350.4259
   380.78         363.1953
   380.92         374.2491
   381.06         382.9196
   381.20         388.9808
   381.34         392.5792
   381.48         394.1099
   381.62         394.0333
   381.76         392.7485
   381.90         390.5240
   382.04         387.4288
   382.18         383.2923
   382.32         377.7933
   382.46         370.6725
   382.60         361.9050
   382.74         351.7516
   382.88         340.7198
   383.02         329.4864
   383.16         318.8519
   383.30         309.7308
   383.44         303.1018
   383.58         299.8301
   383.72         300.4045
   383.86         304.8016
   384.00         312.5536
   384.14         322.8736
   384.28         334.7883
   384.42         347.2859
   384.56         359.4307
   384.70         370.4625
   384.84         379.8975
   384.98         387.5955
   385.12         393.7106
   385.26         398.5375
   385.40         402.3847
   385.54         405.4937
   385.68         407.9918
   385.82         409.9151
   385.96         411.2503
   386.10         411.9460
   386.24         411.9156
   386.38         411.0846
   386.52         409.4601
   386.66         407.1295
   386.80         404.2122
   386.94         400.7991
   387.08         396.9003
   387.22         392.4237
   387.36         387.1764
   387.50         380.8830
   387.64         373.2309
   387.78         363.9489
   387.92         352.9434
   388.06         340.4300
   388.20         326.9618
   388.34         313.3768
   388.48         300.7091
   388.62         290.0336
   388.76         282.3084
   388.90         278.2884
   389.04         278.4556
   389.18         282.9105
   389.32         291.3153
   389.46         302.9559
   389.60         316.8487
   389.74         331.8716
   389.88         346.8888
   390.02         360.8971
   390.16         373.1587
   390.30         383.2502
   390.44         391.0617
   390.58         396.7427
   390.72         400.5869
   390.86         402.9166
   391.00         404.0370
   391.14         404.2165
   391.28         403.6648
   391.42         402.5465
   391.56         400.9835
   391.70         399.0375
   391.84         396.7315
   391.98         394.1139
   392.12         391.2726
   392.26         388.2921
   392.40         385.2787
   392.54         382.4028
   392.68         379.8801
   392.82         377.9212
   392.96         376.6738
   393.10         376.1940
   393.24         376.4643
   393.38         377.4280
   393.52         378.9941
   393.66         380.9993
   393.80         383.1860
   393.94         385.2624
   394.08         386.9580
   394.22         388.0352
   394.36         388.3291
   394.50         387.7672
   394.64         386.3296
   394.78         384.0134
   394.92         380.8548
   395.06         376.9465
   395.20         372.3552
   395.34         367.0508
   395.48         360.9013
   395.62         353.6735
   395.76         345.1091
   395.90         335.0604
   396.04         323.6002
   396.18         311.0780
   396.32         298.0995
   396.46         285.4750
   396.60         274.1442
   396.74         265.0303
   396.88         258.8937
   397.02         256.2429
   397.16         257.2770
   397.30         261.8772
   397.44         269.6262
   397.58         279.8519
   397.72         291.7035
   397.86         304.2528
   398.00         316.6140
   398.14         328.0234
   398.28         337.9209
   398.42         346.0377
   398.56         352.3974
   398.70         357.2394
   398.84         360.8923
   398.98         363.6457
   399.12         365.7092
   399.26         367.2026
   399.40         368.1399
   399.54         368.4589
   399.68         368.0776
   399.82         366.9570
   399.96         365.1355
   400.10         362.7116
   400.24         359.8401
   400.38         356.7263
   400.52         353.5780
   400.66         350.5663
   400.80         347.8181
   400.94         345.4291
   401.08         343.4427
   401.22         341.7977
   401.36         340.3264
   401.50         338.8173
   401.64         337.1151
   401.78         335.1912
   401.92         333.1321
   402.06         331.1085
   402.20         329.3367
   402.34         328.0372
   402.48         327.4136
   402.62         327.5980
   402.76         328.6078
   402.90         330.3488
   403.04         332.6417
   403.18         335.2729
   403.32         338.0289
   403.46         340.6895
   403.60         343.0318
   403.74         344.8601
   403.88         346.0515
   404.02         346.6068
   404.16         346.6588
   404.30         346.4075
   404.44         346.0225
   404.58         345.6001
   404.72         345.1784
   404.86         344.7667
   405.00         344.3731
   405.14         344.0072
   405.28         343.6559
   405.42         343.2801
   405.56         342.8275
   405.70         342.2561
   405.84         341.5398
   405.98         340.6422
   406.12         339.5167
   406.26         338.1513
   406.40         336.5895
   406.54         334.9043
   406.68         333.1828
   406.82         331.5237
   406.96         330.0196
   407.10         328.7370
   407.24         327.7001
   407.38         326.8779
   407.52         326.1902
   407.66         325.5346
   407.80         324.8080
   407.94         323.9059
   408.08         322.7049
   408.22         321.0590
   408.36         318.8105
   408.50         315.7762
   408.64         311.7389
   408.78         306.4798
   408.92         299.8312
   409.06         291.7385
   409.20         282.3229
   409.34         271.9270
   409.48         261.1001
   409.62         250.5320
   409.76         240.9672
   409.90         233.1118
   410.04         227.5514
   410.18         224.7019
   410.32         224.7604
   410.46         227.6588
   410.60         233.0684
   410.74         240.4442
   410.88         249.0938
   411.02         258.2690
   411.16         267.2641
   411.30         275.5078
   411.44         282.6248
   411.58         288.4659
   411.72         293.0935
   411.86         296.7136
   412.00         299.5825
   412.14         301.9231
   412.28         303.8821
   412.42         305.5377
   412.56         306.9113
   412.70         307.9888
   412.84         308.7398
   412.98         309.1063
   413.12         309.0027
   413.26         308.3455
   413.40         307.0915
   413.54         305.2806
   413.68         303.0557
   413.82         300.6393
   413.96         298.2693
   414.10         296.1430
   414.24         294.4049
   414.38         293.1593
   414.52         292.4763
   414.66         292.3763
   414.80         292.8185
   414.94         293.7126
   415.08         294.9344
   415.22         296.3466
   415.36         297.8103
   415.50         299.1915
   415.64         300.3831
   415.78         301.3205
   415.92         301.9738
   416.06         302.3408
   416.20         302.4336
   416.34         302.2754
   416.48         301.8923
   416.62         301.3103
   416.76         300.5767
   416.90         299.7672
   417.04         298.9635
   417.18         298.2180
   417.32         297.5373
   417.46         296.9099
   417.60         296.3325
   417.74         295.8089
   417.88         295.3400
   418.02         294.8939
   418.16         294.4246
   418.30         293.8981
   418.44         293.2913
   418.58         292.6138
   418.72         291.9064
   418.86         291.2245
   419.00         290.6294
   419.14         290.1681
   419.28         289.8690
   419.42         289.7347
   419.56         289.7292
   419.70         289.7964
   419.84         289.8799
   419.98         289.9284
   420.12         289.8987
   420.26         289.7581
   420.40         289.4926
   420.54         289.1033
   420.68         288.5969
   420.82         287.9958
   420.96         287.3274
   421.10         286.6218
   421.24         285.9131
   421.38         285.2168
   421.52         284.5389
   421.66         283.8881
   421.80         283.2712
   421.94         282.6870
   422.08         282.1197
   422.22         281.5493
   422.36         280.9657
   422.50         280.3664
   422.64         279.7559
   422.78         279.1505
   422.92         278.5842
   423.06         278.1051
   423.20         277.7498
   423.34         277.5385
   423.48         277.4821
   423.62         277.5795
   423.76         277.8157
   423.90         278.1524
   424.04         278.5322
   424.18         278.9022
   424.32         279.2206
   424.46         279.4509
   424.60         279.5501
   424.74         279.4692
   424.88         279.1787
   425.02         278.6859
   425.16         278.0288
   425.30         277.2620
   425.44         276.4372
   425.58         275.5970
   425.72         274.7716
   425.86         273.9736
   426.00         273.2088
   426.14         272.4853
   426.28         271.8104
   426.42         271.1844
   426.56         270.6016
   426.70         270.0612
   426.84         269.5710
   426.98         269.1302
   427.12         268.7274
   427.26         268.3556
   427.40         268.0219
   427.54         267.7429
   427.68         267.5291
   427.82         267.3793
   427.96         267.2774
   428.10         267.2040
   428.24         267.1633
   428.38         267.1825
   428.52         267.2861
   428.66         267.4774
   428.80         267.7344
   428.94         268.0195
   429.08         268.3067
   429.22         268.5792
   429.36         268.8134
   429.50         268.9854
   429.64         269.0702
   429.78         269.0453
   429.92         268.9032
   430.06         268.6504
   430.20         268.3029
   430.34         267.8853
   430.48         267.4293
   430.62         266.9660
   430.76         266.5239
   430.90         266.1172
   431.04         265.7317
   431.18         265.3295
   431.32         264.8624
   431.46         264.2911
   431.60         263.5856
   431.74         262.6992
   431.88         261.5525
   432.02         260.0671
   432.16         258.1919
   432.30         255.8731
   432.44         253.0188
   432.58         249.4987
   432.72         245.1653
   432.86         239.8839
   433.00         233.5909
   433.14         226.3642
   433.28         218.4519
   433.42         210.2519
   433.56         202.2677
   433.70         195.0522
   433.84         189.1362
   433.98         184.9588
   434.12         182.8220
   434.26         182.8605
   434.40         185.0294
   434.54         189.1320
   434.68         194.8519
   434.82         201.7538
   434.96         209.3000
   435.10         216.9301
   435.24         224.1618
   435.38         230.6516
   435.52         236.2204
   435.66         240.8467
   435.80         244.6156
   435.94         247.6427
   436.08         250.0298
   436.22         251.8718
   436.36         253.2601
   436.50         254.2705
   436.64         254.9608
   436.78         255.3914
   436.92         255.6356
   437.06         255.7569
   437.20         255.7797
   437.34         255.6666
   437.48         255.3187
   437.62         254.6169
   437.76         253.4863
   437.90         251.9325
   438.04         250.0339
   438.18         247.9176
   438.32         245.7386
   438.46         243.6724
   438.60         241.8956
   438.74         240.5613
   438.88         239.7782
   439.02         239.5840
   439.16         239.9496
   439.30         240.8013
   439.44         242.0274
   439.58         243.4685
   439.72         244.9129
   439.86         246.1375
   440.00         246.9762
   440.14         247.3617
   440.28         247.3250
   440.42         246.9643
   440.56         246.4025
   440.70         245.7413
   440.84         245.0345
   440.98         244.2944
   441.12         243.5094
   441.26         242.6528
   441.40         241.7009
   441.54         240.6527
   441.68         239.5302
   441.82         238.3640
   441.96         237.1769
   442.10         235.9904
   442.24         234.8359
   442.38         233.7476
   442.52         232.7572
   442.66         231.8928
   442.80         231.1704
   442.94         230.5933
   443.08         230.1685
   443.22         229.9089
   443.36         229.8057
   443.50         229.8248
   443.64         229.9353
   443.78         230.1323
   443.92         230.4331
   444.06         230.8552
   444.20         231.4026
   444.34         232.0552
   444.48         232.7673
   444.62         233.4784
   444.76         234.1265
   444.90         234.6578
   445.04         235.0243
   445.18         235.1971
   445.32         235.1807
   445.46         234.9942
   445.60         234.6443
   445.74         234.0958
   445.88         233.2628
   446.02         232.0588
   446.16         230.4673
   446.30         228.5726
   446.44         226.5298
   446.58         224.5125
   446.72         222.6717
   446.86         221.1145
   447.00         219.9057
   447.14         219.0878
   447.28         218.6979
   447.42         218.7607
   447.56         219.2666
   447.70         220.1534
   447.84         221.3227
   447.98         222.6582
   448.12         224.0438
   448.26         225.3837
   448.40         226.5992
   448.54         227.6484
   448.68         228.5470
   448.82         229.3446
   448.96         230.0825
   449.10         230.7709
   449.24         231.3908
   449.38         231.8919
   449.52         232.2156
   449.66         232.3393
   449.80         232.2889
   449.94         232.1153
   450.08         231.8650
   450.22         231.5733
   450.36         231.2647
   450.50         230.9566
   450.64         230.6699
   450.78         230.4287
   450.92         230.2437
   451.06         230.1043
   451.20         229.9983
   451.34         229.9233
   451.48         229.8768
   451.62         229.8571
   451.76         229.8626
   451.90         229.8769
   452.04         229.8820
   452.18         229.8849
   452.32         229.9131
   452.46         229.9859
   452.60         230.0961
   452.74         230.2121
   452.88         230.2954
   453.02         230.3147
   453.16         230.2545
   453.30         230.1099
   453.44         229.8729
   453.58         229.5271
   453.72         229.0544
   453.86         228.4459
   454.00         227.7138
   454.14         226.8917
   454.28         226.0249
   454.42         225.1549
   454.56         224.3202
   454.70         223.5584
   454.84         222.8946
   454.98         222.3403
   455.12         221.9036
   455.26         221.5914
   455.40         221.3911
   455.54         221.2723
   455.68         221.2060
   455.82         221.1683
   455.96         221.1334
   456.10         221.0814
   456.24         221.0076
   456.38         220.9172
   456.52         220.8210
   456.66         220.7381
   456.80         220.6909
   456.94         220.6957
   457.08         220.7533
   457.22         220.8483
   457.36         220.9618
   457.50         221.0759
   457.64         221.1634
   457.78         221.1968
   457.92         221.1551
   458.06         221.0248
   458.20         220.8128
   458.34         220.5462
   458.48         220.2597
   458.62         219.9844
   458.76         219.7422
   458.90         219.5280
   459.04         219.3079
   459.18         219.0590
   459.32         218.7866
   459.46         218.5037
   459.60         218.2167
   459.74         217.9321
   459.88         217.6641
   460.02         217.4268
   460.16         217.2187
   460.30         217.0310
   460.44         216.8775
   460.58         216.7872
   460.72         216.7683
   460.86         216.7985
   461.00         216.8436
   461.14         216.8741
   461.28         216.8643
   461.42         216.7851
   461.56         216.6090
   461.70         216.3287
   461.84         215.9600
   461.98         215.5227
   462.12         215.0399
   462.26         214.5434
   462.40         214.0645
   462.54         213.6211
   462.68         213.2216
   462.82         212.8724
   462.96         212.5834
   463.10         212.3694
   463.24         212.2365
   463.38         212.1810
   463.52         212.1974
   463.66         212.2779
   463.80         212.4063
   463.94         212.5478
   464.08         212.6560
   464.22         212.6919
   464.36         212.6457
   464.50         212.5413
   464.64         212.4220
   464.78         212.3322
   464.92         212.2954
   465.06         212.3106
   465.20         212.3736
   465.34         212.4853
   465.48         212.6452
   465.62         212.8477
   465.76         213.0690
   465.90         213.2694
   466.04         213.4115
   466.18         213.4601
   466.32         213.3912
   466.46         213.2069
   466.60         212.9401
   466.74         212.6431
   466.88         212.3609
   467.02         212.1248
   467.16         211.9468
   467.30         211.8141
   467.44         211.6955
   467.58         211.5548
   467.72         211.3693
   467.86         211.1347
   468.00         210.8519
   468.14         210.5176
   468.28         210.1387
   468.42         209.7359
   468.56         209.3416
   468.70         208.9856
   468.84         208.6787
   468.98         208.4216
   469.12         208.2190
   469.26         208.0778
   469.40         207.9937
   469.54         207.9608
   469.68         207.9680
   469.82         207.9929
   469.96         208.0066
   470.10         207.9680
   470.24         207.8345
   470.38         207.5656
   470.52         207.1288
   470.66         206.5051
   470.80         205.6974
   470.94         204.7351
   471.08         203.6555
   471.22         202.4924
   471.36         201.2799
   471.50         200.0601
   471.64         198.8885
   471.78         197.8303
   471.92         196.9475
   472.06         196.2892
   472.20         195.8830
   472.34         195.7210
   472.48         195.7732
   472.62         196.0060
   472.76         196.3855
   472.90         196.8812
   473.04         197.4556
   473.18         198.0639
   473.32         198.6636
   473.46         199.2193
   473.60         199.7007
   473.74         200.0812
   473.88         200.3503
   474.02         200.5229
   474.16         200.6328
   474.30         200.7099
   474.44         200.7733
   474.58         200.8361
   474.72         200.8947
   474.86         200.9273
   475.00         200.9018
   475.14         200.7872
   475.28         200.5660
   475.42         200.2254
   475.56         199.7628
   475.70         199.2012
   475.84         198.5933
   475.98         198.0007
   476.12         197.4626
   476.26         196.9872
   476.40         196.5692
   476.54         196.2021
   476.68         195.8785
   476.82         195.5876
   476.96         195.3099
   477.10         195.0308
   477.24         194.7457
   477.38         194.4527
   477.52         194.1458
   477.66         193.8116
   477.80         193.4498
   477.94         193.0785
   478.08         192.7177
   478.22         192.3859
   478.36         192.0981
   478.50         191.8614
   478.64         191.6774
   478.78         191.5485
   478.92         191.4763
   479.06         191.4597
   479.20         191.5016
   479.34         191.6093
   479.48         191.7801
   479.62         192.0016
   479.76         192.2628
   479.90         192.5477
   480.04         192.8272
   480.18         193.0659
   480.32         193.2389
   480.46         193.3310
   480.60         193.3190
   480.74         193.1823
   480.88         192.9279
   481.02         192.5869
   481.16         192.1984
   481.30         191.8017
   481.44         191.4274
   481.58         191.0916
   481.72         190.8084
   481.86         190.6027
   482.00         190.4974
   482.14         190.4933
   482.28         190.5680
   482.42         190.6923
   482.56         190.8409
   482.70         190.9896
   482.84         191.1055
   482.98         191.1505
   483.12         191.0970
   483.26         190.9312
   483.40         190.6499
   483.54         190.2515
   483.68         189.7236
   483.82         189.0357
   483.96         188.1491
   484.10         187.0095
   484.24         185.5359
   484.38         183.6438
   484.52         181.2589
   484.66         178.3025
   484.80         174.6949
   484.94         170.4067
   485.08         165.5085
   485.22         160.1722
   485.36         154.6592
   485.50         149.3049
   485.64         144.4831
   485.78         140.5518
   485.92         137.8059
   486.06         136.4573
   486.20         136.6113
   486.34         138.2486
   486.48         141.2237
   486.62         145.2783
   486.76         150.0681
   486.90         155.2096
   487.04         160.3341
   487.18         165.1126
   487.32         169.2867
   487.46         172.7147
   487.60         175.3888
   487.74         177.3995
   487.88         178.8810
   488.02         179.9644
   488.16         180.7543
   488.30         181.3260
   488.44         181.7335
   488.58         182.0250
   488.72         182.2399
   488.86         182.4034
   489.00         182.5470
   489.14         182.7066
   489.28         182.9105
   489.42         183.1969
   489.56         183.6083
   489.70         184.1629
   489.84         184.8427
   489.98         185.6066
   490.12         186.4008
   490.26         187.1535
   490.40         187.7843
   490.54         188.2181
   490.68         188.3907
   490.82         188.2513
   490.96         187.7545
   491.10         186.8673
   491.24         185.6036
   491.38         184.0422
   491.52         182.3154
   491.66         180.5819
   491.80         179.0003
   491.94         177.7161
   492.08         176.8467
   492.22         176.4523
   492.36         176.5276
   492.50         177.0262
   492.64         177.8857
   492.78         179.0191
   492.92         180.3086
   493.06         181.6214
   493.20         182.8203
   493.34         183.7740
   493.48         184.3861
   493.62         184.6225
   493.76         184.5224
   493.90         184.1842
   494.04         183.7215
   494.18         183.2173
   494.32         182.7244
   494.46         182.2839
   494.60         181.9192
   494.74         181.6389
   494.88         181.4420
   495.02         181.3031
   495.16         181.1888
   495.30         181.0850
   495.44         180.9907
   495.58         180.9061
   495.72         180.8303
   495.86         180.7627
   496.00         180.7071
   496.14         180.6681
   496.28         180.6407
   496.42         180.6063
   496.56         180.5463
   496.70         180.4485
   496.84         180.3100
   496.98         180.1411
   497.12         179.9543
   497.26         179.7631
   497.40         179.5810
   497.54         179.4112
   497.68         179.2589
   497.82         179.1498
   497.96         179.1171
   498.10         179.1698
   498.24         179.2871
   498.38         179.4346
   498.52         179.5743
   498.66         179.6693
   498.80         179.6909
   498.94         179.6346
   499.08         179.5287
   499.22         179.4085
   499.36         179.2806
   499.50         179.1276
   499.64         178.9304
   499.78         178.6813
   499.92         178.3865
   500.06         178.0521
   500.20         177.6799
   500.34         177.2519
   500.48         176.7251
   500.62         176.0573
   500.76         175.2361
   500.90         174.2914
   501.04         173.2784
   501.18         172.2572
   501.32         171.2974
   501.46         170.4828
   501.60         169.8915
   501.74         169.5595
   501.88         169.4589
   502.02         169.5230
   502.16         169.6913
   502.30         169.9178
   502.44         170.1542
   502.58         170.3442
   502.72         170.4360
   502.86         170.3972
   503.00         170.2238
   503.14         169.9522
   503.28         169.6524
   503.42         169.3955
   503.56         169.2169
   503.70         169.1137
   503.84         169.0710
   503.98         169.0831
   504.12         169.1384
   504.26         169.1893
   504.40         169.1670
   504.54         169.0166
   504.68         168.7201
   504.82         168.3023
   504.96         167.8071
   505.10         167.2770
   505.24         166.7533
   505.38         166.2843
   505.52         165.9163
   505.66         165.6812
   505.80         165.5963
   505.94         165.6625
   506.08         165.8618
   506.22         166.1652
   506.36         166.5432
   506.50         166.9605
   506.64         167.3778
   506.78         167.7535
   506.92         168.0475
   507.06         168.2415
   507.20         168.3358
   507.34         168.3367
   507.48         168.2528
   507.62         168.0969
   507.76         167.8882
   507.90         167.6528
   508.04         167.4183
   508.18         167.1977
   508.32         166.9939
   508.46         166.8131
   508.60         166.6615
   508.74         166.5414
   508.88         166.4451
   509.02         166.3615
   509.16         166.2888
   509.30         166.2272
   509.44         166.1679
   509.58         166.0994
   509.72         166.0146
   509.86         165.9057
   510.00         165.7636
   510.14         165.5881
   510.28         165.3874
   510.42         165.1659
   510.56         164.9286
   510.70         164.6883
   510.84         164.4614
   510.98         164.2698
   511.12         164.1369
   511.26         164.0737
   511.40         164.0680
   511.54         164.0915
   511.68         164.1182
   511.82         164.1274
   511.96         164.0973
   512.10         164.0109
   512.24         163.8613
   512.38         163.6497
   512.52         163.3903
   512.66         163.1136
   512.80         162.8487
   512.94         162.6136
   513.08         162.4261
   513.22         162.3021
   513.36         162.2415
   513.50         162.2319
   513.64         162.2574
   513.78         162.2986
   513.92         162.3328
   514.06         162.3329
   514.20         162.2692
   514.34         162.1201
   514.48         161.8831
   514.62         161.5754
   514.76         161.2224
   514.90         160.8485
   515.04         160.4763
   515.18         160.1282
   515.32         159.8250
   515.46         159.5786
   515.60         159.3941
   515.74         159.2656
   515.88         159.1652
   516.02         159.0607
   516.16         158.9382
   516.30         158.7958
   516.44         158.6301
   516.58         158.4321
   516.72         158.1889
   516.86         157.8955
   517.00         157.5669
   517.14         157.2335
   517.28         156.9254
   517.42         156.6538
   517.56         156.4116
   517.70         156.1878
   517.84         155.9724
   517.98         155.7570
   518.12         155.5355
   518.26         155.3019
   518.40         155.0550
   518.54         154.8049
   518.68         154.5724
   518.82         154.3778
   518.96         154.2307
   519.10         154.1330
   519.24         154.0866
   519.38         154.0951
   519.52         154.1572
   519.66         154.2631
   519.80         154.3942
   519.94         154.5146
   520.08         154.5785
   520.22         154.5539
   520.36         154.4270
   520.50         154.2012
   520.64         153.9023
   520.78         153.5617
   520.92         153.2003
   521.06         152.8357
   521.20         152.4862
   521.34         152.1692
   521.48         151.8975
   521.62         151.6803
   521.76         151.5192
   521.90         151.3988
   522.04         151.2959
   522.18         151.1911
   522.32         151.0655
   522.46         150.8972
   522.60         150.6769
   522.74         150.4174
   522.88         150.1438
   523.02         149.8795
   523.16         149.6447
   523.30         149.4555
   523.44         149.3095
   523.58         149.1833
   523.72         149.0547
   523.86         148.9136
   524.00         148.7543
   524.14         148.5652
   524.28         148.3308
   524.42         148.0366
   524.56         147.6786
   524.70         147.2711
   524.84         146.8381
   524.98         146.4035
   525.12         145.9950
   525.26         145.6445
   525.40         145.3655
   525.54         145.1415
   525.68         144.9468
   525.82         144.7616
   525.96         144.5756
   526.10         144.3777
   526.24         144.1544
   526.38         143.9033
   526.52         143.6315
   526.66         143.3451
   526.80         143.0499
   526.94         142.7618
   527.08         142.5088
   527.22         142.3203
   527.36         142.2117
   527.50         142.1764
   527.64         142.1919
   527.78         142.2326
   527.92         142.2782
   528.06         142.3113
   528.20         142.3202
   528.34         142.3074
   528.48         142.2789
   528.62         142.2341
   528.76         142.1625
   528.90         142.0507
   529.04         141.8968
   529.18         141.7119
   529.32         141.5133
   529.46         141.3208
   529.60         141.1563
   529.74         141.0314
   529.88         140.9374
   530.02         140.8554
   530.16         140.7672
   530.30         140.6634
   530.44         140.5458
   530.58         140.4206
   530.72         140.2884
   530.86         140.1451
   531.00         139.9923
   531.14         139.8395
   531.28         139.6970
   531.42         139.5742
   531.56         139.4815
   531.70         139.4244
   531.84         139.3970
   531.98         139.3843
   532.12         139.3648
   532.26         139.3172
   532.40         139.2266
   532.54         139.0832
   532.68         138.8787
   532.82         138.6101
   532.96         138.2900
   533.10         137.9433
   533.24         137.5906
   533.38         137.2433
   533.52         136.9093
   533.66         136.5974
   533.80         136.3137
   533.94         136.0590
   534.08         135.8308
   534.22         135.6272
   534.36         135.4504
   534.50         135.3087
   534.64         135.2073
   534.78         135.1392
   534.92         135.0955
   535.06         135.0663
   535.20         135.0348
   535.34         134.9867
   535.48         134.9184
   535.62         134.8282
   535.76         134.7100
   535.90         134.5608
   536.04         134.3823
   536.18         134.1718
   536.32         133.9232
   536.46         133.6376
   536.60         133.3226
   536.74         132.9917
   536.88         132.6682
   537.02         132.3806
   537.16         132.1502
   537.30         131.9844
   537.44         131.8860
   537.58         131.8596
   537.72         131.9016
   537.86         131.9904
   538.00         132.0921
   538.14         132.1721
   538.28         132.2071
   538.42         132.1868
   538.56         132.1008
   538.70         131.9354
   538.84         131.6880
   538.98         131.3754
   539.12         131.0239
   539.26         130.6588
   539.40         130.3102
   539.54         130.0083
   539.68         129.7693
   539.82         129.5915
   539.96         129.4629
   540.10         129.3765
   540.24         129.3297
   540.38         129.3129
   540.52         129.3090
   540.66         129.3037
   540.80         129.2919
   540.94         129.2719
   541.08         129.2311
   541.22         129.1499
   541.36         129.0155
   541.50         128.8231
   541.64         128.5719
   541.78         128.2736
   541.92         127.9567
   542.06         127.6520
   542.20         127.3725
   542.34         127.1197
   542.48         126.8989
   542.62         126.7189
   542.76         126.5833
   542.90         126.4851
   543.04         126.4137
   543.18         126.3609
   543.32         126.3153
   543.46         126.2670
   543.60         126.2038
   543.74         126.1084
   543.88         125.9755
   544.02         125.8122
   544.16         125.6222
   544.30         125.4054
   544.44         125.1658
   544.58         124.9116
   544.72         124.6510
   544.86         124.3936
   545.00         124.1565
   545.14         123.9606
   545.28         123.8201
   545.42         123.7387
   545.56         123.7112
   545.70         123.7269
   545.84         123.7683
   545.98         123.8141
   546.12         123.8473
   546.26         123.8535
   546.40         123.8249
   546.54         123.7638
   546.68         123.6709
   546.82         123.5474
   546.96         123.4070
   547.10         123.2755
   547.24         123.1740
   547.38         123.1044
   547.52         123.0523
   547.66         122.9989
   547.80         122.9249
   547.94         122.8093
   548.08         122.6372
   548.22         122.4056
   548.36         122.1231
   548.50         121.8102
   548.64         121.4973
   548.78         121.2116
   548.92         120.9729
   549.06         120.8030
   549.20         120.7145
   549.34         120.6980
   549.48         120.7306
   549.62         120.7855
   549.76         120.8337
   549.90         120.8431
   550.04         120.7803
   550.18         120.6232
   550.32         120.3684
   550.46         120.0235
   550.60         119.6043
   550.74         119.1377
   550.88         118.6584
   551.02         118.2010
   551.16         117.7920
   551.30         117.4405
   551.44         117.1423
   551.58         116.9002
   551.72         116.7241
   551.86         116.6128
   552.00         116.5550
   552.14         116.5400
   552.28         116.5531
   552.42         116.5707
   552.56         116.5683
   552.70         116.5264
   552.84         116.4311
   552.98         116.2771
   553.12         116.0655
   553.26         115.8017
   553.40         115.4993
   553.54         115.1783
   553.68         114.8605
   553.82         114.5715
   553.96         114.3416
   554.10         114.1971
   554.24         114.1528
   554.38         114.2069
   554.52         114.3363
   554.66         114.5009
   554.80         114.6576
   554.94         114.7731
   555.08         114.8306
   555.22         114.8278
   555.36         114.7687
   555.50         114.6625
   555.64         114.5228
   555.78         114.3617
   555.92         114.1937
   556.06         114.0402
   556.20         113.9214
   556.34         113.8463
   556.48         113.8149
   556.62         113.8206
   556.76         113.8523
   556.90         113.8962
   557.04         113.9356
   557.18         113.9505
   557.32         113.9281
   557.46         113.8692
   557.60         113.7766
   557.74         113.6486
   557.88         113.4840
   558.02         113.2868
   558.16         113.0649
   558.30         112.8268
   558.44         112.5864
   558.58         112.3657
   558.72         112.1843
   558.86         112.0536
   559.00         111.9793
   559.14         111.9568
   559.28         111.9654
   559.42         111.9778
   559.56         111.9754
   559.70         111.9530
   559.84         111.9106
   559.98         111.8475
   560.12         111.7629
   560.26         111.6533
   560.40         111.5174
   560.54         111.3561
   560.68         111.1678
   560.82         110.9515
   560.96         110.7143
   561.10         110.4669
   561.24         110.2205
   561.38         109.9888
   561.52         109.7811
   561.66         109.5981
   561.80         109.4346
   561.94         109.2875
   562.08         109.1590
   562.22         109.0509
   562.36         108.9575
   562.50         108.8667
   562.64         108.7733
   562.78         108.6739
   562.92         108.5603
   563.06         108.4265
   563.20         108.2703
   563.34         108.0935
   563.48         107.9037
   563.62         107.7086
   563.76         107.5102
   563.90         107.3135
   564.04         107.1275
   564.18         106.9557
   564.32         106.8011
   564.46         106.6695
   564.60         106.5649
   564.74         106.4891
   564.88         106.4428
   565.02         106.4256
   565.16         106.4350
   565.30         106.4615
   565.44         106.4852
   565.58         106.4873
   565.72         106.4599
   565.86         106.4001
   566.00         106.3076
   566.14         106.1874
   566.28         106.0525
   566.42         105.9166
   566.56         105.7882
   566.70         105.6719
   566.84         105.5684
   566.98         105.4720
   567.12         105.3716
   567.26         105.2559
   567.40         105.1159
   567.54         104.9477
   567.68         104.7530
   567.82         104.5368
   567.96         104.3061
   568.10         104.0742
   568.24         103.8611
   568.38         103.6854
   568.52         103.5549
   568.66         103.4685
   568.80         103.4202
   568.94         103.3968
   569.08         103.3764
   569.22         103.3380
   569.36         103.2685
   569.50         103.1600
   569.64         103.0084
   569.78         102.8146
   569.92         102.5869
   570.06         102.3425
   570.20         102.1068
   570.34         101.9017
   570.48         101.7371
   570.62         101.6100
   570.76         101.5053
   570.90         101.4011
   571.04         101.2812
   571.18         101.1451
   571.32         101.0001
   571.46         100.8560
   571.60         100.7237
   571.74         100.6108
   571.88         100.5211
   572.02         100.4575
   572.16         100.4224
   572.30         100.4145
   572.44         100.4238
   572.58         100.4382
   572.72         100.4516
   572.86         100.4575
   573.00         100.4416
   573.14         100.3921
   573.28         100.3091
   573.42         100.1988
   573.56         100.0705
   573.70         99.9389
   573.84         99.8178
   573.98         99.7151
   574.12         99.6344
   574.26         99.5773
   574.40         99.5439
   574.54         99.5317
   574.68         99.5317
   574.82         99.5315
   574.96         99.5163
   575.10         99.4721
   575.24         99.3918
   575.38         99.2753
   575.52         99.1221
   575.66         98.9329
   575.80         98.7162
   575.94         98.4820
   576.08         98.2357
   576.22         97.9848
   576.36         97.7412
   576.50         97.5109
   576.64         97.2868
   576.78         97.0473
   576.92         96.7592
   577.06         96.3882
   577.20         95.9135
   577.34         95.3414
   577.48         94.7060
   577.62         94.0560
   577.76         93.4410
   577.90         92.9047
   578.04         92.4846
   578.18         92.2102
   578.32         92.0952
   578.46         92.1296
   578.60         92.2809
   578.74         92.5065
   578.88         92.7644
   579.02         93.0159
   579.16         93.2291
   579.30         93.3854
   579.44         93.4783
   579.58         93.5156
   579.72         93.5229
   579.86         93.5347
   580.00         93.5794
   580.14         93.6732
   580.28         93.8172
   580.42         93.9999
   580.56         94.2072
   580.70         94.4271
   580.84         94.6472
   580.98         94.8557
   581.12         95.0432
   581.26         95.1998
   581.40         95.3203
   581.54         95.4066
   581.68         95.4602
   581.82         95.4877
   581.96         95.4990
   582.10         95.4977
   582.24         95.4809
   582.38         95.4486
   582.52         95.4066
   582.66         95.3629
   582.80         95.3227
   582.94         95.2843
   583.08         95.2408
   583.22         95.1802
   583.36         95.0872
   583.50         94.9478
   583.64         94.7487
   583.78         94.4763
   583.92         94.1244
   584.06         93.7086
   584.20         93.2608
   584.34         92.8147
   584.48         92.4046
   584.62         92.0641
   584.76         91.8178
   584.90         91.6831
   585.04         91.6708
   585.18         91.7733
   585.32         91.9631
   585.46         92.2071
   585.60         92.4749
   585.74         92.7405
   585.88         92.9793
   586.02         93.1638
   586.16         93.2584
   586.30         93.2205
   586.44         93.0133
   586.58         92.6282
   586.72         92.0946
   586.86         91.4622
   587.00         90.7837
   587.14         90.1127
   587.28         89.5022
   587.42         88.9903
   587.56         88.5925
   587.70         88.2950
   587.84         88.0622
   587.98         87.8676
   588.12         87.7022
   588.26         87.5508
   588.40         87.3814
   588.54         87.1644
   588.68         86.8898
   588.82         86.5705
   588.96         86.2396
   589.10         85.9445
   589.24         85.7386
   589.38         85.6633
   589.52         85.7370
   589.66         85.9562
   589.80         86.2987
   589.94         86.7293
   590.08         87.2079
   590.22         87.6966
   590.36         88.1654
   590.50         88.6006
   590.64         89.0002
   590.78         89.3510
   590.92         89.6259
   591.06         89.8055
   591.20         89.8845
   591.34         89.8610
   591.48         89.7342
   591.62         89.5159
   591.76         89.2309
   591.90         88.9088
   592.04         88.5757
   592.18         88.2497
   592.32         87.9459
   592.46         87.6816
   592.60         87.4749
   592.74         87.3403
   592.88         87.2812
   593.02         87.2846
   593.16         87.3268
   593.30         87.3812
   593.44         87.4210
   593.58         87.4250
   593.72         87.3756
   593.86         87.2606
   594.00         87.0868
   594.14         86.8817
   594.28         86.6767
   594.42         86.4897
   594.56         86.3277
   594.70         86.1960
   594.84         86.1023
   594.98         86.0558
   595.12         86.0586
   595.26         86.1027
   595.40         86.1722
   595.54         86.2423
   595.68         86.2834
   595.82         86.2758
   595.96         86.2143
   596.10         86.0968
   596.24         85.9255
   596.38         85.7102
   596.52         85.4639
   596.66         85.1992
   596.80         84.9266
   596.94         84.6555
   597.08         84.3978
   597.22         84.1697
   597.36         83.9864
   597.50         83.8588
   597.64         83.7899
   597.78         83.7716
   597.92         83.7865
   598.06         83.8124
   598.20         83.8293
   598.34         83.8303
   598.48         83.8193
   598.62         83.7982
   598.76         83.7632
   598.90         83.7159
   599.04         83.6625
   599.18         83.6049
   599.32         83.5448
   599.46         83.4857
   599.60         83.4276
   599.74         83.3620
   599.88         83.2751
   600.02         83.1589
   600.16         83.0162
   600.30         82.8572
   600.44         82.6992
   600.58         82.5605
   600.72         82.4533
   600.86         82.3824
   601.00         82.3472
   601.14         82.3401
   601.28         82.3490
   601.42         82.3630
   601.56         82.3711
   601.70         82.3570
   601.84         82.3045
   601.98         82.2026
   602.12         82.0405
   602.26         81.8157
   602.40         81.5409
   602.54         81.2383
   602.68         80.9317
   602.82         80.6357
   602.96         80.3578
   603.10         80.1014
   603.24         79.8675
   603.38         79.6566
   603.52         79.4733
   603.66         79.3263
   603.80         79.2263
   603.94         79.1827
   604.08         79.1961
   604.22         79.2573
   604.36         79.3542
   604.50         79.4806
   604.64         79.6319
   604.78         79.8006
   604.92         79.9823
   605.06         80.1693
   605.20         80.3434
   605.34         80.4806
   605.48         80.5616
   605.62         80.5770
   605.76         80.5271
   605.90         80.4241
   606.04         80.2874
   606.18         80.1392
   606.32         79.9986
   606.46         79.8792
   606.60         79.7880
   606.74         79.7248
   606.88         79.6869
   607.02         79.6695
   607.16         79.6659
   607.30         79.6695
   607.44         79.6740
   607.58         79.6732
   607.72         79.6619
   607.86         79.6380
   608.00         79.6074
   608.14         79.5787
   608.28         79.5574
   608.42         79.5454
   608.56         79.5390
   608.70         79.5293
   608.84         79.5088
   608.98         79.4734
   609.12         79.4181
   609.26         79.3378
   609.40         79.2306
   609.54         79.1019
   609.68         78.9621
   609.82         78.8216
   609.96         78.6916
   610.10         78.5813
   610.24         78.4929
   610.38         78.4260
   610.52         78.3808
   610.66         78.3568
   610.80         78.3493
   610.94         78.3482
   611.08         78.3424
   611.22         78.3217
   611.36         78.2816
   611.50         78.2246
   611.64         78.1556
   611.78         78.0785
   611.92         77.9988
   612.06         77.9268
   612.20         77.8737
   612.34         77.8408
   612.48         77.8155
   612.62         77.7854
   612.76         77.7458
   612.90         77.6932
   613.04         77.6258
   613.18         77.5436
   613.32         77.4455
   613.46         77.3298
   613.60         77.1949
   613.74         77.0463
   613.88         76.8979
   614.02         76.7657
   614.16         76.6642
   614.30         76.5979
   614.44         76.5639
   614.58         76.5587
   614.72         76.5777
   614.86         76.6169
   615.00         76.6712
   615.14         76.7351
   615.28         76.8067
   615.42         76.8811
   615.56         76.9455
   615.70         76.9809
   615.84         76.9651
   615.98         76.8818
   616.12         76.7245
   616.26         76.4939
   616.40         76.1987
   616.54         75.8543
   616.68         75.4784
   616.82         75.0931
   616.96         74.7226
   617.10         74.3898
   617.24         74.1143
   617.38         73.9120
   617.52         73.7923
   617.66         73.7519
   617.80         73.7784
   617.94         73.8581
   618.08         73.9780
   618.22         74.1232
   618.36         74.2748
   618.50         74.4163
   618.64         74.5425
   618.78         74.6506
   618.92         74.7339
   619.06         74.7849
   619.20         74.8007
   619.34         74.7806
   619.48         74.7304
   619.62         74.6621
   619.76         74.5867
   619.90         74.5154
   620.04         74.4536
   620.18         74.3982
   620.32         74.3443
   620.46         74.2878
   620.60         74.2232
   620.74         74.1490
   620.88         74.0674
   621.02         73.9784
   621.16         73.8815
   621.30         73.7794
   621.44         73.6753
   621.58         73.5705
   621.72         73.4656
   621.86         73.3644
   622.00         73.2745
   622.14         73.2062
   622.28         73.1673
   622.42         73.1563
   622.56         73.1675
   622.70         73.1951
   622.84         73.2390
   622.98         73.3007
   623.12         73.3760
   623.26         73.4596
   623.40         73.5480
   623.54         73.6359
   623.68         73.7146
   623.82         73.7750
   623.96         73.8077
   624.10         73.8029
   624.24         73.7537
   624.38         73.6610
   624.52         73.5371
   624.66         73.3998
   624.80         73.2628
   624.94         73.1327
   625.08         73.0067
   625.22         72.8760
   625.36         72.7376
   625.50         72.5911
   625.64         72.4314
   625.78         72.2537
   625.92         72.0597
   626.06         71.8550
   626.20         71.6452
   626.34         71.4314
   626.48         71.2058
   626.62         70.9564
   626.76         70.6752
   626.90         70.3575
   627.04         69.9999
   627.18         69.6047
   627.32         69.1828
   627.46         68.7486
   627.60         68.3200
   627.74         67.9199
   627.88         67.5765
   628.02         67.3215
   628.16         67.1772
   628.30         67.1566
   628.44         67.2673
   628.58         67.5061
   628.72         67.8594
   628.86         68.2999
   629.00         68.7901
   629.14         69.2910
   629.28         69.7667
   629.42         70.1840
   629.56         70.5154
   629.70         70.7453
   629.84         70.8727
   629.98         70.9053
   630.12         70.8532
   630.26         70.7300
   630.40         70.5551
   630.54         70.3513
   630.68         70.1454
   630.82         69.9603
   630.96         69.8127
   631.10         69.7131
   631.24         69.6642
   631.38         69.6630
   631.52         69.7008
   631.66         69.7645
   631.80         69.8359
   631.94         69.8951
   632.08         69.9304
   632.22         69.9400
   632.36         69.9245
   632.50         69.8839
   632.64         69.8197
   632.78         69.7338
   632.92         69.6295
   633.06         69.5114
   633.20         69.3849
   633.34         69.2523
   633.48         69.1106
   633.62         68.9567
   633.76         68.7893
   633.90         68.6102
   634.04         68.4281
   634.18         68.2537
   634.32         68.0967
   634.46         67.9692
   634.60         67.8868
   634.74         67.8627
   634.88         67.9017
   635.02         67.9991
   635.16         68.1425
   635.30         68.3119
   635.44         68.4812
   635.58         68.6236
   635.72         68.7136
   635.86         68.7291
   636.00         68.6565
   636.14         68.4964
   636.28         68.2635
   636.42         67.9817
   636.56         67.6782
   636.70         67.3740
   636.84         67.0811
   636.98         66.8104
   637.12         66.5746
   637.26         66.3846
   637.40         66.2458
   637.54         66.1587
   637.68         66.1198
   637.82         66.1256
   637.96         66.1728
   638.10         66.2553
   638.24         66.3620
   638.38         66.4803
   638.52         66.6009
   638.66         66.7198
   638.80         66.8342
   638.94         66.9345
   639.08         67.0054
   639.22         67.0329
   639.36         67.0135
   639.50         66.9570
   639.64         66.8830
   639.78         66.8110
   639.92         66.7544
   640.06         66.7203
   640.20         66.7101
   640.34         66.7204
   640.48         66.7443
   640.62         66.7729
   640.76         66.7972
   640.90         66.8109
   641.04         66.8119
   641.18         66.7977
   641.32         66.7649
   641.46         66.7095
   641.60         66.6294
   641.74         66.5308
   641.88         66.4283
   642.02         66.3388
   642.16         66.2753
   642.30         66.2414
   642.44         66.2321
   642.58         66.2381
   642.72         66.2474
   642.86         66.2485
   643.00         66.2350
   643.14         66.2027
   643.28         66.1463
   643.42         66.0614
   643.56         65.9448
   643.70         65.7941
   643.84         65.6102
   643.98         65.4026
   644.12         65.1884
   644.26         64.9852
   644.40         64.8056
   644.54         64.6576
   644.68         64.5474
   644.82         64.4766
   644.96         64.4422
   645.10         64.4383
   645.24         64.4560
   645.38         64.4829
   645.52         64.5090
   645.66         64.5299
   645.80         64.5402
   645.94         64.5344
   646.08         64.5120
   646.22         64.4755
   646.36         64.4314
   646.50         64.3908
   646.64         64.3645
   646.78         64.3572
   646.92         64.3674
   647.06         64.3904
   647.20         64.4224
   647.34         64.4568
   647.48         64.4823
   647.62         64.4876
   647.76         64.4626
   647.90         64.4002
   648.04         64.3010
   648.18         64.1714
   648.32         64.0220
   648.46         63.8669
   648.60         63.7228
   648.74         63.6061
   648.88         63.5303
   649.02         63.5044
   649.16         63.5314
   649.30         63.6069
   649.44         63.7218
   649.58         63.8627
   649.72         64.0128
   649.86         64.1560
   650.00         64.2783
   650.14         64.3692
   650.28         64.4241
   650.42         64.4435
   650.56         64.4329
   650.70         64.4013
   650.84         64.3592
   650.98         64.3156
   651.12         64.2773
   651.26         64.2488
   651.40         64.2325
   651.54         64.2266
   651.68         64.2244
   651.82         64.2162
   651.96         64.1910
   652.10         64.1378
   652.24         64.0486
   652.38         63.9207
   652.52         63.7575
   652.66         63.5664
   652.80         63.3587
   652.94         63.1487
   653.08         62.9498
   653.22         62.7701
   653.36         62.6100
   653.50         62.4652
   653.64         62.3293
   653.78         62.1967
   653.92         62.0598
   654.06         61.9048
   654.20         61.7144
   654.34         61.4696
   654.48         61.1512
   654.62         60.7442
   654.76         60.2370
   654.90         59.6164
   655.04         58.8632
   655.18         57.9610
   655.32         56.9154
   655.46         55.7606
   655.60         54.5547
   655.74         53.3720
   655.88         52.2938
   656.02         51.4017
   656.16         50.7699
   656.30         50.4551
   656.44         50.4900
   656.58         50.8767
   656.72         51.5848
   656.86         52.5564
   657.00         53.7118
   657.14         54.9610
   657.28         56.2137
   657.42         57.3860
   657.56         58.4101
   657.70         59.2441
   657.84         59.8821
   657.98         60.3488
   658.12         60.6775
   658.26         60.8975
   658.40         61.0334
   658.54         61.1071
   658.68         61.1424
   658.82         61.1618
   658.96         61.1828
   659.10         61.2161
   659.24         61.2668
   659.38         61.3378
   659.52         61.4300
   659.66         61.5400
   659.80         61.6615
   659.94         61.7844
   660.08         61.8951
   660.22         61.9766
   660.36         62.0133
   660.50         61.9973
   660.64         61.9282
   660.78         61.8124
   660.92         61.6637
   661.06         61.4983
   661.20         61.3336
   661.34         61.1863
   661.48         61.0662
   661.62         60.9808
   661.76         60.9384
   661.90         60.9456
   662.04         60.9999
   662.18         61.0845
   662.32         61.1775
   662.46         61.2591
   662.60         61.3100
   662.74         61.3148
   662.88         61.2637
   663.02         61.1547
   663.16         60.9960
   663.30         60.8009
   663.44         60.5834
   663.58         60.3570
   663.72         60.1339
   663.86         59.9272
   664.00         59.7481
   664.14         59.6059
   664.28         59.5090
   664.42         59.4576
   664.56         59.4412
   664.70         59.4442
   664.84         59.4529
   664.98         59.4592
   665.12         59.4558
   665.26         59.4340
   665.40         59.3898
   665.54         59.3223
   665.68         59.2368
   665.82         59.1421
   665.96         59.0445
   666.10         58.9494
   666.24         58.8608
   666.38         58.7745
   666.52         58.6757
   666.66         58.5441
   666.80         58.3670
   666.94         58.1447
   667.08         57.8849
   667.22         57.6038
   667.36         57.3245
   667.50         57.0706
   667.64         56.8621
   667.78         56.7142
   667.92         56.6356
   668.06         56.6256
   668.20         56.6738
   668.34         56.7661
   668.48         56.8830
   668.62         57.0019
   668.76         57.1027
   668.90         57.1674
   669.04         57.1845
   669.18         57.1545
   669.32         57.0907
   669.46         57.0140
   669.60         56.9409
   669.74         56.8770
   669.88         56.8239
   670.02         56.7815
   670.16         56.7477
   670.30         56.7184
   670.44         56.6874
   670.58         56.6478
   670.72         56.5962
   670.86         56.5357
   671.00         56.4728
   671.14         56.4108
   671.28         56.3533
   671.42         56.3039
   671.56         56.2598
   671.70         56.2117
   671.84         56.1485
   671.98         56.0642
   672.12         55.9620
   672.26         55.8526
   672.40         55.7495
   672.54         55.6675
   672.68         55.6177
   672.82         55.6066
   672.96         55.6359
   673.10         55.7045
   673.24         55.8081
   673.38         55.9404
   673.52         56.0902
   673.66         56.2387
   673.80         56.3628
   673.94         56.4444
   674.08         56.4744
   674.22         56.4541
   674.36         56.3947
   674.50         56.3121
   674.64         56.2219
   674.78         56.1390
   674.92         56.0769
   675.06         56.0466
   675.20         56.0559
   675.34         56.1053
   675.48         56.1865
   675.62         56.2841
   675.76         56.3809
   675.90         56.4607
   676.04         56.5103
   676.18         56.5198
   676.32         56.4820
   676.46         56.3959
   676.60         56.2703
   676.74         56.1190
   676.88         55.9525
   677.02         55.7767
   677.16         55.5988
   677.30         55.4302
   677.44         55.2865
   677.58         55.1809
   677.72         55.1182
   677.86         55.0958
   678.00         55.1058
   678.14         55.1409
   678.28         55.1943
   678.42         55.2593
   678.56         55.3276
   678.70         55.3920
   678.84         55.4477
   678.98         55.4868
   679.12         55.4992
   679.26         55.4796
   679.40         55.4286
   679.54         55.3516
   679.68         55.2580
   679.82         55.1581
   679.96         55.0614
   680.10         54.9766
   680.24         54.9091
   680.38         54.8587
   680.52         54.8188
   680.66         54.7823
   680.80         54.7424
   680.94         54.6912
   681.08         54.6257
   681.22         54.5468
   681.36         54.4586
   681.50         54.3650
   681.64         54.2690
   681.78         54.1781
   681.92         54.1028
   682.06         54.0488
   682.20         54.0156
   682.34         53.9972
   682.48         53.9857
   682.62         53.9732
   682.76         53.9511
   682.90         53.9163
   683.04         53.8723
   683.18         53.8232
   683.32         53.7722
   683.46         53.7201
   683.60         53.6676
   683.74         53.6162
   683.88         53.5645
   684.02         53.5115
   684.16         53.4556
   684.30         53.3930
   684.44         53.3196
   684.58         53.2319
   684.72         53.1291
   684.86         53.0121
   685.00         52.8815
   685.14         52.7369
   685.28         52.5752
   685.42         52.3843
   685.56         52.1345
   685.70         51.7768
   685.84         51.2577
   685.98         50.5434
   686.12         49.6305
   686.26         48.5445
   686.40         47.3375
   686.54         46.0830
   686.68         44.8679
   686.82         43.7812
   686.96         42.9079
   687.10         42.3194
   687.24         42.0577
   687.38         42.1262
   687.52         42.4902
   687.66         43.0839
   687.80         43.8205
   687.94         44.6029
   688.08         45.3337
   688.22         45.9326
   688.36         46.3548
   688.50         46.5940
   688.64         46.6733
   688.78         46.6323
   688.92         46.5200
   689.06         46.3872
   689.20         46.2770
   689.34         46.2217
   689.48         46.2414
   689.62         46.3393
   689.76         46.5029
   689.90         46.7114
   690.04         46.9424
   690.18         47.1756
   690.32         47.3969
   690.46         47.6000
   690.60         47.7831
   690.74         47.9444
   690.88         48.0852
   691.02         48.2091
   691.16         48.3176
   691.30         48.4132
   691.44         48.5023
   691.58         48.5922
   691.72         48.6840
   691.86         48.7738
   692.00         48.8589
   692.14         48.9359
   692.28         49.0001
   692.42         49.0500
   692.56         49.0871
   692.70         49.1146
   692.84         49.1396
   692.98         49.1731
   693.12         49.2251
   693.26         49.2974
   693.40         49.3857
   693.54         49.4834
   693.68         49.5811
   693.82         49.6683
   693.96         49.7400
   694.10         49.7959
   694.24         49.8337
   694.38         49.8472
   694.52         49.8342
   694.66         49.7988
   694.80         49.7482
   694.94         49.6909
   695.08         49.6361
   695.22         49.5924
   695.36         49.5656
   695.50         49.5581
   695.64         49.5674
   695.78         49.5851
   695.92         49.6032
   696.06         49.6198
   696.20         49.6375
   696.34         49.6611
   696.48         49.6970
   696.62         49.7512
   696.76         49.8250
   696.90         49.9131
   697.04         50.0079
   697.18         50.1041
   697.32         50.1976
   697.46         50.2847
   697.60         50.3599
   697.74         50.4150
   697.88         50.4440
   698.02         50.4455
   698.16         50.4231
   698.30         50.3813
   698.44         50.3262
   698.58         50.2668
   698.72         50.2088
   698.86         50.1530
   699.00         50.0975
   699.14         50.0400
   699.28         49.9788
   699.42         49.9124
   699.56         49.8429
   699.70         49.7770
   699.84         49.7226
   699.98         49.6854
   700.12         49.6666
   700.26         49.6635
   700.40         49.6716
   700.54         49.6863
   700.68         49.7035
   700.82         49.7199
   700.96         49.7327
   701.10         49.7397
   701.24         49.7353
   701.38         49.7126
   701.52         49.6661
   701.66         49.5927
   701.80         49.4959
   701.94         49.3839
   702.08         49.2673
   702.22         49.1600
   702.36         49.0731
   702.50         49.0108
   702.64         48.9714
   702.78         48.9499
   702.92         48.9411
   703.06         48.9417
   703.20         48.9507
   703.34         48.9676
   703.48         48.9873
   703.62         48.9980
   703.76         48.9874
   703.90         48.9493
   704.04         48.8846
   704.18         48.7997
   704.32         48.7058
   704.46         48.6144
   704.60         48.5319
   704.74         48.4629
   704.88         48.4066
   705.02         48.3532
   705.16         48.2880
   705.30         48.1987
   705.44         48.0806
   705.58         47.9376
   705.72         47.7808
   705.86         47.6240
   706.00         47.4803
   706.14         47.3618
   706.28         47.2782
   706.42         47.2361
   706.56         47.2348
   706.70         47.2669
   706.84         47.3226
   706.98         47.3927
   707.12         47.4680
   707.26         47.5406
   707.40         47.6026
   707.54         47.6435
   707.68         47.6548
   707.82         47.6348
   707.96         47.5890
   708.10         47.5273
   708.24         47.4598
   708.38         47.3941
   708.52         47.3345
   708.66         47.2803
   708.80         47.2288
   708.94         47.1776
   709.08         47.1264
   709.22         47.0780
   709.36         47.0390
   709.50         47.0167
   709.64         47.0161
   709.78         47.0365
   709.92         47.0720
   710.06         47.1165
   710.20         47.1652
   710.34         47.2104
   710.48         47.2432
   710.62         47.2569
   710.76         47.2492
   710.90         47.2231
   711.04         47.1855
   711.18         47.1405
   711.32         47.0915
   711.46         47.0446
   711.60         47.0086
   711.74         46.9947
   711.88         47.0124
   712.02         47.0657
   712.16         47.1507
   712.30         47.2572
   712.44         47.3702
   712.58         47.4780
   712.72         47.5740
   712.86         47.6520
   713.00         47.7062
   713.14         47.7350
   713.28         47.7402
   713.42         47.7226
   713.56         47.6798
   713.70         47.6038
   713.84         47.4856
   713.98         47.3249
   714.12         47.1309
   714.26         46.9186
   714.40         46.7044
   714.54         46.5012
   714.68         46.3195
   714.82         46.1714
   714.96         46.0713
   715.10         46.0303
   715.24         46.0532
   715.38         46.1357
   715.52         46.2638
   715.66         46.4169
   715.80         46.5677
   715.94         46.6879
   716.08         46.7534
   716.22         46.7487
   716.36         46.6701
   716.50         46.5235
   716.64         46.3227
   716.78         46.0861
   716.92         45.8302
   717.06         45.5654
   717.20         45.2971
   717.34         45.0251
   717.48         44.7508
   717.62         44.4793
   717.76         44.2177
   717.90         43.9729
   718.04         43.7460
   718.18         43.5346
   718.32         43.3396
   718.46         43.1671
   718.60         43.0265
   718.74         42.9244
   718.88         42.8604
   719.02         42.8315
   719.16         42.8319
   719.30         42.8518
   719.44         42.8812
   719.58         42.9137
   719.72         42.9484
   719.86         42.9879
   720.00         43.0406
   720.14         43.1249
   720.28         43.2580
   720.42         43.4462
   720.56         43.6856
   720.70         43.9686
   720.84         44.2898
   720.98         44.6416
   721.12         45.0062
   721.26         45.3567
   721.40         45.6657
   721.54         45.9122
   721.68         46.0835
   721.82         46.1684
   721.96         46.1593
   722.10         46.0554
   722.24         45.8614
   722.38         45.5890
   722.52         45.2585
   722.66         44.8993
   722.80         44.5413
   722.94         44.2070
   723.08         43.9115
   723.22         43.6637
   723.36         43.4666
   723.50         43.3213
   723.64         43.2294
   723.78         43.1910
   723.92         43.2006
   724.06         43.2439
   724.20         43.2993
   724.34         43.3459
   724.48         43.3706
   724.62         43.3665
   724.76         43.3360
   724.90         43.2918
   725.04         43.2510
   725.18         43.2266
   725.32         43.2208
   725.46         43.2290
   725.60         43.2465
   725.74         43.2701
   725.88         43.2970
   726.02         43.3241
   726.16         43.3448
   726.30         43.3480
   726.44         43.3192
   726.58         43.2446
   726.72         43.1205
   726.86         42.9549
   727.00         42.7655
   727.14         42.5742
   727.28         42.4053
   727.42         42.2790
   727.56         42.2012
   727.70         42.1647
   727.84         42.1575
   727.98         42.1673
   728.12         42.1873
   728.26         42.2177
   728.40         42.2587
   728.54         42.3075
   728.68         42.3597
   728.82         42.4111
   728.96         42.4589
   729.10         42.4968
   729.24         42.5190
   729.38         42.5257
   729.52         42.5200
   729.66         42.5058
   729.80         42.4862
   729.94         42.4592
   730.08         42.4145
   730.22         42.3421
   730.36         42.2422
   730.50         42.1239
   730.64         41.9994
   730.78         41.8814
   730.92         41.7787
   731.06         41.6933
   731.20         41.6254
   731.34         41.5765
   731.48         41.5493
   731.62         41.5450
   731.76         41.5598
   731.90         41.5888
   732.04         41.6273
   732.18         41.6644
   732.32         41.6880
   732.46         41.6912
   732.60         41.6713
   732.74         41.6270
   732.88         41.5614
   733.02         41.4837
   733.16         41.4052
   733.30         41.3328
   733.44         41.2682
   733.58         41.2112
   733.72         41.1604
   733.86         41.1148
   734.00         41.0723
   734.14         41.0286
   734.28         40.9790
   734.42         40.9203
   734.56         40.8557
   734.70         40.7915
   734.84         40.7309
   734.98         40.6735
   735.12         40.6184
   735.26         40.5631
   735.40         40.5049
   735.54         40.4424
   735.68         40.3749
   735.82         40.3016
   735.96         40.2215
   736.10         40.1370
   736.24         40.0530
   736.38         39.9705
   736.52         39.8860
   736.66         39.7965
   736.80         39.7016
   736.94         39.6045
   737.08         39.5089
   737.22         39.4186
   737.36         39.3360
   737.50         39.2583
   737.64         39.1818
   737.78         39.1064
   737.92         39.0332
   738.06         38.9620
   738.20         38.8917
   738.34         38.8238
   738.48         38.7632
   738.62         38.7152
   738.76         38.6808
   738.90         38.6549
   739.04         38.6317
   739.18         38.6123
   739.32         38.6021
   739.46         38.6019
   739.60         38.6056
   739.74         38.6020
   739.88         38.5816
   740.02         38.5391
   740.16         38.4740
   740.30         38.3911
   740.44         38.2987
   740.58         38.2057
   740.72         38.1202
   740.86         38.0491
   741.00         37.9989
   741.14         37.9735
   741.28         37.9687
   741.42         37.9717
   741.56         37.9703
   741.70         37.9580
   741.84         37.9295
   741.98         37.8790
   742.12         37.8062
   742.26         37.7188
   742.40         37.6279
   742.54         37.5465
   742.68         37.4868
   742.82         37.4560
   742.96         37.4560
   743.10         37.4868
   743.24         37.5465
   743.38         37.6279
   743.52         37.7188
   743.66         37.8062
   743.80         37.8790
   743.94         37.9295
   744.08         37.9580
   744.22         37.9703
