# File HD245389
# Wavelength [nm]    Normalized Amplitude
   349.70         3.9752
   349.84         3.9748
   349.98         3.9926
   350.12         4.0219
   350.26         4.0546
   350.40         4.0848
   350.54         4.1109
   350.68         4.1320
   350.82         4.1482
   350.96         4.1591
   351.10         4.1630
   351.24         4.1591
   351.38         4.1482
   351.52         4.1320
   351.66         4.1109
   351.80         4.0848
   351.94         4.0546
   352.08         4.0219
   352.22         3.9926
   352.36         3.9748
   352.50         3.9752
   352.64         3.9958
   352.78         4.0369
   352.92         4.0986
   353.06         4.1790
   353.20         4.2724
   353.34         4.3700
   353.48         4.4615
   353.62         4.5379
   353.76         4.5938
   353.90         4.6272
   354.04         4.6370
   354.18         4.6231
   354.32         4.5876
   354.46         4.5344
   354.60         4.4664
   354.74         4.3863
   354.88         4.2975
   355.02         4.2040
   355.16         4.1087
   355.30         4.0133
   355.44         3.9186
   355.58         3.8245
   355.72         3.7302
   355.86         3.6355
   356.00         3.5412
   356.14         3.4495
   356.28         3.3637
   356.42         3.2884
   356.56         3.2267
   356.70         3.1787
   356.84         3.1425
   356.98         3.1149
   357.12         3.0911
   357.26         3.0665
   357.40         3.0370
   357.54         2.9999
   357.68         2.9538
   357.82         2.9007
   357.96         2.8455
   358.10         2.7964
   358.24         2.7647
   358.38         2.7622
   358.52         2.8012
   358.66         2.8923
   358.80         3.0403
   358.94         3.2419
   359.08         3.4854
   359.22         3.7523
   359.36         4.0206
   359.50         4.2700
   359.64         4.4842
   359.78         4.6500
   359.92         4.7576
   360.06         4.8034
   360.20         4.7929
   360.34         4.7394
   360.48         4.6594
   360.62         4.5682
   360.76         4.4779
   360.90         4.3982
   361.04         4.3375
   361.18         4.3036
   361.32         4.3019
   361.46         4.3359
   361.60         4.4063
   361.74         4.5096
   361.88         4.6370
   362.02         4.7756
   362.16         4.9119
   362.30         5.0334
   362.44         5.1311
   362.58         5.2020
   362.72         5.2496
   362.86         5.2799
   363.00         5.2972
   363.14         5.3040
   363.28         5.3020
   363.42         5.2933
   363.56         5.2819
   363.70         5.2722
   363.84         5.2659
   363.98         5.2626
   364.12         5.2626
   364.26         5.2668
   364.40         5.2766
   364.54         5.2952
   364.68         5.3300
   364.82         5.3915
   364.96         5.4895
   365.10         5.6295
   365.24         5.8102
   365.38         6.0230
   365.52         6.2530
   365.66         6.4817
   365.80         6.6901
   365.94         6.8611
   366.08         6.9832
   366.22         7.0536
   366.36         7.0774
   366.50         7.0648
   366.64         7.0281
   366.78         6.9764
   366.92         6.9145
   367.06         6.8445
   367.20         6.7696
   367.34         6.6929
   367.48         6.6148
   367.62         6.5326
   367.76         6.4435
   367.90         6.3492
   368.04         6.2563
   368.18         6.1737
   368.32         6.1096
   368.46         6.0678
   368.60         6.0499
   368.74         6.0586
   368.88         6.0969
   369.02         6.1637
   369.16         6.2521
   369.30         6.3500
   369.44         6.4438
   369.58         6.5206
   369.72         6.5698
   369.86         6.5826
   370.00         6.5546
   370.14         6.4893
   370.28         6.3996
   370.42         6.3045
   370.56         6.2216
   370.70         6.1604
   370.84         6.1202
   370.98         6.0914
   371.12         6.0613
   371.26         6.0213
   371.40         5.9693
   371.54         5.9046
   371.68         5.8245
   371.82         5.7253
   371.96         5.6050
   372.10         5.4646
   372.24         5.3074
   372.38         5.1386
   372.52         4.9659
   372.66         4.7985
   372.80         4.6447
   372.94         4.5105
   373.08         4.3971
   373.22         4.3006
   373.36         4.2157
   373.50         4.1381
   373.64         4.0665
   373.78         4.0029
   373.92         3.9517
   374.06         3.9177
   374.20         3.9042
   374.34         3.9133
   374.48         3.9452
   374.62         3.9967
   374.76         4.0603
   374.90         4.1276
   375.04         4.1943
   375.18         4.2599
   375.32         4.3250
   375.46         4.3898
   375.60         4.4527
   375.74         4.5107
   375.88         4.5624
   376.02         4.6096
   376.16         4.6574
   376.30         4.7132
   376.44         4.7861
   376.58         4.8839
   376.72         5.0112
   376.86         5.1667
   377.00         5.3425
   377.14         5.5263
   377.28         5.7049
   377.42         5.8675
   377.56         6.0052
   377.70         6.1091
   377.84         6.1704
   377.98         6.1831
   378.12         6.1459
   378.26         6.0622
   378.40         5.9379
   378.54         5.7801
   378.68         5.5965
   378.82         5.3963
   378.96         5.1909
   379.10         4.9941
   379.24         4.8214
   379.38         4.6874
   379.52         4.6016
   379.66         4.5660
   379.80         4.5757
   379.94         4.6213
   380.08         4.6895
   380.22         4.7644
   380.36         4.8303
   380.50         4.8740
   380.64         4.8856
   380.78         4.8575
   380.92         4.7842
   381.06         4.6636
   381.20         4.4987
   381.34         4.2979
   381.48         4.0731
   381.62         3.8379
   381.76         3.6068
   381.90         3.3918
   382.04         3.2008
   382.18         3.0382
   382.32         2.9070
   382.46         2.8094
   382.60         2.7452
   382.74         2.7102
   382.88         2.6967
   383.02         2.6970
   383.16         2.7067
   383.30         2.7246
   383.44         2.7504
   383.58         2.7835
   383.72         2.8224
   383.86         2.8657
   384.00         2.9117
   384.14         2.9584
   384.28         3.0040
   384.42         3.0460
   384.56         3.0803
   384.70         3.1024
   384.84         3.1079
   384.98         3.0951
   385.12         3.0666
   385.26         3.0283
   385.40         2.9866
   385.54         2.9479
   385.68         2.9183
   385.82         2.9016
   385.96         2.8976
   386.10         2.9034
   386.24         2.9168
   386.38         2.9383
   386.52         2.9691
   386.66         3.0088
   386.80         3.0554
   386.94         3.1057
   387.08         3.1576
   387.22         3.2121
   387.36         3.2721
   387.50         3.3410
   387.64         3.4223
   387.78         3.5189
   387.92         3.6336
   388.06         3.7698
   388.20         3.9314
   388.34         4.1202
   388.48         4.3356
   388.62         4.5744
   388.76         4.8311
   388.90         5.0975
   389.04         5.3621
   389.18         5.6107
   389.32         5.8290
   389.46         6.0056
   389.60         6.1349
   389.74         6.2179
   389.88         6.2620
   390.02         6.2776
   390.16         6.2768
   390.30         6.2728
   390.44         6.2776
   390.58         6.2985
   390.72         6.3350
   390.86         6.3786
   391.00         6.4157
   391.14         6.4327
   391.28         6.4179
   391.42         6.3618
   391.56         6.2574
   391.70         6.1004
   391.84         5.8888
   391.98         5.6239
   392.12         5.3113
   392.26         4.9610
   392.40         4.5870
   392.54         4.2052
   392.68         3.8333
   392.82         3.4893
   392.96         3.1902
   393.10         2.9501
   393.24         2.7802
   393.38         2.6896
   393.52         2.6855
   393.66         2.7718
   393.80         2.9472
   393.94         3.2042
   394.08         3.5293
   394.22         3.9047
   394.36         4.3108
   394.50         4.7261
   394.64         5.1293
   394.78         5.5013
   394.92         5.8254
   395.06         6.0857
   395.20         6.2678
   395.34         6.3596
   395.48         6.3519
   395.62         6.2400
   395.76         6.0263
   395.90         5.7229
   396.04         5.3525
   396.18         4.9454
   396.32         4.5369
   396.46         4.1649
   396.60         3.8657
   396.74         3.6704
   396.88         3.6018
   397.02         3.6710
   397.16         3.8756
   397.30         4.2021
   397.44         4.6282
   397.58         5.1258
   397.72         5.6650
   397.86         6.2165
   398.00         6.7549
   398.14         7.2604
   398.28         7.7193
   398.42         8.1238
   398.56         8.4715
   398.70         8.7652
   398.84         9.0118
   398.98         9.2201
   399.12         9.3976
   399.26         9.5486
   399.40         9.6741
   399.54         9.7734
   399.68         9.8475
   399.82         9.9012
   399.96         9.9428
   400.10         9.9817
   400.24         10.0265
   400.38         10.0826
   400.52         10.1533
   400.66         10.2405
   400.80         10.3442
   400.94         10.4624
   401.08         10.5910
   401.22         10.7250
   401.36         10.8587
   401.50         10.9859
   401.64         11.1004
   401.78         11.1944
   401.92         11.2591
   402.06         11.2863
   402.20         11.2706
   402.34         11.2126
   402.48         11.1188
   402.62         10.9997
   402.76         10.8679
   402.90         10.7355
   403.04         10.6132
   403.18         10.5067
   403.32         10.4148
   403.46         10.3314
   403.60         10.2519
   403.74         10.1762
   403.88         10.1086
   404.02         10.0552
   404.16         10.0203
   404.30         10.0026
   404.44         9.9956
   404.58         9.9919
   404.72         9.9880
   404.86         9.9851
   405.00         9.9852
   405.14         9.9859
   405.28         9.9798
   405.42         9.9580
   405.56         9.9138
   405.70         9.8464
   405.84         9.7604
   405.98         9.6642
   406.12         9.5711
   406.26         9.4970
   406.40         9.4523
   406.54         9.4372
   406.68         9.4446
   406.82         9.4676
   406.96         9.5038
   407.10         9.5552
   407.24         9.6251
   407.38         9.7161
   407.52         9.8289
   407.66         9.9633
   407.80         10.1199
   407.94         10.2996
   408.08         10.5010
   408.22         10.7178
   408.36         10.9372
   408.50         11.1415
   408.64         11.3114
   408.78         11.4311
   408.92         11.4891
   409.06         11.4791
   409.20         11.4032
   409.34         11.2747
   409.48         11.1149
   409.62         10.9453
   409.76         10.7827
   409.90         10.6388
   410.04         10.5221
   410.18         10.4395
   410.32         10.3954
   410.46         10.3898
   410.60         10.4168
   410.74         10.4664
   410.88         10.5267
   411.02         10.5861
   411.16         10.6348
   411.30         10.6669
   411.44         10.6804
   411.58         10.6752
   411.72         10.6530
   411.86         10.6161
   412.00         10.5653
   412.14         10.4985
   412.28         10.4129
   412.42         10.3093
   412.56         10.1935
   412.70         10.0760
   412.84         9.9680
   412.98         9.8762
   413.12         9.7987
   413.26         9.7294
   413.40         9.6631
   413.54         9.5980
   413.68         9.5342
   413.82         9.4720
   413.96         9.4103
   414.10         9.3468
   414.24         9.2788
   414.38         9.2044
   414.52         9.1244
   414.66         9.0437
   414.80         8.9722
   414.94         8.9225
   415.08         8.9051
   415.22         8.9250
   415.36         8.9794
   415.50         9.0593
   415.64         9.1532
   415.78         9.2513
   415.92         9.3474
   416.06         9.4354
   416.20         9.5059
   416.34         9.5484
   416.48         9.5552
   416.62         9.5224
   416.76         9.4513
   416.90         9.3483
   417.04         9.2246
   417.18         9.0957
   417.32         8.9804
   417.46         8.8961
   417.60         8.8539
   417.74         8.8580
   417.88         8.9072
   418.02         8.9961
   418.16         9.1173
   418.30         9.2605
   418.44         9.4115
   418.58         9.5522
   418.72         9.6651
   418.86         9.7391
   419.00         9.7704
   419.14         9.7601
   419.28         9.7137
   419.42         9.6420
   419.56         9.5606
   419.70         9.4877
   419.84         9.4390
   419.98         9.4253
   420.12         9.4499
   420.26         9.5090
   420.40         9.5938
   420.54         9.6961
   420.68         9.8115
   420.82         9.9396
   420.96         10.0806
   421.10         10.2316
   421.24         10.3854
   421.38         10.5304
   421.52         10.6501
   421.66         10.7297
   421.80         10.7630
   421.94         10.7552
   422.08         10.7179
   422.22         10.6629
   422.36         10.5994
   422.50         10.5341
   422.64         10.4734
   422.78         10.4253
   422.92         10.3997
   423.06         10.4088
   423.20         10.4657
   423.34         10.5789
   423.48         10.7456
   423.62         10.9497
   423.76         11.1655
   423.90         11.3656
   424.04         11.5288
   424.18         11.6454
   424.32         11.7164
   424.46         11.7473
   424.60         11.7433
   424.74         11.7067
   424.88         11.6377
   425.02         11.5397
   425.16         11.4244
   425.30         11.3111
   425.44         11.2225
   425.58         11.1778
   425.72         11.1868
   425.86         11.2458
   426.00         11.3375
   426.14         11.4344
   426.28         11.5084
   426.42         11.5399
   426.56         11.5225
   426.70         11.4629
   426.84         11.3749
   426.98         11.2727
   427.12         11.1708
   427.26         11.0833
   427.40         11.0215
   427.54         10.9925
   427.68         10.9994
   427.82         11.0404
   427.96         11.1053
   428.10         11.1773
   428.24         11.2371
   428.38         11.2674
   428.52         11.2556
   428.66         11.1958
   428.80         11.0890
   428.94         10.9414
   429.08         10.7616
   429.22         10.5575
   429.36         10.3341
   429.50         10.0920
   429.64         9.8309
   429.78         9.5521
   429.92         9.2609
   430.06         8.9676
   430.20         8.6895
   430.34         8.4515
   430.48         8.2857
   430.62         8.2278
   430.76         8.3088
   430.90         8.5450
   431.04         8.9319
   431.18         9.4439
   431.32         10.0362
   431.46         10.6534
   431.60         11.2435
   431.74         11.7689
   431.88         12.2073
   432.02         12.5475
   432.16         12.7899
   432.30         12.9467
   432.44         13.0404
   432.58         13.0982
   432.72         13.1436
   432.86         13.1910
   433.00         13.2467
   433.14         13.3118
   433.28         13.3827
   433.42         13.4503
   433.56         13.5038
   433.70         13.5362
   433.84         13.5464
   433.98         13.5385
   434.12         13.5213
   434.26         13.5086
   434.40         13.5139
   434.54         13.5436
   434.68         13.5958
   434.82         13.6643
   434.96         13.7408
   435.10         13.8168
   435.24         13.8858
   435.38         13.9468
   435.52         14.0059
   435.66         14.0729
   435.80         14.1556
   435.94         14.2557
   436.08         14.3664
   436.22         14.4736
   436.36         14.5577
   436.50         14.5994
   436.64         14.5856
   436.78         14.5146
   436.92         14.3945
   437.06         14.2351
   437.20         14.0398
   437.34         13.8069
   437.48         13.5382
   437.62         13.2445
   437.76         12.9412
   437.90         12.6440
   438.04         12.3661
   438.18         12.1192
   438.32         11.9136
   438.46         11.7602
   438.60         11.6702
   438.74         11.6514
   438.88         11.7048
   439.02         11.8251
   439.16         12.0011
   439.30         12.2138
   439.44         12.4349
   439.58         12.6327
   439.72         12.7808
   439.86         12.8672
   440.00         12.8990
   440.14         12.8977
   440.28         12.8853
   440.42         12.8763
   440.56         12.8796
   440.70         12.9044
   440.84         12.9605
   440.98         13.0533
   441.12         13.1815
   441.26         13.3371
   441.40         13.5068
   441.54         13.6753
   441.68         13.8288
   441.82         13.9571
   441.96         14.0537
   442.10         14.1179
   442.24         14.1546
   442.38         14.1696
   442.52         14.1686
   442.66         14.1595
   442.80         14.1504
   442.94         14.1462
   443.08         14.1495
   443.22         14.1633
   443.36         14.1922
   443.50         14.2401
   443.64         14.3084
   443.78         14.3979
   443.92         14.5086
   444.06         14.6383
   444.20         14.7794
   444.34         14.9185
   444.48         15.0390
   444.62         15.1255
   444.76         15.1656
   444.90         15.1508
   445.04         15.0785
   445.18         14.9549
   445.32         14.7935
   445.46         14.6090
   445.60         14.4158
   445.74         14.2295
   445.88         14.0689
   446.02         13.9543
   446.16         13.9046
   446.30         13.9325
   446.44         14.0420
   446.58         14.2283
   446.72         14.4774
   446.86         14.7655
   447.00         15.0642
   447.14         15.3486
   447.28         15.6014
   447.42         15.8127
   447.56         15.9779
   447.70         16.0950
   447.84         16.1648
   447.98         16.1905
   448.12         16.1770
   448.26         16.1295
   448.40         16.0537
   448.54         15.9594
   448.68         15.8616
   448.82         15.7763
   448.96         15.7153
   449.10         15.6868
   449.24         15.6979
   449.38         15.7529
   449.52         15.8530
   449.66         15.9980
   449.80         16.1869
   449.94         16.4141
   450.08         16.6645
   450.22         16.9140
   450.36         17.1372
   450.50         17.3139
   450.64         17.4321
   450.78         17.4875
   450.92         17.4833
   451.06         17.4291
   451.20         17.3376
   451.34         17.2198
   451.48         17.0812
   451.62         16.9229
   451.76         16.7454
   451.90         16.5495
   452.04         16.3361
   452.18         16.1066
   452.32         15.8661
   452.46         15.6255
   452.60         15.4003
   452.74         15.2055
   452.88         15.0541
   453.02         14.9577
   453.16         14.9249
   453.30         14.9581
   453.44         15.0520
   453.58         15.1930
   453.72         15.3601
   453.86         15.5300
   454.00         15.6836
   454.14         15.8079
   454.28         15.8966
   454.42         15.9517
   454.56         15.9820
   454.70         16.0018
   454.84         16.0260
   454.98         16.0666
   455.12         16.1292
   455.26         16.2112
   455.40         16.3032
   455.54         16.3968
   455.68         16.4874
   455.82         16.5712
   455.96         16.6434
   456.10         16.7008
   456.24         16.7443
   456.38         16.7775
   456.52         16.8051
   456.66         16.8291
   456.80         16.8471
   456.94         16.8560
   457.08         16.8539
   457.22         16.8403
   457.36         16.8134
   457.50         16.7701
   457.64         16.7099
   457.78         16.6375
   457.92         16.5623
   458.06         16.4953
   458.20         16.4441
   458.34         16.4103
   458.48         16.3906
   458.62         16.3812
   458.76         16.3798
   458.90         16.3835
   459.04         16.3872
   459.18         16.3852
   459.32         16.3741
   459.46         16.3564
   459.60         16.3426
   459.74         16.3469
   459.88         16.3808
   460.02         16.4507
   460.16         16.5591
   460.30         16.7051
   460.44         16.8827
   460.58         17.0808
   460.72         17.2862
   460.86         17.4868
   461.00         17.6742
   461.14         17.8435
   461.28         17.9920
   461.42         18.1182
   461.56         18.2205
   461.70         18.2978
   461.84         18.3506
   461.98         18.3824
   462.12         18.3970
   462.26         18.3958
   462.40         18.3771
   462.54         18.3368
   462.68         18.2724
   462.82         18.1849
   462.96         18.0787
   463.10         17.9592
   463.24         17.8293
   463.38         17.6882
   463.52         17.5330
   463.66         17.3626
   463.80         17.1801
   463.94         16.9937
   464.08         16.8135
   464.22         16.6486
   464.36         16.5052
   464.50         16.3891
   464.64         16.3057
   464.78         16.2608
   464.92         16.2582
   465.06         16.2960
   465.20         16.3657
   465.34         16.4527
   465.48         16.5380
   465.62         16.6022
   465.76         16.6295
   465.90         16.6130
   466.04         16.5561
   466.18         16.4708
   466.32         16.3763
   466.46         16.2941
   466.60         16.2407
   466.74         16.2236
   466.88         16.2421
   467.02         16.2917
   467.16         16.3683
   467.30         16.4665
   467.44         16.5770
   467.58         16.6853
   467.72         16.7755
   467.86         16.8364
   468.00         16.8633
   468.14         16.8580
   468.28         16.8298
   468.42         16.7934
   468.56         16.7609
   468.70         16.7363
   468.84         16.7168
   468.98         16.6973
   469.12         16.6718
   469.26         16.6338
   469.40         16.5789
   469.54         16.5075
   469.68         16.4251
   469.82         16.3399
   469.96         16.2609
   470.10         16.1949
   470.24         16.1454
   470.38         16.1147
   470.52         16.1078
   470.66         16.1324
   470.80         16.1963
   470.94         16.3031
   471.08         16.4503
   471.22         16.6301
   471.36         16.8311
   471.50         17.0399
   471.64         17.2399
   471.78         17.4133
   471.92         17.5444
   472.06         17.6232
   472.20         17.6467
   472.34         17.6175
   472.48         17.5433
   472.62         17.4353
   472.76         17.3078
   472.90         17.1768
   473.04         17.0597
   473.18         16.9730
   473.32         16.9284
   473.46         16.9303
   473.60         16.9776
   473.74         17.0666
   473.88         17.1915
   474.02         17.3410
   474.16         17.4980
   474.30         17.6451
   474.44         17.7697
   474.58         17.8656
   474.72         17.9308
   474.86         17.9654
   475.00         17.9690
   475.14         17.9405
   475.28         17.8795
   475.42         17.7874
   475.56         17.6680
   475.70         17.5299
   475.84         17.3869
   475.98         17.2542
   476.12         17.1456
   476.26         17.0726
   476.40         17.0439
   476.54         17.0641
   476.68         17.1319
   476.82         17.2430
   476.96         17.3923
   477.10         17.5719
   477.24         17.7692
   477.38         17.9675
   477.52         18.1475
   477.66         18.2903
   477.80         18.3826
   477.94         18.4185
   478.08         18.4003
   478.22         18.3388
   478.36         18.2511
   478.50         18.1556
   478.64         18.0674
   478.78         17.9970
   478.92         17.9515
   479.06         17.9345
   479.20         17.9458
   479.34         17.9820
   479.48         18.0361
   479.62         18.0983
   479.76         18.1568
   479.90         18.2011
   480.04         18.2250
   480.18         18.2262
   480.32         18.2074
   480.46         18.1742
   480.60         18.1339
   480.74         18.0963
   480.88         18.0713
   481.02         18.0660
   481.16         18.0824
   481.30         18.1180
   481.44         18.1680
   481.58         18.2267
   481.72         18.2885
   481.86         18.3463
   482.00         18.3950
   482.14         18.4306
   482.28         18.4499
   482.42         18.4532
   482.56         18.4431
   482.70         18.4215
   482.84         18.3891
   482.98         18.3461
   483.12         18.2938
   483.26         18.2350
   483.40         18.1745
   483.54         18.1163
   483.68         18.0616
   483.82         18.0092
   483.96         17.9588
   484.10         17.9111
   484.24         17.8655
   484.38         17.8192
   484.52         17.7698
   484.66         17.7166
   484.80         17.6533
   484.94         17.5687
   485.08         17.4538
   485.22         17.3051
   485.36         17.1253
   485.50         16.9246
   485.64         16.7188
   485.78         16.5251
   485.92         16.3575
   486.06         16.2242
   486.20         16.1277
   486.34         16.0676
   486.48         16.0439
   486.62         16.0563
   486.76         16.1017
   486.90         16.1762
   487.04         16.2765
   487.18         16.3987
   487.32         16.5342
   487.46         16.6701
   487.60         16.7956
   487.74         16.9055
   487.88         16.9964
   488.02         17.0642
   488.16         17.1069
   488.30         17.1276
   488.44         17.1332
   488.58         17.1337
   488.72         17.1411
   488.86         17.1678
   489.00         17.2255
   489.14         17.3227
   489.28         17.4617
   489.42         17.6393
   489.56         17.8474
   489.70         18.0705
   489.84         18.2872
   489.98         18.4758
   490.12         18.6175
   490.26         18.7017
   490.40         18.7277
   490.54         18.7019
   490.68         18.6331
   490.82         18.5292
   490.96         18.3944
   491.10         18.2306
   491.24         18.0424
   491.38         17.8373
   491.52         17.6274
   491.66         17.4288
   491.80         17.2580
   491.94         17.1294
   492.08         17.0540
   492.22         17.0361
   492.36         17.0714
   492.50         17.1513
   492.64         17.2644
   492.78         17.3963
   492.92         17.5322
   493.06         17.6592
   493.20         17.7666
   493.34         17.8470
   493.48         17.8995
   493.62         17.9313
   493.76         17.9558
   493.90         17.9882
   494.04         18.0425
   494.18         18.1275
   494.32         18.2441
   494.46         18.3855
   494.60         18.5363
   494.74         18.6753
   494.88         18.7841
   495.02         18.8521
   495.16         18.8770
   495.30         18.8638
   495.44         18.8216
   495.58         18.7613
   495.72         18.6931
   495.86         18.6245
   496.00         18.5597
   496.14         18.5015
   496.28         18.4521
   496.42         18.4144
   496.56         18.3904
   496.70         18.3768
   496.84         18.3658
   496.98         18.3493
   497.12         18.3197
   497.26         18.2701
   497.40         18.1984
   497.54         18.1092
   497.68         18.0101
   497.82         17.9091
   497.96         17.8128
   498.10         17.7253
   498.24         17.6510
   498.38         17.5972
   498.52         17.5717
   498.66         17.5795
   498.80         17.6218
   498.94         17.6946
   499.08         17.7889
   499.22         17.8897
   499.36         17.9793
   499.50         18.0407
   499.64         18.0609
   499.78         18.0339
   499.92         17.9620
   500.06         17.8539
   500.20         17.7202
   500.34         17.5693
   500.48         17.4074
   500.62         17.2395
   500.76         17.0702
   500.90         16.9053
   501.04         16.7514
   501.18         16.6136
   501.32         16.4967
   501.46         16.4059
   501.60         16.3448
   501.74         16.3135
   501.88         16.3103
   502.02         16.3343
   502.16         16.3876
   502.30         16.4754
   502.44         16.6008
   502.58         16.7583
   502.72         16.9341
   502.86         17.1103
   503.00         17.2671
   503.14         17.3880
   503.28         17.4654
   503.42         17.5017
   503.56         17.5065
   503.70         17.4920
   503.84         17.4679
   503.98         17.4415
   504.12         17.4178
   504.26         17.4001
   504.40         17.3926
   504.54         17.4011
   504.68         17.4317
   504.82         17.4890
   504.96         17.5732
   505.10         17.6793
   505.24         17.7985
   505.38         17.9212
   505.52         18.0379
   505.66         18.1417
   505.80         18.2309
   505.94         18.3077
   506.08         18.3708
   506.22         18.4136
   506.36         18.4266
   506.50         18.4046
   506.64         18.3501
   506.78         18.2705
   506.92         18.1720
   507.06         18.0601
   507.20         17.9408
   507.34         17.8209
   507.48         17.7068
   507.62         17.6039
   507.76         17.5172
   507.90         17.4505
   508.04         17.4081
   508.18         17.3950
   508.32         17.4163
   508.46         17.4740
   508.60         17.5628
   508.74         17.6687
   508.88         17.7742
   509.02         17.8644
   509.16         17.9303
   509.30         17.9664
   509.44         17.9688
   509.58         17.9377
   509.72         17.8801
   509.86         17.8072
   510.00         17.7301
   510.14         17.6590
   510.28         17.6037
   510.42         17.5715
   510.56         17.5665
   510.70         17.5902
   510.84         17.6411
   510.98         17.7125
   511.12         17.7928
   511.26         17.8679
   511.40         17.9254
   511.54         17.9584
   511.68         17.9641
   511.82         17.9398
   511.96         17.8834
   512.10         17.7965
   512.24         17.6862
   512.38         17.5651
   512.52         17.4480
   512.66         17.3475
   512.80         17.2712
   512.94         17.2234
   513.08         17.2041
   513.22         17.2089
   513.36         17.2301
   513.50         17.2584
   513.64         17.2832
   513.78         17.2947
   513.92         17.2865
   514.06         17.2560
   514.20         17.2031
   514.34         17.1319
   514.48         17.0520
   514.62         16.9769
   514.76         16.9194
   514.90         16.8886
   515.04         16.8872
   515.18         16.9122
   515.32         16.9540
   515.46         16.9965
   515.60         17.0188
   515.74         16.9992
   515.88         16.9223
   516.02         16.7801
   516.16         16.5703
   516.30         16.2977
   516.44         15.9814
   516.58         15.6527
   516.72         15.3480
   516.86         15.1015
   517.00         14.9392
   517.14         14.8711
   517.28         14.8882
   517.42         14.9710
   517.56         15.0987
   517.70         15.2530
   517.84         15.4161
   517.98         15.5706
   518.12         15.7013
   518.26         15.8012
   518.40         15.8741
   518.54         15.9311
   518.68         15.9847
   518.82         16.0474
   518.96         16.1332
   519.10         16.2522
   519.24         16.4008
   519.38         16.5621
   519.52         16.7123
   519.66         16.8289
   519.80         16.8974
   519.94         16.9174
   520.08         16.9033
   520.22         16.8760
   520.36         16.8511
   520.50         16.8361
   520.64         16.8345
   520.78         16.8489
   520.92         16.8826
   521.06         16.9385
   521.20         17.0151
   521.34         17.1038
   521.48         17.1893
   521.62         17.2546
   521.76         17.2860
   521.90         17.2772
   522.04         17.2305
   522.18         17.1549
   522.32         17.0637
   522.46         16.9734
   522.60         16.9022
   522.74         16.8661
   522.88         16.8739
   523.02         16.9288
   523.16         17.0304
   523.30         17.1752
   523.44         17.3539
   523.58         17.5517
   523.72         17.7493
   523.86         17.9246
   524.00         18.0577
   524.14         18.1370
   524.28         18.1612
   524.42         18.1369
   524.56         18.0743
   524.70         17.9867
   524.84         17.8885
   524.98         17.7923
   525.12         17.7056
   525.26         17.6288
   525.40         17.5543
   525.54         17.4706
   525.68         17.3661
   525.82         17.2302
   525.96         17.0559
   526.10         16.8435
   526.24         16.6011
   526.38         16.3440
   526.52         16.0942
   526.66         15.8793
   526.80         15.7259
   526.94         15.6538
   527.08         15.6714
   527.22         15.7773
   527.36         15.9604
   527.50         16.2018
   527.64         16.4778
   527.78         16.7666
   527.92         17.0533
   528.06         17.3288
   528.20         17.5882
   528.34         17.8280
   528.48         18.0428
   528.62         18.2263
   528.76         18.3726
   528.90         18.4769
   529.04         18.5385
   529.18         18.5613
   529.32         18.5530
   529.46         18.5232
   529.60         18.4828
   529.74         18.4439
   529.88         18.4203
   530.02         18.4258
   530.16         18.4683
   530.30         18.5478
   530.44         18.6575
   530.58         18.7842
   530.72         18.9097
   530.86         19.0151
   531.00         19.0858
   531.14         19.1125
   531.28         19.0921
   531.42         19.0270
   531.56         18.9215
   531.70         18.7779
   531.84         18.5998
   531.98         18.3969
   532.12         18.1826
   532.26         17.9721
   532.40         17.7825
   532.54         17.6304
   532.68         17.5264
   532.82         17.4738
   532.96         17.4701
   533.10         17.5090
   533.24         17.5825
   533.38         17.6815
   533.52         17.7960
   533.66         17.9136
   533.80         18.0214
   533.94         18.1084
   534.08         18.1697
   534.22         18.2084
   534.36         18.2367
   534.50         18.2733
   534.64         18.3358
   534.78         18.4325
   534.92         18.5644
   535.06         18.7249
   535.20         18.9002
   535.34         19.0717
   535.48         19.2208
   535.62         19.3332
   535.76         19.3997
   535.90         19.4138
   536.04         19.3716
   536.18         19.2749
   536.32         19.1337
   536.46         18.9659
   536.60         18.7936
   536.74         18.6388
   536.88         18.5187
   537.02         18.4432
   537.16         18.4140
   537.30         18.4270
   537.44         18.4741
   537.58         18.5449
   537.72         18.6260
   537.86         18.7025
   538.00         18.7600
   538.14         18.7873
   538.28         18.7780
   538.42         18.7287
   538.56         18.6392
   538.70         18.5158
   538.84         18.3717
   538.98         18.2220
   539.12         18.0790
   539.26         17.9488
   539.40         17.8309
   539.54         17.7218
   539.68         17.6192
   539.82         17.5236
   539.96         17.4368
   540.10         17.3637
   540.24         17.3116
   540.38         17.2872
   540.52         17.2955
   540.66         17.3400
   540.80         17.4227
   540.94         17.5424
   541.08         17.6940
   541.22         17.8691
   541.36         18.0572
   541.50         18.2458
   541.64         18.4207
   541.78         18.5668
   541.92         18.6697
   542.06         18.7204
   542.20         18.7176
   542.34         18.6668
   542.48         18.5774
   542.62         18.4628
   542.76         18.3413
   542.90         18.2318
   543.04         18.1510
   543.18         18.1117
   543.32         18.1187
   543.46         18.1671
   543.60         18.2452
   543.74         18.3394
   543.88         18.4402
   544.02         18.5423
   544.16         18.6401
   544.30         18.7238
   544.44         18.7812
   544.58         18.8055
   544.72         18.7993
   544.86         18.7719
   545.00         18.7355
   545.14         18.7018
   545.28         18.6804
   545.42         18.6769
   545.56         18.6898
   545.70         18.7123
   545.84         18.7352
   545.98         18.7481
   546.12         18.7444
   546.26         18.7230
   546.40         18.6869
   546.54         18.6371
   546.68         18.5701
   546.82         18.4820
   546.96         18.3728
   547.10         18.2500
   547.24         18.1266
   547.38         18.0156
   547.52         17.9256
   547.66         17.8604
   547.80         17.8215
   547.94         17.8090
   548.08         17.8219
   548.22         17.8578
   548.36         17.9138
   548.50         17.9864
   548.64         18.0712
   548.78         18.1638
   548.92         18.2604
   549.06         18.3572
   549.20         18.4500
   549.34         18.5356
   549.48         18.6106
   549.62         18.6699
   549.76         18.7089
   549.90         18.7263
   550.04         18.7212
   550.18         18.6914
   550.32         18.6363
   550.46         18.5589
   550.60         18.4667
   550.74         18.3702
   550.88         18.2825
   551.02         18.2158
   551.16         18.1781
   551.30         18.1721
   551.44         18.1972
   551.58         18.2483
   551.72         18.3163
   551.86         18.3895
   552.00         18.4575
   552.14         18.5125
   552.28         18.5487
   552.42         18.5629
   552.56         18.5549
   552.70         18.5255
   552.84         18.4786
   552.98         18.4225
   553.12         18.3685
   553.26         18.3266
   553.40         18.3044
   553.54         18.3058
   553.68         18.3316
   553.82         18.3820
   553.96         18.4582
   554.10         18.5591
   554.24         18.6789
   554.38         18.8085
   554.52         18.9385
   554.66         19.0590
   554.80         19.1616
   554.94         19.2397
   555.08         19.2892
   555.22         19.3084
   555.36         19.2969
   555.50         19.2562
   555.64         19.1902
   555.78         19.1042
   555.92         19.0052
   556.06         18.9023
   556.20         18.8042
   556.34         18.7179
   556.48         18.6486
   556.62         18.5983
   556.76         18.5658
   556.90         18.5478
   557.04         18.5412
   557.18         18.5432
   557.32         18.5516
   557.46         18.5631
   557.60         18.5716
   557.74         18.5680
   557.88         18.5447
   558.02         18.4976
   558.16         18.4276
   558.30         18.3395
   558.44         18.2419
   558.58         18.1453
   558.72         18.0585
   558.86         17.9870
   559.00         17.9346
   559.14         17.9028
   559.28         17.8894
   559.42         17.8918
   559.56         17.9102
   559.70         17.9469
   559.84         18.0025
   559.98         18.0748
   560.12         18.1607
   560.26         18.2560
   560.40         18.3548
   560.54         18.4497
   560.68         18.5331
   560.82         18.5993
   560.96         18.6441
   561.10         18.6649
   561.24         18.6600
   561.38         18.6285
   561.52         18.5704
   561.66         18.4892
   561.80         18.3935
   561.94         18.2965
   562.08         18.2144
   562.22         18.1601
   562.36         18.1392
   562.50         18.1504
   562.64         18.1888
   562.78         18.2470
   562.92         18.3151
   563.06         18.3832
   563.20         18.4440
   563.34         18.4944
   563.48         18.5340
   563.62         18.5631
   563.76         18.5811
   563.90         18.5868
   564.04         18.5798
   564.18         18.5625
   564.32         18.5398
   564.46         18.5171
   564.60         18.4972
   564.74         18.4785
   564.88         18.4547
   565.02         18.4189
   565.16         18.3672
   565.30         18.2999
   565.44         18.2205
   565.58         18.1358
   565.72         18.0540
   565.86         17.9824
   566.00         17.9275
   566.14         17.8957
   566.28         17.8924
   566.42         17.9207
   566.56         17.9809
   566.70         18.0710
   566.84         18.1861
   566.98         18.3170
   567.12         18.4521
   567.26         18.5779
   567.40         18.6821
   567.54         18.7568
   567.68         18.7999
   567.82         18.8132
   567.96         18.8004
   568.10         18.7675
   568.24         18.7219
   568.38         18.6714
   568.52         18.6239
   568.66         18.5879
   568.80         18.5706
   568.94         18.5751
   569.08         18.5976
   569.22         18.6297
   569.36         18.6617
   569.50         18.6850
   569.64         18.6920
   569.78         18.6755
   569.92         18.6302
   570.06         18.5559
   570.20         18.4578
   570.34         18.3449
   570.48         18.2292
   570.62         18.1241
   570.76         18.0409
   570.90         17.9877
   571.04         17.9701
   571.18         17.9931
   571.32         18.0585
   571.46         18.1632
   571.60         18.2994
   571.74         18.4563
   571.88         18.6224
   572.02         18.7874
   572.16         18.9416
   572.30         19.0756
   572.44         19.1830
   572.58         19.2618
   572.72         19.3144
   572.86         19.3453
   573.00         19.3594
   573.14         19.3609
   573.28         19.3527
   573.42         19.3372
   573.56         19.3171
   573.70         19.2960
   573.84         19.2755
   573.98         19.2542
   574.12         19.2289
   574.26         19.1952
   574.40         19.1491
   574.54         19.0900
   574.68         19.0211
   574.82         18.9469
   574.96         18.8711
   575.10         18.7958
   575.24         18.7221
   575.38         18.6518
   575.52         18.5887
   575.66         18.5382
   575.80         18.5063
   575.94         18.4983
   576.08         18.5169
   576.22         18.5613
   576.36         18.6281
   576.50         18.7122
   576.64         18.8070
   576.78         18.9029
   576.92         18.9879
   577.06         19.0494
   577.20         19.0763
   577.34         19.0598
   577.48         18.9947
   577.62         18.8826
   577.76         18.7331
   577.90         18.5623
   578.04         18.3890
   578.18         18.2318
   578.32         18.1059
   578.46         18.0213
   578.60         17.9829
   578.74         17.9899
   578.88         18.0386
   579.02         18.1238
   579.16         18.2382
   579.30         18.3697
   579.44         18.5024
   579.58         18.6223
   579.72         18.7208
   579.86         18.7951
   580.00         18.8469
   580.14         18.8815
   580.28         18.9044
   580.42         18.9188
   580.56         18.9248
   580.70         18.9236
   580.84         18.9195
   580.98         18.9197
   581.12         18.9316
   581.26         18.9600
   581.40         19.0077
   581.54         19.0753
   581.68         19.1612
   581.82         19.2620
   581.96         19.3724
   582.10         19.4860
   582.24         19.5973
   582.38         19.7007
   582.52         19.7897
   582.66         19.8580
   582.80         19.9014
   582.94         19.9192
   583.08         19.9144
   583.22         19.8933
   583.36         19.8632
   583.50         19.8290
   583.64         19.7919
   583.78         19.7513
   583.92         19.7068
   584.06         19.6587
   584.20         19.6068
   584.34         19.5495
   584.48         19.4844
   584.62         19.4081
   584.76         19.3181
   584.90         19.2166
   585.04         19.1101
   585.18         19.0066
   585.32         18.9138
   585.46         18.8387
   585.60         18.7864
   585.74         18.7596
   585.88         18.7597
   586.02         18.7856
   586.16         18.8351
   586.30         18.9057
   586.44         18.9935
   586.58         19.0909
   586.72         19.1882
   586.86         19.2748
   587.00         19.3412
   587.14         19.3811
   587.28         19.3925
   587.42         19.3768
   587.56         19.3359
   587.70         19.2669
   587.84         19.1588
   587.98         19.0029
   588.12         18.8006
   588.26         18.5622
   588.40         18.2991
   588.54         18.0212
   588.68         17.7413
   588.82         17.4781
   588.96         17.2527
   589.10         17.0829
   589.24         16.9816
   589.38         16.9569
   589.52         17.0106
   589.66         17.1379
   589.80         17.3292
   589.94         17.5690
   590.08         17.8372
   590.22         18.1097
   590.36         18.3623
   590.50         18.5790
   590.64         18.7560
   590.78         18.8950
   590.92         18.9959
   591.06         19.0599
   591.20         19.0937
   591.34         19.1088
   591.48         19.1147
   591.62         19.1167
   591.76         19.1161
   591.90         19.1113
   592.04         19.0999
   592.18         19.0804
   592.32         19.0526
   592.46         19.0184
   592.60         18.9818
   592.74         18.9468
   592.88         18.9166
   593.02         18.8931
   593.16         18.8784
   593.30         18.8741
   593.44         18.8808
   593.58         18.8963
   593.72         18.9167
   593.86         18.9363
   594.00         18.9495
   594.14         18.9519
   594.28         18.9404
   594.42         18.9122
   594.56         18.8674
   594.70         18.8111
   594.84         18.7525
   594.98         18.7024
   595.12         18.6699
   595.26         18.6594
   595.40         18.6697
   595.54         18.6969
   595.68         18.7372
   595.82         18.7884
   595.96         18.8485
   596.10         18.9129
   596.24         18.9752
   596.38         19.0294
   596.52         19.0695
   596.66         19.0904
   596.80         19.0897
   596.94         19.0700
   597.08         19.0366
   597.22         18.9941
   597.36         18.9456
   597.50         18.8939
   597.64         18.8407
   597.78         18.7862
   597.92         18.7317
   598.06         18.6811
   598.20         18.6408
   598.34         18.6166
   598.48         18.6108
   598.62         18.6206
   598.76         18.6408
   598.90         18.6684
   599.04         18.7022
   599.18         18.7406
   599.32         18.7823
   599.46         18.8248
   599.60         18.8625
   599.74         18.8865
   599.88         18.8891
   600.02         18.8678
   600.16         18.8242
   600.30         18.7612
   600.44         18.6840
   600.58         18.5988
   600.72         18.5105
   600.86         18.4206
   601.00         18.3289
   601.14         18.2359
   601.28         18.1442
   601.42         18.0598
   601.56         17.9896
   601.70         17.9366
   601.84         17.9007
   601.98         17.8818
   602.12         17.8800
   602.26         17.8962
   602.40         17.9317
   602.54         17.9859
   602.68         18.0549
   602.82         18.1338
   602.96         18.2180
   603.10         18.3036
   603.24         18.3867
   603.38         18.4641
   603.52         18.5342
   603.66         18.5982
   603.80         18.6588
   603.94         18.7188
   604.08         18.7783
   604.22         18.8351
   604.36         18.8858
   604.50         18.9270
   604.64         18.9575
   604.78         18.9770
   604.92         18.9850
   605.06         18.9803
   605.20         18.9620
   605.34         18.9314
   605.48         18.8929
   605.62         18.8532
   605.76         18.8207
   605.90         18.8029
   606.04         18.8045
   606.18         18.8270
   606.32         18.8680
   606.46         18.9214
   606.60         18.9783
   606.74         19.0285
   606.88         19.0627
   607.02         19.0742
   607.16         19.0600
   607.30         19.0207
   607.44         18.9590
   607.58         18.8794
   607.72         18.7873
   607.86         18.6882
   608.00         18.5892
   608.14         18.4975
   608.28         18.4185
   608.42         18.3539
   608.56         18.3003
   608.70         18.2531
   608.84         18.2083
   608.98         18.1615
   609.12         18.1084
   609.26         18.0470
   609.40         17.9792
   609.54         17.9105
   609.68         17.8490
   609.82         17.8027
   609.96         17.7773
   610.10         17.7759
   610.24         17.7993
   610.38         17.8448
   610.52         17.9081
   610.66         17.9845
   610.80         18.0684
   610.94         18.1512
   611.08         18.2224
   611.22         18.2730
   611.36         18.2992
   611.50         18.3002
   611.64         18.2757
   611.78         18.2287
   611.92         18.1670
   612.06         18.1008
   612.20         18.0405
   612.34         17.9922
   612.48         17.9538
   612.62         17.9170
   612.76         17.8742
   612.90         17.8216
   613.04         17.7579
   613.18         17.6839
   613.32         17.6031
   613.46         17.5208
   613.60         17.4446
   613.74         17.3832
   613.88         17.3462
   614.02         17.3406
   614.16         17.3693
   614.30         17.4309
   614.44         17.5210
   614.58         17.6332
   614.72         17.7597
   614.86         17.8896
   615.00         18.0067
   615.14         18.0935
   615.28         18.1403
   615.42         18.1464
   615.56         18.1160
   615.70         18.0536
   615.84         17.9633
   615.98         17.8504
   616.12         17.7241
   616.26         17.5966
   616.40         17.4814
   616.54         17.3910
   616.68         17.3358
   616.82         17.3224
   616.96         17.3521
   617.10         17.4213
   617.24         17.5244
   617.38         17.6524
   617.52         17.7917
   617.66         17.9265
   617.80         18.0442
   617.94         18.1366
   618.08         18.1988
   618.22         18.2300
   618.36         18.2337
   618.50         18.2170
   618.64         18.1906
   618.78         18.1669
   618.92         18.1548
   619.06         18.1587
   619.20         18.1811
   619.34         18.2227
   619.48         18.2816
   619.62         18.3545
   619.76         18.4374
   619.90         18.5253
   620.04         18.6106
   620.18         18.6827
   620.32         18.7308
   620.46         18.7473
   620.60         18.7301
   620.74         18.6814
   620.88         18.6068
   621.02         18.5126
   621.16         18.4036
   621.30         18.2863
   621.44         18.1684
   621.58         18.0592
   621.72         17.9668
   621.86         17.8957
   622.00         17.8439
   622.14         17.8075
   622.28         17.7848
   622.42         17.7741
   622.56         17.7724
   622.70         17.7756
   622.84         17.7790
   622.98         17.7808
   623.12         17.7811
   623.26         17.7801
   623.40         17.7773
   623.54         17.7730
   623.68         17.7684
   623.82         17.7650
   623.96         17.7632
   624.10         17.7603
   624.24         17.7493
   624.38         17.7235
   624.52         17.6784
   624.66         17.6154
   624.80         17.5414
   624.94         17.4650
   625.08         17.3921
   625.22         17.3243
   625.36         17.2639
   625.50         17.2152
   625.64         17.1830
   625.78         17.1702
   625.92         17.1768
   626.06         17.2010
   626.20         17.2406
   626.34         17.2910
   626.48         17.3452
   626.62         17.3952
   626.76         17.4331
   626.90         17.4527
   627.04         17.4526
   627.18         17.4359
   627.32         17.4088
   627.46         17.3795
   627.60         17.3572
   627.74         17.3503
   627.88         17.3653
   628.02         17.4061
   628.16         17.4718
   628.30         17.5559
   628.44         17.6494
   628.58         17.7433
   628.72         17.8308
   628.86         17.9059
   629.00         17.9614
   629.14         17.9918
   629.28         17.9954
   629.42         17.9743
   629.56         17.9346
   629.70         17.8872
   629.84         17.8434
   629.98         17.8109
   630.12         17.7930
   630.26         17.7878
   630.40         17.7886
   630.54         17.7859
   630.68         17.7716
   630.82         17.7414
   630.96         17.6947
   631.10         17.6349
   631.24         17.5681
   631.38         17.5024
   631.52         17.4455
   631.66         17.4038
   631.80         17.3836
   631.94         17.3880
   632.08         17.4165
   632.22         17.4656
   632.36         17.5278
   632.50         17.5920
   632.64         17.6485
   632.78         17.6919
   632.92         17.7206
   633.06         17.7351
   633.20         17.7363
   633.34         17.7266
   633.48         17.7112
   633.62         17.6968
   633.76         17.6887
   633.90         17.6906
   634.04         17.7041
   634.18         17.7286
   634.32         17.7603
   634.46         17.7937
   634.60         17.8225
   634.74         17.8414
   634.88         17.8461
   635.02         17.8332
   635.16         17.8031
   635.30         17.7592
   635.44         17.7062
   635.58         17.6482
   635.72         17.5886
   635.86         17.5318
   636.00         17.4856
   636.14         17.4584
   636.28         17.4556
   636.42         17.4787
   636.56         17.5259
   636.70         17.5928
   636.84         17.6707
   636.98         17.7491
   637.12         17.8179
   637.26         17.8702
   637.40         17.9024
   637.54         17.9140
   637.68         17.9077
   637.82         17.8885
   637.96         17.8624
   638.10         17.8325
   638.24         17.7996
   638.38         17.7641
   638.52         17.7279
   638.66         17.6938
   638.80         17.6621
   638.94         17.6301
   639.08         17.5937
   639.22         17.5508
   639.36         17.5015
   639.50         17.4476
   639.64         17.3922
   639.78         17.3401
   639.92         17.2980
   640.06         17.2721
   640.20         17.2659
   640.34         17.2796
   640.48         17.3098
   640.62         17.3510
   640.76         17.3967
   640.90         17.4407
   641.04         17.4794
   641.18         17.5103
   641.32         17.5323
   641.46         17.5458
   641.60         17.5532
   641.74         17.5582
   641.88         17.5641
   642.02         17.5727
   642.16         17.5861
   642.30         17.6075
   642.44         17.6399
   642.58         17.6827
   642.72         17.7309
   642.86         17.7777
   643.00         17.8184
   643.14         17.8513
   643.28         17.8777
   643.42         17.8993
   643.56         17.9176
   643.70         17.9329
   643.84         17.9433
   643.98         17.9462
   644.12         17.9407
   644.26         17.9269
   644.40         17.9055
   644.54         17.8774
   644.68         17.8455
   644.82         17.8143
   644.96         17.7860
   645.10         17.7581
   645.24         17.7268
   645.38         17.6904
   645.52         17.6528
   645.66         17.6206
   645.80         17.5978
   645.94         17.5844
   646.08         17.5776
   646.22         17.5738
   646.36         17.5703
   646.50         17.5684
   646.64         17.5736
   646.78         17.5915
   646.92         17.6233
   647.06         17.6650
   647.20         17.7104
   647.34         17.7549
   647.48         17.7961
   647.62         17.8328
   647.76         17.8642
   647.90         17.8900
   648.04         17.9094
   648.18         17.9190
   648.32         17.9103
   648.46         17.8736
   648.60         17.8034
   648.74         17.7006
   648.88         17.5718
   649.02         17.4279
   649.16         17.2848
   649.30         17.1578
   649.44         17.0594
   649.58         16.9989
   649.72         16.9830
   649.86         17.0155
   650.00         17.0973
   650.14         17.2235
   650.28         17.3820
   650.42         17.5547
   650.56         17.7215
   650.70         17.8667
   650.84         17.9804
   650.98         18.0602
   651.12         18.1104
   651.26         18.1387
   651.40         18.1544
   651.54         18.1651
   651.68         18.1757
   651.82         18.1888
   651.96         18.2040
   652.10         18.2189
   652.24         18.2311
   652.38         18.2391
   652.52         18.2419
   652.66         18.2391
   652.80         18.2318
   652.94         18.2234
   653.08         18.2194
   653.22         18.2252
   653.36         18.2440
   653.50         18.2756
   653.64         18.3161
   653.78         18.3604
   653.92         18.4032
   654.06         18.4389
   654.20         18.4622
   654.34         18.4683
   654.48         18.4541
   654.62         18.4183
   654.76         18.3621
   654.90         18.2869
   655.04         18.1889
   655.18         18.0603
   655.32         17.8979
   655.46         17.7089
   655.60         17.5081
   655.74         17.3109
   655.88         17.1300
   656.02         16.9767
   656.16         16.8618
   656.30         16.7932
   656.44         16.7759
   656.58         16.8116
   656.72         16.8978
   656.86         17.0267
   657.00         17.1858
   657.14         17.3612
   657.28         17.5392
   657.42         17.7062
   657.56         17.8491
   657.70         17.9603
   657.84         18.0417
   657.98         18.1029
   658.12         18.1518
   658.26         18.1894
   658.40         18.2131
   658.54         18.2209
   658.68         18.2132
   658.82         18.1936
   658.96         18.1674
   659.10         18.1418
   659.24         18.1222
   659.38         18.1096
   659.52         18.1014
   659.66         18.0936
   659.80         18.0837
   659.94         18.0699
   660.08         18.0518
   660.22         18.0308
   660.36         18.0096
   660.50         17.9911
   660.64         17.9769
   660.78         17.9684
   660.92         17.9682
   661.06         17.9795
   661.20         18.0033
   661.34         18.0392
   661.48         18.0839
   661.62         18.1321
   661.76         18.1780
   661.90         18.2157
   662.04         18.2395
   662.18         18.2436
   662.32         18.2247
   662.46         18.1859
   662.60         18.1339
   662.74         18.0759
   662.88         18.0180
   663.02         17.9646
   663.16         17.9181
   663.30         17.8792
   663.44         17.8470
   663.58         17.8213
   663.72         17.8011
   663.86         17.7849
   664.00         17.7711
   664.14         17.7584
   664.28         17.7469
   664.42         17.7374
   664.56         17.7285
   664.70         17.7190
   664.84         17.7088
   664.98         17.7002
   665.12         17.6942
   665.26         17.6888
   665.40         17.6811
   665.54         17.6686
   665.68         17.6496
   665.82         17.6241
   665.96         17.5947
   666.10         17.5658
   666.24         17.5420
   666.38         17.5253
   666.52         17.5147
   666.66         17.5076
   666.80         17.5007
   666.94         17.4921
   667.08         17.4806
   667.22         17.4665
   667.36         17.4521
   667.50         17.4402
   667.64         17.4327
   667.78         17.4325
   667.92         17.4435
   668.06         17.4685
   668.20         17.5058
   668.34         17.5517
   668.48         17.6025
   668.62         17.6521
   668.76         17.6932
   668.90         17.7193
   669.04         17.7264
   669.18         17.7141
   669.32         17.6858
   669.46         17.6476
   669.60         17.6073
   669.74         17.5697
   669.88         17.5379
   670.02         17.5129
   670.16         17.4933
   670.30         17.4754
   670.44         17.4538
   670.58         17.4228
   670.72         17.3780
   670.86         17.3180
   671.00         17.2463
   671.14         17.1690
   671.28         17.0935
   671.42         17.0285
   671.56         16.9815
   671.70         16.9568
   671.84         16.9558
   671.98         16.9776
   672.12         17.0193
   672.26         17.0764
   672.40         17.1427
   672.54         17.2123
   672.68         17.2797
   672.82         17.3385
   672.96         17.3832
   673.10         17.4108
   673.24         17.4218
   673.38         17.4201
   673.52         17.4098
   673.66         17.3935
   673.80         17.3704
   673.94         17.3402
   674.08         17.3042
   674.22         17.2638
   674.36         17.2212
   674.50         17.1791
   674.64         17.1409
   674.78         17.1100
   674.92         17.0899
   675.06         17.0829
   675.20         17.0908
   675.34         17.1138
   675.48         17.1492
   675.62         17.1926
   675.76         17.2390
   675.90         17.2835
   676.04         17.3215
   676.18         17.3489
   676.32         17.3627
   676.46         17.3629
   676.60         17.3533
   676.74         17.3398
   676.88         17.3272
   677.02         17.3187
   677.16         17.3148
   677.30         17.3144
   677.44         17.3158
   677.58         17.3181
   677.72         17.3219
   677.86         17.3278
   678.00         17.3340
   678.14         17.3377
   678.28         17.3376
   678.42         17.3345
   678.56         17.3314
   678.70         17.3326
   678.84         17.3421
   678.98         17.3613
   679.12         17.3885
   679.26         17.4206
   679.40         17.4538
   679.54         17.4838
   679.68         17.5077
   679.82         17.5245
   679.96         17.5352
   680.10         17.5416
   680.24         17.5451
   680.38         17.5456
   680.52         17.5412
   680.66         17.5295
   680.80         17.5099
   680.94         17.4833
   681.08         17.4525
   681.22         17.4222
   681.36         17.3959
   681.50         17.3748
   681.64         17.3574
   681.78         17.3434
   681.92         17.3347
   682.06         17.3335
   682.20         17.3402
   682.34         17.3531
   682.48         17.3676
   682.62         17.3785
   682.76         17.3796
   682.90         17.3657
   683.04         17.3344
   683.18         17.2861
   683.32         17.2237
   683.46         17.1519
   683.60         17.0778
   683.74         17.0092
   683.88         16.9527
   684.02         16.9126
   684.16         16.8900
   684.30         16.8836
   684.44         16.8904
   684.58         16.9060
   684.72         16.9244
   684.86         16.9394
   685.00         16.9450
   685.14         16.9358
   685.28         16.9085
   685.42         16.8602
   685.56         16.7863
   685.70         16.6794
   685.84         16.5308
   685.98         16.3345
   686.12         16.0896
   686.26         15.8006
   686.40         15.4780
   686.54         15.1370
   686.68         14.7965
   686.82         14.4779
   686.96         14.2037
   687.10         13.9957
   687.24         13.8711
   687.38         13.8373
   687.52         13.8903
   687.66         14.0164
   687.80         14.1957
   687.94         14.4045
   688.08         14.6163
   688.22         14.8064
   688.36         14.9581
   688.50         15.0666
   688.64         15.1371
   688.78         15.1791
   688.92         15.2034
   689.06         15.2211
   689.20         15.2419
   689.34         15.2738
   689.48         15.3210
   689.62         15.3835
   689.76         15.4579
   689.90         15.5389
   690.04         15.6205
   690.18         15.6969
   690.32         15.7649
   690.46         15.8241
   690.60         15.8765
   690.74         15.9254
   690.88         15.9758
   691.02         16.0325
   691.16         16.0975
   691.30         16.1682
   691.44         16.2385
   691.58         16.3035
   691.72         16.3596
   691.86         16.4042
   692.00         16.4357
   692.14         16.4534
   692.28         16.4580
   692.42         16.4534
   692.56         16.4447
   692.70         16.4368
   692.84         16.4335
   692.98         16.4383
   693.12         16.4542
   693.26         16.4815
   693.40         16.5169
   693.54         16.5536
   693.68         16.5836
   693.82         16.6000
   693.96         16.6003
   694.10         16.5880
   694.24         16.5699
   694.38         16.5518
   694.52         16.5378
   694.66         16.5312
   694.80         16.5347
   694.94         16.5498
   695.08         16.5765
   695.22         16.6131
   695.36         16.6554
   695.50         16.6986
   695.64         16.7381
   695.78         16.7705
   695.92         16.7937
   696.06         16.8086
   696.20         16.8177
   696.34         16.8239
   696.48         16.8282
   696.62         16.8294
   696.76         16.8234
   696.90         16.8052
   697.04         16.7728
   697.18         16.7281
   697.32         16.6756
   697.46         16.6207
   697.60         16.5683
   697.74         16.5221
   697.88         16.4849
   698.02         16.4595
   698.16         16.4490
   698.30         16.4561
   698.44         16.4820
   698.58         16.5253
   698.72         16.5820
   698.86         16.6452
   699.00         16.7062
   699.14         16.7573
   699.28         16.7928
   699.42         16.8099
   699.56         16.8089
   699.70         16.7922
   699.84         16.7624
   699.98         16.7218
   700.12         16.6740
   700.26         16.6233
   700.40         16.5746
   700.54         16.5317
   700.68         16.4972
   700.82         16.4735
   700.96         16.4617
   701.10         16.4593
   701.24         16.4617
   701.38         16.4633
   701.52         16.4600
   701.66         16.4492
   701.80         16.4307
   701.94         16.4057
   702.08         16.3754
   702.22         16.3417
   702.36         16.3078
   702.50         16.2769
   702.64         16.2508
   702.78         16.2300
   702.92         16.2147
   703.06         16.2063
   703.20         16.2064
   703.34         16.2179
   703.48         16.2435
   703.62         16.2823
   703.76         16.3312
   703.90         16.3875
   704.04         16.4490
   704.18         16.5118
   704.32         16.5721
   704.46         16.6276
   704.60         16.6760
   704.74         16.7154
   704.88         16.7445
   705.02         16.7631
   705.16         16.7714
   705.30         16.7697
   705.44         16.7579
   705.58         16.7353
   705.72         16.7001
   705.86         16.6497
   706.00         16.5846
   706.14         16.5086
   706.28         16.4269
   706.42         16.3455
   706.56         16.2715
   706.70         16.2117
   706.84         16.1719
   706.98         16.1573
   707.12         16.1702
   707.26         16.2070
   707.40         16.2594
   707.54         16.3175
   707.68         16.3722
   707.82         16.4155
   707.96         16.4412
   708.10         16.4452
   708.24         16.4275
   708.38         16.3931
   708.52         16.3507
   708.66         16.3104
   708.80         16.2819
   708.94         16.2720
   709.08         16.2846
   709.22         16.3199
   709.36         16.3747
   709.50         16.4431
   709.64         16.5170
   709.78         16.5868
   709.92         16.6433
   710.06         16.6796
   710.20         16.6929
   710.34         16.6831
   710.48         16.6534
   710.62         16.6087
   710.76         16.5541
   710.90         16.4948
   711.04         16.4360
   711.18         16.3823
   711.32         16.3369
   711.46         16.3022
   711.60         16.2783
   711.74         16.2642
   711.88         16.2587
   712.02         16.2594
   712.16         16.2628
   712.30         16.2670
   712.44         16.2724
   712.58         16.2797
   712.72         16.2893
   712.86         16.3015
   713.00         16.3163
   713.14         16.3318
   713.28         16.3444
   713.42         16.3508
   713.56         16.3488
   713.70         16.3372
   713.84         16.3157
   713.98         16.2850
   714.12         16.2480
   714.26         16.2082
   714.40         16.1684
   714.54         16.1319
   714.68         16.1030
   714.82         16.0861
   714.96         16.0851
   715.10         16.1004
   715.24         16.1272
   715.38         16.1577
   715.52         16.1843
   715.66         16.2020
   715.80         16.2071
   715.94         16.1978
   716.08         16.1742
   716.22         16.1378
   716.36         16.0916
   716.50         16.0388
   716.64         15.9832
   716.78         15.9286
   716.92         15.8762
   717.06         15.8247
   717.20         15.7719
   717.34         15.7129
   717.48         15.6406
   717.62         15.5494
   717.76         15.4386
   717.90         15.3110
   718.04         15.1721
   718.18         15.0298
   718.32         14.8934
   718.46         14.7737
   718.60         14.6818
   718.74         14.6261
   718.88         14.6109
   719.02         14.6352
   719.16         14.6953
   719.30         14.7845
   719.44         14.8911
   719.58         14.9998
   719.72         15.0987
   719.86         15.1824
   720.00         15.2498
   720.14         15.3036
   720.28         15.3503
   720.42         15.3973
   720.56         15.4516
   720.70         15.5192
   720.84         15.6056
   720.98         15.7138
   721.12         15.8415
   721.26         15.9793
   721.40         16.1142
   721.54         16.2341
   721.68         16.3289
   721.82         16.3918
   721.96         16.4198
   722.10         16.4125
   722.24         16.3739
   722.38         16.3128
   722.52         16.2397
   722.66         16.1624
   722.80         16.0858
   722.94         16.0129
   723.08         15.9472
   723.22         15.8914
   723.36         15.8443
   723.50         15.8031
   723.64         15.7668
   723.78         15.7361
   723.92         15.7107
   724.06         15.6886
   724.20         15.6669
   724.34         15.6439
   724.48         15.6206
   724.62         15.5990
   724.76         15.5811
   724.90         15.5680
   725.04         15.5594
   725.18         15.5545
   725.32         15.5517
   725.46         15.5510
   725.60         15.5541
   725.74         15.5639
   725.88         15.5823
   726.02         15.6100
   726.16         15.6457
   726.30         15.6847
   726.44         15.7201
   726.58         15.7446
   726.72         15.7535
   726.86         15.7467
   727.00         15.7258
   727.14         15.6926
   727.28         15.6484
   727.42         15.5947
   727.56         15.5325
   727.70         15.4610
   727.84         15.3793
   727.98         15.2882
   728.12         15.1896
   728.26         15.0871
   728.40         14.9865
   728.54         14.8948
   728.68         14.8178
   728.82         14.7597
   728.96         14.7239
   729.10         14.7127
   729.24         14.7275
   729.38         14.7687
   729.52         14.8325
   729.66         14.9106
   729.80         14.9926
   729.94         15.0688
   730.08         15.1324
   730.22         15.1781
   730.36         15.2030
   730.50         15.2091
   730.64         15.2025
   730.78         15.1898
   730.92         15.1777
   731.06         15.1714
   731.20         15.1732
   731.34         15.1827
   731.48         15.1967
   731.62         15.2120
   731.76         15.2265
   731.90         15.2381
   732.04         15.2443
   732.18         15.2416
   732.32         15.2292
   732.46         15.2121
   732.60         15.1976
   732.74         15.1911
   732.88         15.1952
   733.02         15.2103
   733.16         15.2365
   733.30         15.2735
   733.44         15.3202
   733.58         15.3760
   733.72         15.4387
   733.86         15.5030
   734.00         15.5611
   734.14         15.6051
   734.28         15.6288
   734.42         15.6277
   734.56         15.6002
   734.70         15.5475
   734.84         15.4726
   734.98         15.3809
   735.12         15.2777
   735.26         15.1669
   735.40         15.0523
   735.54         14.9395
   735.68         14.8345
   735.82         14.7425
   735.96         14.6680
   736.10         14.6151
   736.24         14.5879
   736.38         14.5879
   736.52         14.6127
   736.66         14.6587
   736.80         14.7224
   736.94         14.7984
   737.08         14.8787
   737.22         14.9534
   737.36         15.0117
   737.50         15.0438
   737.64         15.0421
   737.78         15.0042
   737.92         14.9338
   738.06         14.8397
   738.20         14.7323
   738.34         14.6234
   738.48         14.5254
   738.62         14.4487
   738.76         14.4017
   738.90         14.3871
   739.04         14.4016
   739.18         14.4384
   739.32         14.4900
   739.46         14.5483
   739.60         14.6051
   739.74         14.6537
   739.88         14.6886
   740.02         14.7070
   740.16         14.7085
   740.30         14.6963
   740.44         14.6749
   740.58         14.6476
   740.72         14.6162
   740.86         14.5819
   741.00         14.5448
   741.14         14.5052
   741.28         14.4637
   741.42         14.4225
   741.56         14.3830
   741.70         14.3479
   741.84         14.3209
   741.98         14.3047
   742.12         14.2994
   742.26         14.3023
   742.40         14.3090
   742.54         14.3159
   742.68         14.3209
   742.82         14.3232
   742.96         14.3232
   743.10         14.3209
   743.24         14.3159
   743.38         14.3090
   743.52         14.3023
   743.66         14.2994
   743.80         14.3047
   743.94         14.3209
   744.08         14.3479
   744.22         14.3830
