# File HD240296
# Wavelength [nm]    Normalized Amplitude
   349.70         16.5528
   349.84         16.5123
   349.98         16.4787
   350.12         16.4543
   350.26         16.4442
   350.40         16.4517
   350.54         16.4754
   350.68         16.5084
   350.82         16.5424
   350.96         16.5685
   351.10         16.5783
   351.24         16.5685
   351.38         16.5424
   351.52         16.5084
   351.66         16.4754
   351.80         16.4517
   351.94         16.4442
   352.08         16.4543
   352.22         16.4787
   352.36         16.5123
   352.50         16.5528
   352.64         16.6013
   352.78         16.6587
   352.92         16.7215
   353.06         16.7852
   353.20         16.8480
   353.34         16.9108
   353.48         16.9771
   353.62         17.0522
   353.76         17.1420
   353.90         17.2506
   354.04         17.3757
   354.18         17.5082
   354.32         17.6343
   354.46         17.7387
   354.60         17.8067
   354.74         17.8269
   354.88         17.7954
   355.02         17.7154
   355.16         17.5947
   355.30         17.4409
   355.44         17.2601
   355.58         17.0596
   355.72         16.8495
   355.86         16.6400
   356.00         16.4387
   356.14         16.2504
   356.28         16.0773
   356.42         15.9206
   356.56         15.7790
   356.70         15.6501
   356.84         15.5325
   356.98         15.4260
   357.12         15.3292
   357.26         15.2387
   357.40         15.1519
   357.54         15.0679
   357.68         14.9857
   357.82         14.9055
   357.96         14.8306
   358.10         14.7680
   358.24         14.7253
   358.38         14.7101
   358.52         14.7297
   358.66         14.7905
   358.80         14.8973
   358.94         15.0534
   359.08         15.2557
   359.22         15.4913
   359.36         15.7399
   359.50         15.9778
   359.64         16.1815
   359.78         16.3294
   359.92         16.4060
   360.06         16.4053
   360.20         16.3293
   360.34         16.1867
   360.48         15.9926
   360.62         15.7667
   360.76         15.5281
   360.90         15.2943
   361.04         15.0828
   361.18         14.9113
   361.32         14.7936
   361.46         14.7366
   361.60         14.7410
   361.74         14.7997
   361.88         14.9002
   362.02         15.0274
   362.16         15.1653
   362.30         15.2999
   362.44         15.4202
   362.58         15.5209
   362.72         15.6034
   362.86         15.6737
   363.00         15.7393
   363.14         15.8053
   363.28         15.8723
   363.42         15.9392
   363.56         16.0042
   363.70         16.0656
   363.84         16.1215
   363.98         16.1693
   364.12         16.2076
   364.26         16.2380
   364.40         16.2629
   364.54         16.2857
   364.68         16.3116
   364.82         16.3479
   364.96         16.4038
   365.10         16.4860
   365.24         16.5944
   365.38         16.7227
   365.52         16.8599
   365.66         16.9910
   365.80         17.1013
   365.94         17.1815
   366.08         17.2298
   366.22         17.2493
   366.36         17.2467
   366.50         17.2289
   366.64         17.2013
   366.78         17.1692
   366.92         17.1377
   367.06         17.1110
   367.20         17.0918
   367.34         17.0818
   367.48         17.0806
   367.62         17.0852
   367.76         17.0911
   367.90         17.0934
   368.04         17.0912
   368.18         17.0898
   368.32         17.0969
   368.46         17.1180
   368.60         17.1533
   368.74         17.1991
   368.88         17.2519
   369.02         17.3084
   369.16         17.3624
   369.30         17.4064
   369.44         17.4335
   369.58         17.4370
   369.72         17.4103
   369.86         17.3474
   370.00         17.2462
   370.14         17.1105
   370.28         16.9526
   370.42         16.7933
   370.56         16.6571
   370.70         16.5684
   370.84         16.5459
   370.98         16.5932
   371.12         16.6999
   371.26         16.8530
   371.40         17.0426
   371.54         17.2612
   371.68         17.4983
   371.82         17.7402
   371.96         17.9725
   372.10         18.1797
   372.24         18.3436
   372.38         18.4471
   372.52         18.4822
   372.66         18.4572
   372.80         18.3961
   372.94         18.3322
   373.08         18.2977
   373.22         18.3166
   373.36         18.4005
   373.50         18.5448
   373.64         18.7274
   373.78         18.9179
   373.92         19.0867
   374.06         19.2116
   374.20         19.2808
   374.34         19.2932
   374.48         19.2565
   374.62         19.1836
   374.76         19.0903
   374.90         19.0003
   375.04         18.9486
   375.18         18.9742
   375.32         19.1055
   375.46         19.3493
   375.60         19.6843
   375.74         20.0633
   375.88         20.4230
   376.02         20.7004
   376.16         20.8495
   376.30         20.8533
   376.44         20.7302
   376.58         20.5324
   376.72         20.3349
   376.86         20.2181
   377.00         20.2476
   377.14         20.4636
   377.28         20.8805
   377.42         21.4880
   377.56         22.2521
   377.70         23.1186
   377.84         24.0214
   377.98         24.8887
   378.12         25.6447
   378.26         26.2155
   378.40         26.5404
   378.54         26.5833
   378.68         26.3407
   378.82         25.8443
   378.96         25.1585
   379.10         24.3716
   379.24         23.5796
   379.38         22.8713
   379.52         22.3187
   379.66         21.9743
   379.80         21.8753
   379.94         22.0405
   380.08         22.4620
   380.22         23.1084
   380.36         23.9329
   380.50         24.8797
   380.64         25.8808
   380.78         26.8574
   380.92         27.7368
   381.06         28.4659
   381.20         29.0145
   381.34         29.3720
   381.48         29.5420
   381.62         29.5349
   381.76         29.3590
   381.90         29.0168
   382.04         28.5089
   382.18         27.8376
   382.32         27.0133
   382.46         26.0601
   382.60         25.0145
   382.74         23.9264
   382.88         22.8631
   383.02         21.9054
   383.16         21.1334
   383.30         20.6119
   383.44         20.3851
   383.58         20.4795
   383.72         20.8989
   383.86         21.6207
   384.00         22.5995
   384.14         23.7721
   384.28         25.0605
   384.42         26.3801
   384.56         27.6477
   384.70         28.7916
   384.84         29.7643
   384.98         30.5488
   385.12         31.1528
   385.26         31.5990
   385.40         31.9200
   385.54         32.1521
   385.68         32.3285
   385.82         32.4726
   385.96         32.5970
   386.10         32.7065
   386.24         32.8011
   386.38         32.8719
   386.52         32.9002
   386.66         32.8623
   386.80         32.7353
   386.94         32.5010
   387.08         32.1484
   387.22         31.6697
   387.36         31.0582
   387.50         30.3098
   387.64         29.4253
   387.78         28.4159
   387.92         27.3102
   388.06         26.1537
   388.20         25.0044
   388.34         23.9284
   388.48         22.9908
   388.62         22.2484
   388.76         21.7474
   388.90         21.5203
   389.04         21.5800
   389.18         21.9182
   389.32         22.5081
   389.46         23.3042
   389.60         24.2456
   389.74         25.2656
   389.88         26.3029
   390.02         27.3091
   390.16         28.2500
   390.30         29.1064
   390.44         29.8717
   390.58         30.5462
   390.72         31.1304
   390.86         31.6246
   391.00         32.0304
   391.14         32.3500
   391.28         32.5863
   391.42         32.7405
   391.56         32.8060
   391.70         32.7626
   391.84         32.5744
   391.98         32.1958
   392.12         31.5850
   392.26         30.7232
   392.40         29.6306
   392.54         28.3697
   392.68         27.0322
   392.82         25.7274
   392.96         24.5720
   393.10         23.6744
   393.24         23.1212
   393.38         22.9681
   393.52         23.2292
   393.66         23.8740
   393.80         24.8299
   393.94         25.9928
   394.08         27.2426
   394.22         28.4566
   394.36         29.5229
   394.50         30.3543
   394.64         30.9036
   394.78         31.1689
   394.92         31.1826
   395.06         30.9930
   395.20         30.6409
   395.34         30.1441
   395.48         29.4991
   395.62         28.6907
   395.76         27.7056
   395.90         26.5497
   396.04         25.2572
   396.18         23.8886
   396.32         22.5269
   396.46         21.2678
   396.60         20.2096
   396.74         19.4390
   396.88         19.0161
   397.02         18.9705
   397.16         19.3033
   397.30         19.9917
   397.44         20.9867
   397.58         22.2130
   397.72         23.5804
   397.86         24.9947
   398.00         26.3680
   398.14         27.6314
   398.28         28.7426
   398.42         29.6860
   398.56         30.4668
   398.70         31.1050
   398.84         31.6266
   398.98         32.0566
   399.12         32.4149
   399.26         32.7129
   399.40         32.9568
   399.54         33.1549
   399.68         33.3197
   399.82         33.4682
   399.96         33.6168
   400.10         33.7733
   400.24         33.9396
   400.38         34.1151
   400.52         34.2984
   400.66         34.4885
   400.80         34.6849
   400.94         34.8854
   401.08         35.0849
   401.22         35.2781
   401.36         35.4618
   401.50         35.6304
   401.64         35.7730
   401.78         35.8741
   401.92         35.9174
   402.06         35.8947
   402.20         35.8079
   402.34         35.6670
   402.48         35.4909
   402.62         35.3033
   402.76         35.1281
   402.90         34.9868
   403.04         34.8945
   403.18         34.8564
   403.32         34.8679
   403.46         34.9165
   403.60         34.9867
   403.74         35.0662
   403.88         35.1462
   404.02         35.2166
   404.16         35.2647
   404.30         35.2778
   404.44         35.2469
   404.58         35.1729
   404.72         35.0690
   404.86         34.9556
   405.00         34.8515
   405.14         34.7662
   405.28         34.6978
   405.42         34.6377
   405.56         34.5764
   405.70         34.5067
   405.84         34.4253
   405.98         34.3334
   406.12         34.2364
   406.26         34.1396
   406.40         34.0404
   406.54         33.9257
   406.68         33.7796
   406.82         33.5961
   406.96         33.3793
   407.10         33.1388
   407.24         32.8852
   407.38         32.6281
   407.52         32.3741
   407.66         32.1273
   407.80         31.8876
   407.94         31.6507
   408.08         31.4091
   408.22         31.1514
   408.36         30.8591
   408.50         30.5073
   408.64         30.0678
   408.78         29.5117
   408.92         28.8116
   409.06         27.9522
   409.20         26.9444
   409.34         25.8321
   409.48         24.6833
   409.62         23.5747
   409.76         22.5818
   409.90         21.7753
   410.04         21.2181
   410.18         20.9589
   410.32         21.0247
   410.46         21.4121
   410.60         22.0884
   410.74         22.9979
   410.88         24.0675
   411.02         25.2152
   411.16         26.3598
   411.30         27.4293
   411.44         28.3663
   411.58         29.1369
   411.72         29.7353
   411.86         30.1785
   412.00         30.4939
   412.14         30.7103
   412.28         30.8561
   412.42         30.9608
   412.56         31.0553
   412.70         31.1697
   412.84         31.3263
   412.98         31.5330
   413.12         31.7838
   413.26         32.0652
   413.40         32.3630
   413.54         32.6620
   413.68         32.9442
   413.82         33.1914
   413.96         33.3905
   414.10         33.5340
   414.24         33.6183
   414.38         33.6437
   414.52         33.6154
   414.66         33.5436
   414.80         33.4424
   414.94         33.3285
   415.08         33.2191
   415.22         33.1302
   415.36         33.0724
   415.50         33.0476
   415.64         33.0507
   415.78         33.0750
   415.92         33.1112
   416.06         33.1450
   416.20         33.1583
   416.34         33.1349
   416.48         33.0646
   416.62         32.9436
   416.76         32.7745
   416.90         32.5679
   417.04         32.3425
   417.18         32.1198
   417.32         31.9189
   417.46         31.7537
   417.60         31.6332
   417.74         31.5648
   417.88         31.5551
   418.02         31.6065
   418.16         31.7168
   418.30         31.8794
   418.44         32.0812
   418.58         32.3017
   418.72         32.5193
   418.86         32.7186
   419.00         32.8921
   419.14         33.0364
   419.28         33.1509
   419.42         33.2367
   419.56         33.2950
   419.70         33.3257
   419.84         33.3296
   419.98         33.3121
   420.12         33.2832
   420.26         33.2537
   420.40         33.2332
   420.54         33.2252
   420.68         33.2262
   420.82         33.2293
   420.96         33.2265
   421.10         33.2074
   421.24         33.1608
   421.38         33.0774
   421.52         32.9532
   421.66         32.7934
   421.80         32.6107
   421.94         32.4217
   422.08         32.2423
   422.22         32.0841
   422.36         31.9529
   422.50         31.8528
   422.64         31.7870
   422.78         31.7560
   422.92         31.7568
   423.06         31.7858
   423.20         31.8393
   423.34         31.9099
   423.48         31.9851
   423.62         32.0488
   423.76         32.0845
   423.90         32.0818
   424.04         32.0419
   424.18         31.9785
   424.32         31.9100
   424.46         31.8499
   424.60         31.8035
   424.74         31.7691
   424.88         31.7436
   425.02         31.7280
   425.16         31.7290
   425.30         31.7554
   425.44         31.8129
   425.58         31.9004
   425.72         32.0087
   425.86         32.1196
   426.00         32.2102
   426.14         32.2615
   426.28         32.2646
   426.42         32.2209
   426.56         32.1406
   426.70         32.0403
   426.84         31.9372
   426.98         31.8440
   427.12         31.7667
   427.26         31.7073
   427.40         31.6665
   427.54         31.6443
   427.68         31.6368
   427.82         31.6349
   427.96         31.6269
   428.10         31.6008
   428.24         31.5476
   428.38         31.4636
   428.52         31.3508
   428.66         31.2140
   428.80         31.0559
   428.94         30.8775
   429.08         30.6803
   429.22         30.4670
   429.36         30.2402
   429.50         30.0004
   429.64         29.7469
   429.78         29.4834
   429.92         29.2221
   430.06         28.9771
   430.20         28.7589
   430.34         28.5739
   430.48         28.4292
   430.62         28.3310
   430.76         28.2792
   430.90         28.2658
   431.04         28.2780
   431.18         28.2985
   431.32         28.3064
   431.46         28.2842
   431.60         28.2245
   431.74         28.1279
   431.88         27.9954
   432.02         27.8257
   432.16         27.6141
   432.30         27.3527
   432.44         27.0307
   432.58         26.6323
   432.72         26.1362
   432.86         25.5233
   433.00         24.7893
   433.14         23.9511
   433.28         23.0461
   433.42         22.1269
   433.56         21.2547
   433.70         20.4915
   433.84         19.8915
   433.98         19.4951
   434.12         19.3281
   434.26         19.4022
   434.40         19.7127
   434.54         20.2392
   434.68         20.9458
   434.82         21.7840
   434.96         22.6992
   435.10         23.6394
   435.24         24.5610
   435.38         25.4319
   435.52         26.2350
   435.66         26.9659
   435.80         27.6256
   435.94         28.2139
   436.08         28.7267
   436.22         29.1564
   436.36         29.4960
   436.50         29.7449
   436.64         29.9140
   436.78         30.0254
   436.92         30.1039
   437.06         30.1675
   437.20         30.2241
   437.34         30.2739
   437.48         30.3171
   437.62         30.3572
   437.76         30.3975
   437.90         30.4381
   438.04         30.4760
   438.18         30.5066
   438.32         30.5250
   438.46         30.5290
   438.60         30.5201
   438.74         30.5004
   438.88         30.4705
   439.02         30.4326
   439.16         30.3931
   439.30         30.3577
   439.44         30.3279
   439.58         30.3005
   439.72         30.2729
   439.86         30.2480
   440.00         30.2340
   440.14         30.2384
   440.28         30.2601
   440.42         30.2857
   440.56         30.2977
   440.70         30.2825
   440.84         30.2349
   440.98         30.1582
   441.12         30.0624
   441.26         29.9584
   441.40         29.8561
   441.54         29.7666
   441.68         29.7023
   441.82         29.6728
   441.96         29.6804
   442.10         29.7192
   442.24         29.7769
   442.38         29.8401
   442.52         29.8996
   442.66         29.9510
   442.80         29.9919
   442.94         30.0186
   443.08         30.0280
   443.22         30.0225
   443.36         30.0104
   443.50         30.0021
   443.64         30.0053
   443.78         30.0222
   443.92         30.0503
   444.06         30.0845
   444.20         30.1178
   444.34         30.1410
   444.48         30.1449
   444.62         30.1238
   444.76         30.0770
   444.90         30.0097
   445.04         29.9315
   445.18         29.8532
   445.32         29.7811
   445.46         29.7155
   445.60         29.6537
   445.74         29.5947
   445.88         29.5423
   446.02         29.5037
   446.16         29.4841
   446.30         29.4854
   446.44         29.5068
   446.58         29.5454
   446.72         29.5942
   446.86         29.6395
   447.00         29.6671
   447.14         29.6697
   447.28         29.6489
   447.42         29.6114
   447.56         29.5638
   447.70         29.5102
   447.84         29.4527
   447.98         29.3958
   448.12         29.3466
   448.26         29.3126
   448.40         29.3006
   448.54         29.3175
   448.68         29.3694
   448.82         29.4570
   448.96         29.5735
   449.10         29.7086
   449.24         29.8518
   449.38         29.9935
   449.52         30.1266
   449.66         30.2501
   449.80         30.3686
   449.94         30.4866
   450.08         30.6037
   450.22         30.7130
   450.36         30.8047
   450.50         30.8718
   450.64         30.9116
   450.78         30.9216
   450.92         30.8991
   451.06         30.8430
   451.20         30.7552
   451.34         30.6387
   451.48         30.4953
   451.62         30.3271
   451.76         30.1394
   451.90         29.9389
   452.04         29.7312
   452.18         29.5196
   452.32         29.3105
   452.46         29.1168
   452.60         28.9535
   452.74         28.8315
   452.88         28.7569
   453.02         28.7330
   453.16         28.7607
   453.30         28.8362
   453.44         28.9487
   453.58         29.0807
   453.72         29.2105
   453.86         29.3170
   454.00         29.3824
   454.14         29.3920
   454.28         29.3369
   454.42         29.2186
   454.56         29.0479
   454.70         28.8408
   454.84         28.6187
   454.98         28.4070
   455.12         28.2280
   455.26         28.0956
   455.40         28.0160
   455.54         27.9917
   455.68         28.0214
   455.82         28.0990
   455.96         28.2136
   456.10         28.3506
   456.24         28.4956
   456.38         28.6372
   456.52         28.7674
   456.66         28.8790
   456.80         28.9640
   456.94         29.0140
   457.08         29.0230
   457.22         28.9893
   457.36         28.9163
   457.50         28.8130
   457.64         28.6904
   457.78         28.5598
   457.92         28.4347
   458.06         28.3284
   458.20         28.2520
   458.34         28.2135
   458.48         28.2171
   458.62         28.2625
   458.76         28.3466
   458.90         28.4630
   459.04         28.6018
   459.18         28.7502
   459.32         28.8955
   459.46         29.0276
   459.60         29.1423
   459.74         29.2426
   459.88         29.3351
   460.02         29.4236
   460.16         29.5079
   460.30         29.5843
   460.44         29.6472
   460.58         29.6913
   460.72         29.7130
   460.86         29.7116
   461.00         29.6893
   461.14         29.6499
   461.28         29.5981
   461.42         29.5393
   461.56         29.4791
   461.70         29.4212
   461.84         29.3678
   461.98         29.3201
   462.12         29.2761
   462.26         29.2317
   462.40         29.1816
   462.54         29.1213
   462.68         29.0488
   462.82         28.9664
   462.96         28.8797
   463.10         28.7946
   463.24         28.7173
   463.38         28.6535
   463.52         28.6064
   463.66         28.5774
   463.80         28.5666
   463.94         28.5714
   464.08         28.5863
   464.22         28.6045
   464.36         28.6216
   464.50         28.6374
   464.64         28.6537
   464.78         28.6722
   464.92         28.6956
   465.06         28.7253
   465.20         28.7587
   465.34         28.7886
   465.48         28.8066
   465.62         28.8047
   465.76         28.7770
   465.90         28.7216
   466.04         28.6420
   466.18         28.5475
   466.32         28.4516
   466.46         28.3686
   466.60         28.3089
   466.74         28.2791
   466.88         28.2850
   467.02         28.3309
   467.16         28.4162
   467.30         28.5342
   467.44         28.6757
   467.58         28.8310
   467.72         28.9883
   467.86         29.1355
   468.00         29.2635
   468.14         29.3677
   468.28         29.4469
   468.42         29.5006
   468.56         29.5273
   468.70         29.5275
   468.84         29.5030
   468.98         29.4555
   469.12         29.3863
   469.26         29.2972
   469.40         29.1905
   469.54         29.0674
   469.68         28.9288
   469.82         28.7770
   469.96         28.6167
   470.10         28.4533
   470.24         28.2926
   470.38         28.1409
   470.52         28.0056
   470.66         27.8939
   470.80         27.8122
   470.94         27.7641
   471.08         27.7486
   471.22         27.7633
   471.36         27.8056
   471.50         27.8698
   471.64         27.9454
   471.78         28.0216
   471.92         28.0904
   472.06         28.1450
   472.20         28.1806
   472.34         28.1952
   472.48         28.1886
   472.62         28.1620
   472.76         28.1201
   472.90         28.0705
   473.04         28.0223
   473.18         27.9827
   473.32         27.9583
   473.46         27.9543
   473.60         27.9717
   473.74         28.0086
   473.88         28.0621
   474.02         28.1246
   474.16         28.1849
   474.30         28.2315
   474.44         28.2567
   474.58         28.2546
   474.72         28.2207
   474.86         28.1514
   475.00         28.0455
   475.14         27.9057
   475.28         27.7413
   475.42         27.5648
   475.56         27.3890
   475.70         27.2252
   475.84         27.0807
   475.98         26.9599
   476.12         26.8646
   476.26         26.7952
   476.40         26.7521
   476.54         26.7348
   476.68         26.7408
   476.82         26.7666
   476.96         26.8077
   477.10         26.8564
   477.24         26.9028
   477.38         26.9354
   477.52         26.9453
   477.66         26.9306
   477.80         26.8964
   477.94         26.8505
   478.08         26.8014
   478.22         26.7576
   478.36         26.7263
   478.50         26.7128
   478.64         26.7213
   478.78         26.7528
   478.92         26.8038
   479.06         26.8652
   479.20         26.9232
   479.34         26.9631
   479.48         26.9744
   479.62         26.9521
   479.76         26.8954
   479.90         26.8094
   480.04         26.7045
   480.18         26.5968
   480.32         26.5030
   480.46         26.4344
   480.60         26.3961
   480.74         26.3881
   480.88         26.4055
   481.02         26.4369
   481.16         26.4667
   481.30         26.4789
   481.44         26.4605
   481.58         26.4021
   481.72         26.2999
   481.86         26.1572
   482.00         25.9850
   482.14         25.7975
   482.28         25.6072
   482.42         25.4247
   482.56         25.2596
   482.70         25.1201
   482.84         25.0102
   482.98         24.9267
   483.12         24.8612
   483.26         24.8028
   483.40         24.7394
   483.54         24.6589
   483.68         24.5498
   483.82         24.4040
   483.96         24.2189
   484.10         23.9957
   484.24         23.7337
   484.38         23.4287
   484.52         23.0740
   484.66         22.6607
   484.80         22.1767
   484.94         21.6107
   485.08         20.9591
   485.22         20.2322
   485.36         19.4553
   485.50         18.6664
   485.64         17.9107
   485.78         17.2348
   485.92         16.6807
   486.06         16.2818
   486.20         16.0604
   486.34         16.0275
   486.48         16.1814
   486.62         16.5073
   486.76         16.9778
   486.90         17.5545
   487.04         18.1936
   487.18         18.8535
   487.32         19.4982
   487.46         20.0997
   487.60         20.6408
   487.74         21.1144
   487.88         21.5206
   488.02         21.8649
   488.16         22.1552
   488.30         22.4005
   488.44         22.6103
   488.58         22.7943
   488.72         22.9602
   488.86         23.1152
   489.00         23.2663
   489.14         23.4186
   489.28         23.5746
   489.42         23.7340
   489.56         23.8922
   489.70         24.0428
   489.84         24.1811
   489.98         24.3045
   490.12         24.4111
   490.26         24.5007
   490.40         24.5767
   490.54         24.6454
   490.68         24.7112
   490.82         24.7722
   490.96         24.8207
   491.10         24.8446
   491.24         24.8323
   491.38         24.7803
   491.52         24.6965
   491.66         24.5975
   491.80         24.5019
   491.94         24.4258
   492.08         24.3791
   492.22         24.3663
   492.36         24.3888
   492.50         24.4447
   492.64         24.5262
   492.78         24.6205
   492.92         24.7153
   493.06         24.8020
   493.20         24.8755
   493.34         24.9324
   493.48         24.9729
   493.62         25.0028
   493.76         25.0329
   493.90         25.0754
   494.04         25.1402
   494.18         25.2329
   494.32         25.3510
   494.46         25.4805
   494.60         25.5986
   494.74         25.6858
   494.88         25.7333
   495.02         25.7407
   495.16         25.7106
   495.30         25.6489
   495.44         25.5656
   495.58         25.4738
   495.72         25.3865
   495.86         25.3113
   496.00         25.2496
   496.14         25.2005
   496.28         25.1633
   496.42         25.1354
   496.56         25.1117
   496.70         25.0870
   496.84         25.0558
   496.98         25.0075
   497.12         24.9292
   497.26         24.8155
   497.40         24.6737
   497.54         24.5181
   497.68         24.3638
   497.82         24.2238
   497.96         24.1095
   498.10         24.0309
   498.24         23.9955
   498.38         24.0064
   498.52         24.0621
   498.66         24.1574
   498.80         24.2840
   498.94         24.4290
   499.08         24.5764
   499.22         24.7086
   499.36         24.8082
   499.50         24.8587
   499.64         24.8489
   499.78         24.7787
   499.92         24.6585
   500.06         24.5022
   500.20         24.3220
   500.34         24.1262
   500.48         23.9210
   500.62         23.7128
   500.76         23.5088
   500.90         23.3166
   501.04         23.1453
   501.18         23.0042
   501.32         22.9006
   501.46         22.8383
   501.60         22.8179
   501.74         22.8368
   501.88         22.8897
   502.02         22.9690
   502.16         23.0666
   502.30         23.1750
   502.44         23.2860
   502.58         23.3886
   502.72         23.4685
   502.86         23.5141
   503.00         23.5216
   503.14         23.4963
   503.28         23.4498
   503.42         23.3971
   503.56         23.3523
   503.70         23.3262
   503.84         23.3246
   503.98         23.3498
   504.12         23.4007
   504.26         23.4743
   504.40         23.5663
   504.54         23.6719
   504.68         23.7869
   504.82         23.9070
   504.96         24.0255
   505.10         24.1326
   505.24         24.2186
   505.38         24.2778
   505.52         24.3102
   505.66         24.3190
   505.80         24.3088
   505.94         24.2829
   506.08         24.2419
   506.22         24.1857
   506.36         24.1169
   506.50         24.0419
   506.64         23.9680
   506.78         23.9004
   506.92         23.8418
   507.06         23.7935
   507.20         23.7560
   507.34         23.7291
   507.48         23.7104
   507.62         23.6959
   507.76         23.6830
   507.90         23.6729
   508.04         23.6702
   508.18         23.6801
   508.32         23.7058
   508.46         23.7467
   508.60         23.7961
   508.74         23.8443
   508.88         23.8837
   509.02         23.9115
   509.16         23.9272
   509.30         23.9297
   509.44         23.9183
   509.58         23.8952
   509.72         23.8641
   509.86         23.8292
   510.00         23.7939
   510.14         23.7614
   510.28         23.7347
   510.42         23.7174
   510.56         23.7127
   510.70         23.7193
   510.84         23.7301
   510.98         23.7353
   511.12         23.7259
   511.26         23.6966
   511.40         23.6474
   511.54         23.5823
   511.68         23.5054
   511.82         23.4192
   511.96         23.3272
   512.10         23.2353
   512.24         23.1488
   512.38         23.0700
   512.52         23.0002
   512.66         22.9410
   512.80         22.8958
   512.94         22.8684
   513.08         22.8604
   513.22         22.8686
   513.36         22.8880
   513.50         22.9162
   513.64         22.9525
   513.78         22.9962
   513.92         23.0453
   514.06         23.0953
   514.20         23.1404
   514.34         23.1769
   514.48         23.2042
   514.62         23.2209
   514.76         23.2235
   514.90         23.2075
   515.04         23.1707
   515.18         23.1138
   515.32         23.0381
   515.46         22.9430
   515.60         22.8253
   515.74         22.6804
   515.88         22.5080
   516.02         22.3141
   516.16         22.1102
   516.30         21.9121
   516.44         21.7380
   516.58         21.6055
   516.72         21.5278
   516.86         21.5115
   517.00         21.5554
   517.14         21.6494
   517.28         21.7771
   517.42         21.9197
   517.56         22.0574
   517.70         22.1712
   517.84         22.2458
   517.98         22.2714
   518.12         22.2452
   518.26         22.1728
   518.40         22.0673
   518.54         21.9477
   518.68         21.8343
   518.82         21.7446
   518.96         21.6892
   519.10         21.6694
   519.24         21.6777
   519.38         21.7015
   519.52         21.7295
   519.66         21.7542
   519.80         21.7736
   519.94         21.7894
   520.08         21.8041
   520.22         21.8190
   520.36         21.8365
   520.50         21.8609
   520.64         21.8969
   520.78         21.9494
   520.92         22.0213
   521.06         22.1110
   521.20         22.2110
   521.34         22.3079
   521.48         22.3840
   521.62         22.4251
   521.76         22.4243
   521.90         22.3819
   522.04         22.3047
   522.18         22.2008
   522.32         22.0783
   522.46         21.9479
   522.60         21.8206
   522.74         21.7057
   522.88         21.6101
   523.02         21.5413
   523.16         21.5077
   523.30         21.5141
   523.44         21.5596
   523.58         21.6379
   523.72         21.7390
   523.86         21.8514
   524.00         21.9662
   524.14         22.0788
   524.28         22.1881
   524.42         22.2916
   524.56         22.3844
   524.70         22.4604
   524.84         22.5113
   524.98         22.5302
   525.12         22.5125
   525.26         22.4541
   525.40         22.3526
   525.54         22.2081
   525.68         22.0257
   525.82         21.8139
   525.96         21.5807
   526.10         21.3361
   526.24         21.0933
   526.38         20.8670
   526.52         20.6698
   526.66         20.5123
   526.80         20.4021
   526.94         20.3423
   527.08         20.3294
   527.22         20.3561
   527.36         20.4116
   527.50         20.4860
   527.64         20.5736
   527.78         20.6736
   527.92         20.7876
   528.06         20.9178
   528.20         21.0649
   528.34         21.2259
   528.48         21.3935
   528.62         21.5591
   528.76         21.7151
   528.90         21.8549
   529.04         21.9712
   529.18         22.0582
   529.32         22.1147
   529.46         22.1432
   529.60         22.1472
   529.74         22.1309
   529.88         22.1004
   530.02         22.0632
   530.16         22.0255
   530.30         21.9883
   530.44         21.9473
   530.58         21.8968
   530.72         21.8323
   530.86         21.7525
   531.00         21.6588
   531.14         21.5559
   531.28         21.4492
   531.42         21.3426
   531.56         21.2376
   531.70         21.1342
   531.84         21.0351
   531.98         20.9473
   532.12         20.8771
   532.26         20.8278
   532.40         20.7998
   532.54         20.7911
   532.68         20.7974
   532.82         20.8130
   532.96         20.8326
   533.10         20.8544
   533.24         20.8790
   533.38         20.9075
   533.52         20.9375
   533.66         20.9634
   533.80         20.9788
   533.94         20.9793
   534.08         20.9649
   534.22         20.9407
   534.36         20.9158
   534.50         20.9002
   534.64         20.8999
   534.78         20.9142
   534.92         20.9375
   535.06         20.9617
   535.20         20.9776
   535.34         20.9797
   535.48         20.9668
   535.62         20.9390
   535.76         20.8954
   535.90         20.8343
   536.04         20.7569
   536.18         20.6675
   536.32         20.5744
   536.46         20.4894
   536.60         20.4247
   536.74         20.3892
   536.88         20.3867
   537.02         20.4147
   537.16         20.4653
   537.30         20.5272
   537.44         20.5909
   537.58         20.6493
   537.72         20.6979
   537.86         20.7352
   538.00         20.7621
   538.14         20.7792
   538.28         20.7854
   538.42         20.7793
   538.56         20.7620
   538.70         20.7363
   538.84         20.7041
   538.98         20.6666
   539.12         20.6234
   539.26         20.5720
   539.40         20.5086
   539.54         20.4323
   539.68         20.3454
   539.82         20.2529
   539.96         20.1621
   540.10         20.0811
   540.24         20.0164
   540.38         19.9709
   540.52         19.9446
   540.66         19.9359
   540.80         19.9418
   540.94         19.9592
   541.08         19.9850
   541.22         20.0155
   541.36         20.0475
   541.50         20.0797
   541.64         20.1121
   541.78         20.1439
   541.92         20.1730
   542.06         20.1972
   542.20         20.2150
   542.34         20.2257
   542.48         20.2308
   542.62         20.2338
   542.76         20.2394
   542.90         20.2500
   543.04         20.2668
   543.18         20.2902
   543.32         20.3184
   543.46         20.3473
   543.60         20.3722
   543.74         20.3876
   543.88         20.3899
   544.02         20.3777
   544.16         20.3511
   544.30         20.3090
   544.44         20.2487
   544.58         20.1699
   544.72         20.0777
   544.86         19.9808
   545.00         19.8886
   545.14         19.8091
   545.28         19.7469
   545.42         19.7042
   545.56         19.6830
   545.70         19.6845
   545.84         19.7068
   545.98         19.7450
   546.12         19.7928
   546.26         19.8437
   546.40         19.8905
   546.54         19.9253
   546.68         19.9401
   546.82         19.9291
   546.96         19.8895
   547.10         19.8228
   547.24         19.7357
   547.38         19.6382
   547.52         19.5393
   547.66         19.4469
   547.80         19.3675
   547.94         19.3066
   548.08         19.2684
   548.22         19.2555
   548.36         19.2671
   548.50         19.2993
   548.64         19.3469
   548.78         19.4045
   548.92         19.4675
   549.06         19.5322
   549.20         19.5952
   549.34         19.6538
   549.48         19.7054
   549.62         19.7469
   549.76         19.7761
   549.90         19.7920
   550.04         19.7951
   550.18         19.7871
   550.32         19.7703
   550.46         19.7484
   550.60         19.7264
   550.74         19.7106
   550.88         19.7065
   551.02         19.7164
   551.16         19.7388
   551.30         19.7693
   551.44         19.8005
   551.58         19.8221
   551.72         19.8239
   551.86         19.8000
   552.00         19.7496
   552.14         19.6740
   552.28         19.5756
   552.42         19.4604
   552.56         19.3378
   552.70         19.2189
   552.84         19.1141
   552.98         19.0314
   553.12         18.9754
   553.26         18.9479
   553.40         18.9479
   553.54         18.9729
   553.68         19.0183
   553.82         19.0785
   553.96         19.1471
   554.10         19.2178
   554.24         19.2852
   554.38         19.3483
   554.52         19.4081
   554.66         19.4630
   554.80         19.5097
   554.94         19.5472
   555.08         19.5761
   555.22         19.5971
   555.36         19.6090
   555.50         19.6096
   555.64         19.5970
   555.78         19.5698
   555.92         19.5295
   556.06         19.4795
   556.20         19.4238
   556.34         19.3654
   556.48         19.3063
   556.62         19.2476
   556.76         19.1914
   556.90         19.1418
   557.04         19.1037
   557.18         19.0789
   557.32         19.0666
   557.46         19.0636
   557.60         19.0647
   557.74         19.0634
   557.88         19.0539
   558.02         19.0322
   558.16         18.9968
   558.30         18.9487
   558.44         18.8913
   558.58         18.8296
   558.72         18.7688
   558.86         18.7139
   559.00         18.6677
   559.14         18.6311
   559.28         18.6037
   559.42         18.5855
   559.56         18.5769
   559.70         18.5777
   559.84         18.5865
   559.98         18.6026
   560.12         18.6249
   560.26         18.6522
   560.40         18.6836
   560.54         18.7177
   560.68         18.7535
   560.82         18.7898
   560.96         18.8254
   561.10         18.8591
   561.24         18.8887
   561.38         18.9120
   561.52         18.9270
   561.66         18.9332
   561.80         18.9329
   561.94         18.9304
   562.08         18.9308
   562.22         18.9373
   562.36         18.9497
   562.50         18.9643
   562.64         18.9761
   562.78         18.9798
   562.92         18.9720
   563.06         18.9523
   563.20         18.9217
   563.34         18.8835
   563.48         18.8418
   563.62         18.8010
   563.76         18.7648
   563.90         18.7357
   564.04         18.7154
   564.18         18.7056
   564.32         18.7055
   564.46         18.7110
   564.60         18.7153
   564.74         18.7112
   564.88         18.6929
   565.02         18.6570
   565.16         18.6027
   565.30         18.5332
   565.44         18.4541
   565.58         18.3723
   565.72         18.2934
   565.86         18.2219
   566.00         18.1623
   566.14         18.1190
   566.28         18.0941
   566.42         18.0875
   566.56         18.0972
   566.70         18.1202
   566.84         18.1507
   566.98         18.1810
   567.12         18.2053
   567.26         18.2210
   567.40         18.2277
   567.54         18.2260
   567.68         18.2173
   567.82         18.2040
   567.96         18.1892
   568.10         18.1757
   568.24         18.1655
   568.38         18.1610
   568.52         18.1648
   568.66         18.1781
   568.80         18.2004
   568.94         18.2292
   569.08         18.2605
   569.22         18.2891
   569.36         18.3089
   569.50         18.3133
   569.64         18.2985
   569.78         18.2650
   569.92         18.2156
   570.06         18.1544
   570.20         18.0865
   570.34         18.0186
   570.48         17.9576
   570.62         17.9098
   570.76         17.8793
   570.90         17.8682
   571.04         17.8778
   571.18         17.9071
   571.32         17.9527
   571.46         18.0082
   571.60         18.0650
   571.74         18.1141
   571.88         18.1483
   572.02         18.1645
   572.16         18.1636
   572.30         18.1498
   572.44         18.1277
   572.58         18.1009
   572.72         18.0730
   572.86         18.0476
   573.00         18.0282
   573.14         18.0171
   573.28         18.0146
   573.42         18.0193
   573.56         18.0287
   573.70         18.0390
   573.84         18.0449
   573.98         18.0399
   574.12         18.0192
   574.26         17.9817
   574.40         17.9311
   574.54         17.8737
   574.68         17.8156
   574.82         17.7614
   574.96         17.7131
   575.10         17.6705
   575.24         17.6344
   575.38         17.6065
   575.52         17.5888
   575.66         17.5830
   575.80         17.5900
   575.94         17.6089
   576.08         17.6361
   576.22         17.6665
   576.36         17.6954
   576.50         17.7193
   576.64         17.7356
   576.78         17.7420
   576.92         17.7374
   577.06         17.7211
   577.20         17.6931
   577.34         17.6547
   577.48         17.6092
   577.62         17.5610
   577.76         17.5155
   577.90         17.4775
   578.04         17.4492
   578.18         17.4318
   578.32         17.4253
   578.46         17.4299
   578.60         17.4455
   578.74         17.4698
   578.88         17.5009
   579.02         17.5374
   579.16         17.5773
   579.30         17.6165
   579.44         17.6512
   579.58         17.6788
   579.72         17.6973
   579.86         17.7050
   580.00         17.7009
   580.14         17.6848
   580.28         17.6571
   580.42         17.6192
   580.56         17.5736
   580.70         17.5258
   580.84         17.4815
   580.98         17.4456
   581.12         17.4219
   581.26         17.4120
   581.40         17.4162
   581.54         17.4336
   581.68         17.4611
   581.82         17.4941
   581.96         17.5281
   582.10         17.5598
   582.24         17.5864
   582.38         17.6048
   582.52         17.6129
   582.66         17.6107
   582.80         17.5984
   582.94         17.5759
   583.08         17.5440
   583.22         17.5043
   583.36         17.4590
   583.50         17.4109
   583.64         17.3636
   583.78         17.3205
   583.92         17.2829
   584.06         17.2497
   584.20         17.2173
   584.34         17.1822
   584.48         17.1416
   584.62         17.0953
   584.76         17.0447
   584.90         16.9928
   585.04         16.9435
   585.18         16.9011
   585.32         16.8681
   585.46         16.8443
   585.60         16.8291
   585.74         16.8226
   585.88         16.8250
   586.02         16.8365
   586.16         16.8551
   586.30         16.8768
   586.44         16.8976
   586.58         16.9148
   586.72         16.9267
   586.86         16.9316
   587.00         16.9296
   587.14         16.9234
   587.28         16.9159
   587.42         16.9081
   587.56         16.8976
   587.70         16.8775
   587.84         16.8386
   587.98         16.7738
   588.12         16.6804
   588.26         16.5588
   588.40         16.4108
   588.54         16.2412
   588.68         16.0581
   588.82         15.8734
   588.96         15.7020
   589.10         15.5597
   589.24         15.4605
   589.38         15.4125
   589.52         15.4176
   589.66         15.4736
   589.80         15.5729
   589.94         15.7033
   590.08         15.8510
   590.22         16.0006
   590.36         16.1368
   590.50         16.2479
   590.64         16.3275
   590.78         16.3742
   590.92         16.3893
   591.06         16.3774
   591.20         16.3465
   591.34         16.3060
   591.48         16.2646
   591.62         16.2286
   591.76         16.2013
   591.90         16.1844
   592.04         16.1771
   592.18         16.1785
   592.32         16.1874
   592.46         16.2017
   592.60         16.2188
   592.74         16.2352
   592.88         16.2470
   593.02         16.2518
   593.16         16.2494
   593.30         16.2412
   593.44         16.2285
   593.58         16.2118
   593.72         16.1912
   593.86         16.1680
   594.00         16.1445
   594.14         16.1223
   594.28         16.1017
   594.42         16.0827
   594.56         16.0654
   594.70         16.0499
   594.84         16.0360
   594.98         16.0228
   595.12         16.0098
   595.26         15.9966
   595.40         15.9832
   595.54         15.9698
   595.68         15.9563
   595.82         15.9427
   595.96         15.9291
   596.10         15.9155
   596.24         15.9018
   596.38         15.8882
   596.52         15.8745
   596.66         15.8609
   596.80         15.8472
   596.94         15.8336
   597.08         15.8200
   597.22         15.8064
   597.36         15.7928
   597.50         15.7791
   597.64         15.7654
   597.78         15.7516
   597.92         15.7378
   598.06         15.7239
   598.20         15.7100
   598.34         15.6960
   598.48         15.6817
   598.62         15.6654
   598.76         15.6459
   598.90         15.6220
   599.04         15.5933
   599.18         15.5587
   599.32         15.5176
   599.46         15.4710
   599.60         15.4217
   599.74         15.3739
   599.88         15.3318
   600.02         15.2989
   600.16         15.2776
   600.30         15.2689
   600.44         15.2723
   600.58         15.2847
   600.72         15.3011
   600.86         15.3164
   601.00         15.3262
   601.14         15.3266
   601.28         15.3146
   601.42         15.2900
   601.56         15.2548
   601.70         15.2121
   601.84         15.1655
   601.98         15.1195
   602.12         15.0796
   602.26         15.0502
   602.40         15.0336
   602.54         15.0297
   602.68         15.0355
   602.82         15.0443
   602.96         15.0481
   603.10         15.0401
   603.24         15.0164
   603.38         14.9764
   603.52         14.9242
   603.66         14.8655
   603.80         14.8078
   603.94         14.7607
   604.08         14.7331
   604.22         14.7316
   604.36         14.7600
   604.50         14.8191
   604.64         14.9072
   604.78         15.0205
   604.92         15.1515
   605.06         15.2901
   605.20         15.4250
   605.34         15.5461
   605.48         15.6475
   605.62         15.7274
   605.76         15.7874
   605.90         15.8298
   606.04         15.8563
   606.18         15.8683
   606.32         15.8666
   606.46         15.8514
   606.60         15.8230
   606.74         15.7813
   606.88         15.7285
   607.02         15.6677
   607.16         15.6017
   607.30         15.5331
   607.44         15.4655
   607.58         15.4031
   607.72         15.3494
   607.86         15.3086
   608.00         15.2837
   608.14         15.2752
   608.28         15.2814
   608.42         15.2991
   608.56         15.3243
   608.70         15.3511
   608.84         15.3735
   608.98         15.3858
   609.12         15.3837
   609.26         15.3654
   609.40         15.3328
   609.54         15.2898
   609.68         15.2412
   609.82         15.1929
   609.96         15.1517
   610.10         15.1226
   610.24         15.1079
   610.38         15.1078
   610.52         15.1218
   610.66         15.1468
   610.80         15.1770
   610.94         15.2049
   611.08         15.2225
   611.22         15.2233
   611.36         15.2044
   611.50         15.1671
   611.64         15.1164
   611.78         15.0599
   611.92         15.0065
   612.06         14.9633
   612.20         14.9335
   612.34         14.9159
   612.48         14.9072
   612.62         14.9024
   612.76         14.8950
   612.90         14.8792
   613.04         14.8508
   613.18         14.8078
   613.32         14.7496
   613.46         14.6777
   613.60         14.5972
   613.74         14.5167
   613.88         14.4466
   614.02         14.3974
   614.16         14.3757
   614.30         14.3830
   614.44         14.4166
   614.58         14.4694
   614.72         14.5326
   614.86         14.5969
   615.00         14.6535
   615.14         14.6950
   615.28         14.7167
   615.42         14.7167
   615.56         14.6958
   615.70         14.6574
   615.84         14.6057
   615.98         14.5450
   616.12         14.4809
   616.26         14.4207
   616.40         14.3724
   616.54         14.3418
   616.68         14.3309
   616.82         14.3382
   616.96         14.3614
   617.10         14.3980
   617.24         14.4436
   617.38         14.4927
   617.52         14.5390
   617.66         14.5764
   617.80         14.5994
   617.94         14.6051
   618.08         14.5934
   618.22         14.5680
   618.36         14.5340
   618.50         14.4974
   618.64         14.4644
   618.78         14.4405
   618.92         14.4298
   619.06         14.4337
   619.20         14.4498
   619.34         14.4744
   619.48         14.5033
   619.62         14.5316
   619.76         14.5537
   619.90         14.5647
   620.04         14.5620
   620.18         14.5450
   620.32         14.5146
   620.46         14.4741
   620.60         14.4288
   620.74         14.3851
   620.88         14.3468
   621.02         14.3147
   621.16         14.2879
   621.30         14.2669
   621.44         14.2521
   621.58         14.2433
   621.72         14.2396
   621.86         14.2393
   622.00         14.2401
   622.14         14.2405
   622.28         14.2411
   622.42         14.2438
   622.56         14.2495
   622.70         14.2580
   622.84         14.2694
   622.98         14.2837
   623.12         14.3014
   623.26         14.3208
   623.40         14.3383
   623.54         14.3500
   623.68         14.3539
   623.82         14.3498
   623.96         14.3378
   624.10         14.3174
   624.24         14.2888
   624.38         14.2540
   624.52         14.2173
   624.66         14.1847
   624.80         14.1635
   624.94         14.1584
   625.08         14.1695
   625.22         14.1933
   625.36         14.2261
   625.50         14.2635
   625.64         14.3016
   625.78         14.3366
   625.92         14.3647
   626.06         14.3829
   626.20         14.3895
   626.34         14.3826
   626.48         14.3587
   626.62         14.3140
   626.76         14.2470
   626.90         14.1597
   627.04         14.0576
   627.18         13.9475
   627.32         13.8367
   627.46         13.7316
   627.60         13.6371
   627.74         13.5575
   627.88         13.4974
   628.02         13.4604
   628.16         13.4490
   628.30         13.4635
   628.44         13.5016
   628.58         13.5575
   628.72         13.6241
   628.86         13.6927
   629.00         13.7536
   629.14         13.7987
   629.28         13.8254
   629.42         13.8365
   629.56         13.8364
   629.70         13.8293
   629.84         13.8176
   629.98         13.8036
   630.12         13.7878
   630.26         13.7690
   630.40         13.7464
   630.54         13.7203
   630.68         13.6916
   630.82         13.6615
   630.96         13.6307
   631.10         13.5997
   631.24         13.5695
   631.38         13.5415
   631.52         13.5171
   631.66         13.4988
   631.80         13.4901
   631.94         13.4932
   632.08         13.5072
   632.22         13.5275
   632.36         13.5492
   632.50         13.5680
   632.64         13.5819
   632.78         13.5901
   632.92         13.5931
   633.06         13.5927
   633.20         13.5892
   633.34         13.5818
   633.48         13.5705
   633.62         13.5570
   633.76         13.5442
   633.90         13.5358
   634.04         13.5344
   634.18         13.5420
   634.32         13.5585
   634.46         13.5821
   634.60         13.6086
   634.74         13.6328
   634.88         13.6508
   635.02         13.6610
   635.16         13.6633
   635.30         13.6583
   635.44         13.6458
   635.58         13.6257
   635.72         13.5985
   635.86         13.5655
   636.00         13.5302
   636.14         13.4974
   636.28         13.4713
   636.42         13.4539
   636.56         13.4444
   636.70         13.4408
   636.84         13.4404
   636.98         13.4404
   637.12         13.4382
   637.26         13.4328
   637.40         13.4262
   637.54         13.4212
   637.68         13.4189
   637.82         13.4178
   637.96         13.4148
   638.10         13.4068
   638.24         13.3912
   638.38         13.3665
   638.52         13.3318
   638.66         13.2875
   638.80         13.2359
   638.94         13.1813
   639.08         13.1278
   639.22         13.0798
   639.36         13.0415
   639.50         13.0172
   639.64         13.0100
   639.78         13.0218
   639.92         13.0514
   640.06         13.0947
   640.20         13.1456
   640.34         13.1977
   640.48         13.2451
   640.62         13.2824
   640.76         13.3058
   640.90         13.3136
   641.04         13.3062
   641.18         13.2865
   641.32         13.2582
   641.46         13.2265
   641.60         13.1958
   641.74         13.1688
   641.88         13.1472
   642.02         13.1316
   642.16         13.1227
   642.30         13.1200
   642.44         13.1209
   642.58         13.1228
   642.72         13.1236
   642.86         13.1223
   643.00         13.1188
   643.14         13.1127
   643.28         13.1044
   643.42         13.0950
   643.56         13.0861
   643.70         13.0780
   643.84         13.0691
   643.98         13.0578
   644.12         13.0434
   644.26         13.0244
   644.40         12.9989
   644.54         12.9670
   644.68         12.9309
   644.82         12.8942
   644.96         12.8596
   645.10         12.8285
   645.24         12.8027
   645.38         12.7846
   645.52         12.7764
   645.66         12.7785
   645.80         12.7895
   645.94         12.8062
   646.08         12.8239
   646.22         12.8391
   646.36         12.8495
   646.50         12.8548
   646.64         12.8556
   646.78         12.8532
   646.92         12.8486
   647.06         12.8442
   647.20         12.8428
   647.34         12.8461
   647.48         12.8539
   647.62         12.8640
   647.76         12.8738
   647.90         12.8813
   648.04         12.8837
   648.18         12.8770
   648.32         12.8562
   648.46         12.8180
   648.60         12.7626
   648.74         12.6950
   648.88         12.6228
   649.02         12.5532
   649.16         12.4922
   649.30         12.4446
   649.44         12.4147
   649.58         12.4048
   649.72         12.4152
   649.86         12.4434
   650.00         12.4850
   650.14         12.5340
   650.28         12.5841
   650.42         12.6296
   650.56         12.6664
   650.70         12.6923
   650.84         12.7076
   650.98         12.7152
   651.12         12.7201
   651.26         12.7274
   651.40         12.7404
   651.54         12.7596
   651.68         12.7832
   651.82         12.8091
   651.96         12.8352
   652.10         12.8599
   652.24         12.8809
   652.38         12.8950
   652.52         12.9001
   652.66         12.8965
   652.80         12.8855
   652.94         12.8691
   653.08         12.8487
   653.22         12.8240
   653.36         12.7940
   653.50         12.7564
   653.64         12.7076
   653.78         12.6431
   653.92         12.5586
   654.06         12.4503
   654.20         12.3165
   654.34         12.1578
   654.48         11.9760
   654.62         11.7718
   654.76         11.5442
   654.90         11.2891
   655.04         11.0027
   655.18         10.6865
   655.32         10.3493
   655.46         10.0060
   655.60         9.6756
   655.74         9.3783
   655.88         9.1344
   656.02         8.9628
   656.16         8.8773
   656.30         8.8845
   656.44         8.9831
   656.58         9.1651
   656.72         9.4172
   656.86         9.7221
   657.00         10.0591
   657.14         10.4049
   657.28         10.7371
   657.42         11.0363
   657.56         11.2891
   657.70         11.4918
   657.84         11.6486
   657.98         11.7672
   658.12         11.8549
   658.26         11.9173
   658.40         11.9597
   658.54         11.9868
   658.68         12.0032
   658.82         12.0133
   658.96         12.0205
   659.10         12.0276
   659.24         12.0376
   659.38         12.0534
   659.52         12.0767
   659.66         12.1069
   659.80         12.1419
   659.94         12.1784
   660.08         12.2133
   660.22         12.2450
   660.36         12.2740
   660.50         12.3008
   660.64         12.3253
   660.78         12.3470
   660.92         12.3660
   661.06         12.3824
   661.20         12.3956
   661.34         12.4053
   661.48         12.4114
   661.62         12.4135
   661.76         12.4117
   661.90         12.4069
   662.04         12.4005
   662.18         12.3939
   662.32         12.3873
   662.46         12.3802
   662.60         12.3719
   662.74         12.3624
   662.88         12.3525
   663.02         12.3431
   663.16         12.3340
   663.30         12.3260
   663.44         12.3204
   663.58         12.3185
   663.72         12.3206
   663.86         12.3268
   664.00         12.3372
   664.14         12.3511
   664.28         12.3666
   664.42         12.3812
   664.56         12.3922
   664.70         12.3965
   664.84         12.3906
   664.98         12.3714
   665.12         12.3375
   665.26         12.2890
   665.40         12.2277
   665.54         12.1564
   665.68         12.0771
   665.82         11.9923
   665.96         11.9062
   666.10         11.8243
   666.24         11.7519
   666.38         11.6925
   666.52         11.6469
   666.66         11.6138
   666.80         11.5909
   666.94         11.5769
   667.08         11.5713
   667.22         11.5726
   667.36         11.5793
   667.50         11.5911
   667.64         11.6086
   667.78         11.6312
   667.92         11.6584
   668.06         11.6895
   668.20         11.7243
   668.34         11.7627
   668.48         11.8046
   668.62         11.8496
   668.76         11.8952
   668.90         11.9376
   669.04         11.9725
   669.18         11.9970
   669.32         12.0099
   669.46         12.0111
   669.60         12.0019
   669.74         11.9839
   669.88         11.9588
   670.02         11.9284
   670.16         11.8946
   670.30         11.8588
   670.44         11.8220
   670.58         11.7855
   670.72         11.7500
   670.86         11.7172
   671.00         11.6891
   671.14         11.6675
   671.28         11.6527
   671.42         11.6446
   671.56         11.6432
   671.70         11.6473
   671.84         11.6543
   671.98         11.6614
   672.12         11.6672
   672.26         11.6705
   672.40         11.6697
   672.54         11.6632
   672.68         11.6502
   672.82         11.6312
   672.96         11.6074
   673.10         11.5803
   673.24         11.5518
   673.38         11.5245
   673.52         11.5013
   673.66         11.4840
   673.80         11.4727
   673.94         11.4670
   674.08         11.4669
   674.22         11.4721
   674.36         11.4816
   674.50         11.4942
   674.64         11.5092
   674.78         11.5260
   674.92         11.5441
   675.06         11.5627
   675.20         11.5803
   675.34         11.5949
   675.48         11.6053
   675.62         11.6101
   675.76         11.6089
   675.90         11.6008
   676.04         11.5851
   676.18         11.5620
   676.32         11.5337
   676.46         11.5034
   676.60         11.4738
   676.74         11.4480
   676.88         11.4285
   677.02         11.4174
   677.16         11.4146
   677.30         11.4188
   677.44         11.4279
   677.58         11.4395
   677.72         11.4513
   677.86         11.4615
   678.00         11.4703
   678.14         11.4784
   678.28         11.4860
   678.42         11.4919
   678.56         11.4951
   678.70         11.4954
   678.84         11.4932
   678.98         11.4895
   679.12         11.4840
   679.26         11.4758
   679.40         11.4645
   679.54         11.4506
   679.68         11.4343
   679.82         11.4157
   679.96         11.3960
   680.10         11.3777
   680.24         11.3633
   680.38         11.3542
   680.52         11.3497
   680.66         11.3475
   680.80         11.3434
   680.94         11.3337
   681.08         11.3171
   681.22         11.2946
   681.36         11.2682
   681.50         11.2403
   681.64         11.2140
   681.78         11.1912
   681.92         11.1727
   682.06         11.1586
   682.20         11.1482
   682.34         11.1405
   682.48         11.1348
   682.62         11.1312
   682.76         11.1293
   682.90         11.1276
   683.04         11.1251
   683.18         11.1222
   683.32         11.1198
   683.46         11.1190
   683.60         11.1213
   683.74         11.1281
   683.88         11.1389
   684.02         11.1518
   684.16         11.1650
   684.30         11.1768
   684.44         11.1859
   684.58         11.1911
   684.72         11.1916
   684.86         11.1880
   685.00         11.1819
   685.14         11.1747
   685.28         11.1645
   685.42         11.1450
   685.56         11.1066
   685.70         11.0376
   685.84         10.9274
   685.98         10.7695
   686.12         10.5642
   686.26         10.3180
   686.40         10.0428
   686.54         9.7546
   686.68         9.4722
   686.82         9.2162
   686.96         9.0067
   687.10         8.8597
   687.24         8.7842
   687.38         8.7809
   687.52         8.8438
   687.66         8.9599
   687.80         9.1093
   687.94         9.2690
   688.08         9.4174
   688.22         9.5403
   688.36         9.6312
   688.50         9.6897
   688.64         9.7193
   688.78         9.7255
   688.92         9.7154
   689.06         9.6971
   689.20         9.6776
   689.34         9.6624
   689.48         9.6550
   689.62         9.6569
   689.76         9.6671
   689.90         9.6832
   690.04         9.7024
   690.18         9.7228
   690.32         9.7440
   690.46         9.7674
   690.60         9.7959
   690.74         9.8326
   690.88         9.8796
   691.02         9.9357
   691.16         9.9976
   691.30         10.0618
   691.44         10.1251
   691.58         10.1849
   691.72         10.2382
   691.86         10.2816
   692.00         10.3138
   692.14         10.3352
   692.28         10.3470
   692.42         10.3512
   692.56         10.3508
   692.70         10.3491
   692.84         10.3486
   692.98         10.3499
   693.12         10.3516
   693.26         10.3505
   693.40         10.3432
   693.54         10.3266
   693.68         10.2989
   693.82         10.2616
   693.96         10.2183
   694.10         10.1741
   694.24         10.1339
   694.38         10.1011
   694.52         10.0787
   694.66         10.0697
   694.80         10.0762
   694.94         10.0984
   695.08         10.1348
   695.22         10.1829
   695.36         10.2386
   695.50         10.2977
   695.64         10.3573
   695.78         10.4158
   695.92         10.4725
   696.06         10.5277
   696.20         10.5815
   696.34         10.6342
   696.48         10.6838
   696.62         10.7263
   696.76         10.7572
   696.90         10.7735
   697.04         10.7739
   697.18         10.7589
   697.32         10.7305
   697.46         10.6911
   697.60         10.6431
   697.74         10.5899
   697.88         10.5363
   698.02         10.4874
   698.16         10.4480
   698.30         10.4211
   698.44         10.4082
   698.58         10.4087
   698.72         10.4201
   698.86         10.4381
   699.00         10.4578
   699.14         10.4742
   699.28         10.4835
   699.42         10.4843
   699.56         10.4765
   699.70         10.4608
   699.84         10.4387
   699.98         10.4116
   700.12         10.3791
   700.26         10.3410
   700.40         10.2984
   700.54         10.2538
   700.68         10.2094
   700.82         10.1674
   700.96         10.1287
   701.10         10.0935
   701.24         10.0612
   701.38         10.0320
   701.52         10.0066
   701.66         9.9856
   701.80         9.9704
   701.94         9.9627
   702.08         9.9640
   702.22         9.9746
   702.36         9.9942
   702.50         10.0209
   702.64         10.0503
   702.78         10.0792
   702.92         10.1071
   703.06         10.1341
   703.20         10.1597
   703.34         10.1816
   703.48         10.1968
   703.62         10.2033
   703.76         10.2006
   703.90         10.1910
   704.04         10.1780
   704.18         10.1656
   704.32         10.1570
   704.46         10.1547
   704.60         10.1592
   704.74         10.1708
   704.88         10.1890
   705.02         10.2125
   705.16         10.2391
   705.30         10.2669
   705.44         10.2945
   705.58         10.3198
   705.72         10.3403
   705.86         10.3542
   706.00         10.3610
   706.14         10.3613
   706.28         10.3557
   706.42         10.3436
   706.56         10.3241
   706.70         10.2968
   706.84         10.2627
   706.98         10.2261
   707.12         10.1913
   707.26         10.1613
   707.40         10.1363
   707.54         10.1136
   707.68         10.0894
   707.82         10.0610
   707.96         10.0271
   708.10         9.9870
   708.24         9.9415
   708.38         9.8935
   708.52         9.8476
   708.66         9.8082
   708.80         9.7783
   708.94         9.7591
   709.08         9.7515
   709.22         9.7569
   709.36         9.7752
   709.50         9.8045
   709.64         9.8411
   709.78         9.8787
   709.92         9.9107
   710.06         9.9332
   710.20         9.9476
   710.34         9.9593
   710.48         9.9748
   710.62         9.9976
   710.76         10.0283
   710.90         10.0664
   711.04         10.1103
   711.18         10.1576
   711.32         10.2058
   711.46         10.2526
   711.60         10.2965
   711.74         10.3353
   711.88         10.3667
   712.02         10.3888
   712.16         10.4017
   712.30         10.4071
   712.44         10.4084
   712.58         10.4098
   712.72         10.4152
   712.86         10.4254
   713.00         10.4372
   713.14         10.4463
   713.28         10.4488
   713.42         10.4431
   713.56         10.4299
   713.70         10.4117
   713.84         10.3914
   713.98         10.3711
   714.12         10.3515
   714.26         10.3324
   714.40         10.3144
   714.54         10.2995
   714.68         10.2906
   714.82         10.2900
   714.96         10.2975
   715.10         10.3109
   715.24         10.3253
   715.38         10.3348
   715.52         10.3340
   715.66         10.3195
   715.80         10.2901
   715.94         10.2447
   716.08         10.1823
   716.22         10.1033
   716.36         10.0100
   716.50         9.9060
   716.64         9.7964
   716.78         9.6882
   716.92         9.5879
   717.06         9.5003
   717.20         9.4268
   717.34         9.3667
   717.48         9.3189
   717.62         9.2828
   717.76         9.2578
   717.90         9.2426
   718.04         9.2348
   718.18         9.2313
   718.32         9.2300
   718.46         9.2300
   718.60         9.2303
   718.74         9.2302
   718.88         9.2292
   719.02         9.2271
   719.16         9.2235
   719.30         9.2184
   719.44         9.2116
   719.58         9.2031
   719.72         9.1941
   719.86         9.1874
   720.00         9.1876
   720.14         9.1997
   720.28         9.2272
   720.42         9.2711
   720.56         9.3304
   720.70         9.4047
   720.84         9.4936
   720.98         9.5952
   721.12         9.7046
   721.26         9.8161
   721.40         9.9234
   721.54         10.0208
   721.68         10.1037
   721.82         10.1683
   721.96         10.2111
   722.10         10.2286
   722.24         10.2186
   722.38         10.1837
   722.52         10.1301
   722.66         10.0647
   722.80         9.9941
   722.94         9.9244
   723.08         9.8597
   723.22         9.8023
   723.36         9.7544
   723.50         9.7171
   723.64         9.6900
   723.78         9.6707
   723.92         9.6547
   724.06         9.6359
   724.20         9.6089
   724.34         9.5709
   724.48         9.5204
   724.62         9.4582
   724.76         9.3885
   724.90         9.3186
   725.04         9.2559
   725.18         9.2039
   725.32         9.1632
   725.46         9.1348
   725.60         9.1203
   725.74         9.1187
   725.88         9.1280
   726.02         9.1457
   726.16         9.1673
   726.30         9.1859
   726.44         9.1939
   726.58         9.1882
   726.72         9.1698
   726.86         9.1419
   727.00         9.1078
   727.14         9.0713
   727.28         9.0375
   727.42         9.0109
   727.56         8.9922
   727.70         8.9793
   727.84         8.9694
   727.98         8.9592
   728.12         8.9452
   728.26         8.9233
   728.40         8.8921
   728.54         8.8544
   728.68         8.8155
   728.82         8.7808
   728.96         8.7545
   729.10         8.7397
   729.24         8.7386
   729.38         8.7511
   729.52         8.7745
   729.66         8.8036
   729.80         8.8331
   729.94         8.8577
   730.08         8.8720
   730.22         8.8729
   730.36         8.8617
   730.50         8.8420
   730.64         8.8186
   730.78         8.7969
   730.92         8.7824
   731.06         8.7794
   731.20         8.7894
   731.34         8.8106
   731.48         8.8388
   731.62         8.8696
   731.76         8.8987
   731.90         8.9226
   732.04         8.9387
   732.18         8.9453
   732.32         8.9426
   732.46         8.9333
   732.60         8.9210
   732.74         8.9095
   732.88         8.9023
   733.02         8.9010
   733.16         8.9057
   733.30         8.9168
   733.44         8.9339
   733.58         8.9559
   733.72         8.9803
   733.86         9.0029
   734.00         9.0184
   734.14         9.0226
   734.28         9.0141
   734.42         8.9949
   734.56         8.9687
   734.70         8.9397
   734.84         8.9110
   734.98         8.8846
   735.12         8.8612
   735.26         8.8407
   735.40         8.8221
   735.54         8.8043
   735.68         8.7857
   735.82         8.7653
   735.96         8.7422
   736.10         8.7153
   736.24         8.6845
   736.38         8.6499
   736.52         8.6125
   736.66         8.5738
   736.80         8.5358
   736.94         8.5007
   737.08         8.4696
   737.22         8.4413
   737.36         8.4136
   737.50         8.3849
   737.64         8.3556
   737.78         8.3281
   737.92         8.3067
   738.06         8.2962
   738.20         8.2989
   738.34         8.3149
   738.48         8.3423
   738.62         8.3780
   738.76         8.4172
   738.90         8.4538
   739.04         8.4806
   739.18         8.4910
   739.32         8.4806
   739.46         8.4480
   739.60         8.3945
   739.74         8.3222
   739.88         8.2355
   740.02         8.1401
   740.16         8.0439
   740.30         7.9564
   740.44         7.8866
   740.58         7.8409
   740.72         7.8228
   740.86         7.8338
   741.00         7.8738
   741.14         7.9392
   741.28         8.0230
   741.42         8.1152
   741.56         8.2053
   741.70         8.2845
   741.84         8.3459
   741.98         8.3854
   742.12         8.4022
   742.26         8.3992
   742.40         8.3827
   742.54         8.3611
   742.68         8.3418
   742.82         8.3306
   742.96         8.3306
   743.10         8.3418
   743.24         8.3611
   743.38         8.3827
   743.52         8.3992
   743.66         8.4022
   743.80         8.3854
   743.94         8.3459
   744.08         8.2845
   744.22         8.2053
