# File HD249384
# Wavelength [nm]    Normalized Amplitude
   349.70         19.7124
   349.84         19.6743
   349.98         19.7495
   350.12         19.9077
   350.26         20.1167
   350.40         20.3681
   350.54         20.6653
   350.68         20.9878
   350.82         21.2913
   350.96         21.5178
   351.10         21.6036
   351.24         21.5178
   351.38         21.2913
   351.52         20.9878
   351.66         20.6653
   351.80         20.3681
   351.94         20.1167
   352.08         19.9077
   352.22         19.7495
   352.36         19.6743
   352.50         19.7124
   352.64         19.8789
   352.78         20.1827
   352.92         20.6357
   353.06         21.2274
   353.20         21.8939
   353.34         22.5420
   353.48         23.0866
   353.62         23.4643
   353.76         23.6496
   353.90         23.6699
   354.04         23.5881
   354.18         23.4488
   354.32         23.2460
   354.46         22.9539
   354.60         22.5676
   354.74         22.1146
   354.88         21.6399
   355.02         21.1828
   355.16         20.7677
   355.30         20.3986
   355.44         20.0501
   355.58         19.6785
   355.72         19.2504
   355.86         18.7674
   356.00         18.2662
   356.14         17.8004
   356.28         17.4189
   356.42         17.1446
   356.56         16.9695
   356.70         16.8485
   356.84         16.7085
   356.98         16.4900
   357.12         16.1722
   357.26         15.7672
   357.40         15.2984
   357.54         14.7866
   357.68         14.2580
   357.82         13.7522
   357.96         13.3150
   358.10         13.0020
   358.24         12.8928
   358.38         13.0772
   358.52         13.6219
   358.66         14.5459
   358.80         15.8070
   358.94         17.3039
   359.08         18.9083
   359.22         20.5003
   359.36         21.9653
   359.50         23.2045
   359.64         24.1438
   359.78         24.7262
   359.92         24.9276
   360.06         24.7709
   360.20         24.3238
   360.34         23.6794
   360.48         22.9360
   360.62         22.1903
   360.76         21.5383
   360.90         21.0650
   361.04         20.8311
   361.18         20.8793
   361.32         21.2221
   361.46         21.8291
   361.60         22.6504
   361.74         23.6295
   361.88         24.6868
   362.02         25.7204
   362.16         26.6343
   362.30         27.3603
   362.44         27.8710
   362.58         28.1802
   362.72         28.3271
   362.86         28.3490
   363.00         28.2742
   363.14         28.1374
   363.28         27.9862
   363.42         27.8804
   363.56         27.8796
   363.70         28.0020
   363.84         28.2078
   363.98         28.4319
   364.12         28.6301
   364.26         28.7908
   364.40         28.9135
   364.54         29.0040
   364.68         29.0941
   364.82         29.2267
   364.96         29.4353
   365.10         29.7489
   365.24         30.1870
   365.38         30.7481
   365.52         31.4013
   365.66         32.0962
   365.80         32.7789
   365.94         33.4019
   366.08         33.9383
   366.22         34.3803
   366.36         34.7238
   366.50         34.9778
   366.64         35.1753
   366.78         35.3372
   366.92         35.4487
   367.06         35.4791
   367.20         35.4019
   367.34         35.1982
   367.48         34.8500
   367.62         34.3576
   367.76         33.7568
   367.90         33.0995
   368.04         32.4239
   368.18         31.7541
   368.32         31.1248
   368.46         30.5863
   368.60         30.1904
   368.74         29.9765
   368.88         29.9591
   369.02         30.1096
   369.16         30.3640
   369.30         30.6553
   369.44         30.9243
   369.58         31.1218
   369.72         31.2157
   369.86         31.1964
   370.00         31.0911
   370.14         30.9669
   370.28         30.9091
   370.42         30.9814
   370.56         31.1911
   370.70         31.4858
   370.84         31.7926
   370.98         32.0543
   371.12         32.2337
   371.26         32.3177
   371.40         32.3124
   371.54         32.2205
   371.68         32.0248
   371.82         31.7092
   371.96         31.2801
   372.10         30.7543
   372.24         30.1396
   372.38         29.4476
   372.52         28.7105
   372.66         27.9719
   372.80         27.2656
   372.94         26.5985
   373.08         25.9560
   373.22         25.3187
   373.36         24.6829
   373.50         24.0804
   373.64         23.5634
   373.78         23.1691
   373.92         22.9231
   374.06         22.8556
   374.20         22.9903
   374.34         23.3296
   374.48         23.8438
   374.62         24.4761
   374.76         25.1646
   374.90         25.8575
   375.04         26.5244
   375.18         27.1433
   375.32         27.6800
   375.46         28.0907
   375.60         28.3291
   375.74         28.3686
   375.88         28.2296
   376.02         27.9901
   376.16         27.7565
   376.30         27.6268
   376.44         27.6790
   376.58         27.9643
   376.72         28.4912
   376.86         29.2175
   377.00         30.0650
   377.14         30.9487
   377.28         31.8035
   377.42         32.5699
   377.56         33.1753
   377.70         33.5530
   377.84         33.6665
   377.98         33.5110
   378.12         33.1031
   378.26         32.4716
   378.40         31.6624
   378.54         30.7324
   378.68         29.7319
   378.82         28.7065
   378.96         27.7196
   379.10         26.8562
   379.24         26.1949
   379.38         25.7816
   379.52         25.6268
   379.66         25.7086
   379.80         25.9805
   379.94         26.3764
   380.08         26.8126
   380.22         27.2079
   380.36         27.4966
   380.50         27.6220
   380.64         27.5291
   380.78         27.1777
   380.92         26.5583
   381.06         25.6956
   381.20         24.6329
   381.34         23.4295
   381.48         22.1672
   381.62         20.9302
   381.76         19.7789
   381.90         18.7402
   382.04         17.8245
   382.18         17.0514
   382.32         16.4485
   382.46         16.0301
   382.60         15.7806
   382.74         15.6651
   382.88         15.6545
   383.02         15.7365
   383.16         15.9119
   383.30         16.1850
   383.44         16.5483
   383.58         16.9740
   383.72         17.4225
   383.86         17.8571
   384.00         18.2537
   384.14         18.5927
   384.28         18.8486
   384.42         18.9941
   384.56         19.0118
   384.70         18.8969
   384.84         18.6630
   384.98         18.3439
   385.12         17.9816
   385.26         17.6174
   385.40         17.2946
   385.54         17.0543
   385.68         16.9205
   385.82         16.8968
   385.96         16.9752
   386.10         17.1458
   386.24         17.4076
   386.38         17.7649
   386.52         18.2076
   386.66         18.7042
   386.80         19.2124
   386.94         19.6970
   387.08         20.1435
   387.22         20.5527
   387.36         20.9361
   387.50         21.3197
   387.64         21.7374
   387.78         22.2219
   387.92         22.8049
   388.06         23.5158
   388.20         24.3730
   388.34         25.3799
   388.48         26.5230
   388.62         27.7648
   388.76         29.0455
   388.90         30.2914
   389.04         31.4248
   389.18         32.3758
   389.32         33.0998
   389.46         33.5854
   389.60         33.8483
   389.74         33.9255
   389.88         33.8679
   390.02         33.7351
   390.16         33.5876
   390.30         33.4703
   390.44         33.4049
   390.58         33.3897
   390.72         33.3979
   390.86         33.3819
   391.00         33.2919
   391.14         33.0896
   391.28         32.7490
   391.42         32.2554
   391.56         31.5968
   391.70         30.7560
   391.84         29.7141
   391.98         28.4616
   392.12         27.0075
   392.26         25.3860
   392.40         23.6606
   392.54         21.9152
   392.68         20.2386
   392.82         18.7134
   392.96         17.4136
   393.10         16.4078
   393.24         15.7642
   393.38         15.5392
   393.52         15.7631
   393.66         16.4351
   393.80         17.5194
   393.94         18.9499
   394.08         20.6414
   394.22         22.4917
   394.36         24.3905
   394.50         26.2318
   394.64         27.9266
   394.78         29.4022
   394.92         30.5954
   395.06         31.4486
   395.20         31.9034
   395.34         31.9048
   395.48         31.4214
   395.62         30.4620
   395.76         29.0855
   395.90         27.3967
   396.04         25.5319
   396.18         23.6495
   396.32         21.9238
   396.46         20.5321
   396.60         19.6275
   396.74         19.3144
   396.88         19.6396
   397.02         20.5962
   397.16         22.1321
   397.30         24.1595
   397.44         26.5585
   397.58         29.1904
   397.72         31.9128
   397.86         34.5896
   398.00         37.1099
   398.14         39.3983
   398.28         41.4128
   398.42         43.1402
   398.56         44.5945
   398.70         45.8139
   398.84         46.8521
   398.98         47.7557
   399.12         48.5442
   399.26         49.2141
   399.40         49.7630
   399.54         50.2089
   399.68         50.5851
   399.82         50.9310
   399.96         51.2895
   400.10         51.6964
   400.24         52.1757
   400.38         52.7377
   400.52         53.3779
   400.66         54.0822
   400.80         54.8271
   400.94         55.5781
   401.08         56.2970
   401.22         56.9567
   401.36         57.5451
   401.50         58.0554
   401.64         58.4682
   401.78         58.7527
   401.92         58.8871
   402.06         58.8710
   402.20         58.7286
   402.34         58.4987
   402.48         58.2252
   402.62         57.9496
   402.76         57.7006
   402.90         57.4884
   403.04         57.2949
   403.18         57.0747
   403.32         56.7829
   403.46         56.4078
   403.60         55.9783
   403.74         55.5468
   403.88         55.1618
   404.02         54.8473
   404.16         54.5929
   404.30         54.3633
   404.44         54.1246
   404.58         53.8715
   404.72         53.6275
   404.86         53.4165
   405.00         53.2304
   405.14         53.0294
   405.28         52.7733
   405.42         52.4457
   405.56         52.0601
   405.70         51.6497
   405.84         51.2619
   405.98         50.9662
   406.12         50.8330
   406.26         50.8804
   406.40         51.0583
   406.54         51.2953
   406.68         51.5476
   406.82         51.8083
   406.96         52.0934
   407.10         52.4257
   407.24         52.8228
   407.38         53.2911
   407.52         53.8334
   407.66         54.4589
   407.80         55.1858
   407.94         56.0243
   408.08         56.9558
   408.22         57.9288
   408.36         58.8647
   408.50         59.6814
   408.64         60.3093
   408.78         60.6860
   408.92         60.7679
   409.06         60.5664
   409.20         60.1520
   409.34         59.6147
   409.48         59.0326
   409.62         58.4631
   409.76         57.9453
   409.90         57.5098
   410.04         57.1910
   410.18         57.0256
   410.32         57.0285
   410.46         57.1732
   410.60         57.3993
   410.74         57.6372
   410.88         57.8278
   411.02         57.9285
   411.16         57.9149
   411.30         57.7742
   411.44         57.5031
   411.58         57.1186
   411.72         56.6497
   411.86         56.1129
   412.00         55.5102
   412.14         54.8552
   412.28         54.1795
   412.42         53.5242
   412.56         52.9385
   412.70         52.4734
   412.84         52.1552
   412.98         51.9681
   413.12         51.8711
   413.26         51.8329
   413.40         51.8460
   413.54         51.9062
   413.68         51.9947
   413.82         52.0823
   413.96         52.1392
   414.10         52.1410
   414.24         52.0717
   414.38         51.9228
   414.52         51.6971
   414.66         51.4232
   414.80         51.1518
   414.94         50.9309
   415.08         50.7898
   415.22         50.7422
   415.36         50.7865
   415.50         50.9093
   415.64         51.1002
   415.78         51.3568
   415.92         51.6682
   416.06         51.9961
   416.20         52.2792
   416.34         52.4569
   416.48         52.4841
   416.62         52.3326
   416.76         51.9947
   416.90         51.4856
   417.04         50.8519
   417.18         50.1736
   417.32         49.5427
   417.46         49.0322
   417.60         48.6917
   417.74         48.5554
   417.88         48.6382
   418.02         48.9319
   418.16         49.3971
   418.30         49.9603
   418.44         50.5235
   418.58         50.9934
   418.72         51.3057
   418.86         51.4313
   419.00         51.3719
   419.14         51.1557
   419.28         50.8391
   419.42         50.5013
   419.56         50.2303
   419.70         50.1091
   419.84         50.1995
   419.98         50.5239
   420.12         51.0639
   420.26         51.7763
   420.40         52.6117
   420.54         53.5294
   420.68         54.5014
   420.82         55.5034
   420.96         56.5040
   421.10         57.4588
   421.24         58.3042
   421.38         58.9578
   421.52         59.3534
   421.66         59.4828
   421.80         59.3970
   421.94         59.1760
   422.08         58.8928
   422.22         58.5967
   422.36         58.3168
   422.50         58.0711
   422.64         57.8766
   422.78         57.7592
   422.92         57.7617
   423.06         57.9375
   423.20         58.3228
   423.34         58.9052
   423.48         59.6137
   423.62         60.3395
   423.76         60.9802
   423.90         61.4713
   424.04         61.7993
   424.18         62.0015
   424.32         62.1312
   424.46         62.2141
   424.60         62.2338
   424.74         62.1542
   424.88         61.9647
   425.02         61.7006
   425.16         61.4314
   425.30         61.2407
   425.44         61.1994
   425.58         61.3367
   425.72         61.6253
   425.86         61.9864
   426.00         62.3121
   426.14         62.5031
   426.28         62.5089
   426.42         62.3390
   426.56         62.0386
   426.70         61.6594
   426.84         61.2456
   426.98         60.8352
   427.12         60.4622
   427.26         60.1518
   427.40         59.9228
   427.54         59.7851
   427.68         59.7219
   427.82         59.6873
   427.96         59.6281
   428.10         59.4965
   428.24         59.2541
   428.38         58.8770
   428.52         58.3512
   428.66         57.6719
   428.80         56.8525
   428.94         55.9188
   429.08         54.8906
   429.22         53.7721
   429.36         52.5592
   429.50         51.2585
   429.64         49.8969
   429.78         48.5177
   429.92         47.1850
   430.06         45.9965
   430.20         45.0808
   430.34         44.5838
   430.48         44.6520
   430.62         45.3942
   430.76         46.8371
   430.90         48.9112
   431.04         51.4575
   431.18         54.2510
   431.32         57.0515
   431.46         59.6612
   431.60         61.9490
   431.74         63.8369
   431.88         65.2877
   432.02         66.3085
   432.16         66.9623
   432.30         67.3557
   432.44         67.6042
   432.58         67.7948
   432.72         67.9706
   432.86         68.1468
   433.00         68.3320
   433.14         68.5274
   433.28         68.7161
   433.42         68.8757
   433.56         68.9986
   433.70         69.0953
   433.84         69.1850
   433.98         69.2973
   434.12         69.4824
   434.26         69.7843
   434.40         70.2098
   434.54         70.7334
   434.68         71.3171
   434.82         71.9242
   434.96         72.5186
   435.10         73.0752
   435.24         73.5957
   435.38         74.1073
   435.52         74.6436
   435.66         75.2202
   435.80         75.8224
   435.94         76.4064
   436.08         76.9122
   436.22         77.2748
   436.36         77.4433
   436.50         77.4000
   436.64         77.1692
   436.78         76.7980
   436.92         76.3111
   437.06         75.6919
   437.20         74.9054
   437.34         73.9371
   437.48         72.8068
   437.62         71.5531
   437.76         70.2160
   437.90         68.8343
   438.04         67.4551
   438.18         66.1428
   438.32         64.9812
   438.46         64.0617
   438.60         63.4575
   438.74         63.2103
   438.88         63.3301
   439.02         63.7881
   439.16         64.4999
   439.30         65.3327
   439.44         66.1416
   439.58         66.8140
   439.72         67.3053
   439.86         67.6483
   440.00         67.9187
   440.14         68.1777
   440.28         68.4528
   440.42         68.7645
   440.56         69.1434
   440.70         69.6182
   440.84         70.1928
   440.98         70.8409
   441.12         71.5145
   441.26         72.1548
   441.40         72.7067
   441.54         73.1265
   441.68         73.3825
   441.82         73.4601
   441.96         73.3728
   442.10         73.1545
   442.24         72.8444
   442.38         72.4873
   442.52         72.1337
   442.66         71.8277
   442.80         71.5903
   442.94         71.4294
   443.08         71.3577
   443.22         71.3850
   443.36         71.5139
   443.50         71.7404
   443.64         72.0578
   443.78         72.4617
   443.92         72.9442
   444.06         73.4802
   444.20         74.0215
   444.34         74.5086
   444.48         74.8848
   444.62         75.1035
   444.76         75.1306
   444.90         74.9565
   445.04         74.6080
   445.18         74.1352
   445.32         73.5890
   445.46         73.0150
   445.60         72.4715
   445.74         72.0370
   445.88         71.7926
   446.02         71.8053
   446.16         72.1208
   446.30         72.7630
   446.44         73.7335
   446.58         74.9975
   446.72         76.4721
   446.86         78.0449
   447.00         79.6083
   447.14         81.0847
   447.28         82.4328
   447.42         83.6319
   447.56         84.6597
   447.70         85.4891
   447.84         86.1004
   447.98         86.4819
   448.12         86.6227
   448.26         86.5200
   448.40         86.2007
   448.54         85.7297
   448.68         85.1895
   448.82         84.6549
   448.96         84.1951
   449.10         83.8796
   449.24         83.7714
   449.38         83.9220
   449.52         84.3726
   449.66         85.1508
   449.80         86.2456
   449.94         87.5771
   450.08         89.0018
   450.22         90.3609
   450.36         91.5276
   450.50         92.4151
   450.64         92.9664
   450.78         93.1631
   450.92         93.0320
   451.06         92.6304
   451.20         92.0190
   451.34         91.2407
   451.48         90.3195
   451.62         89.2829
   451.76         88.1675
   451.90         87.0057
   452.04         85.8203
   452.18         84.6321
   452.32         83.4748
   452.46         82.3957
   452.60         81.4485
   452.74         80.6892
   452.88         80.1664
   453.02         79.9030
   453.16         79.8896
   453.30         80.0948
   453.44         80.4703
   453.58         80.9376
   453.72         81.4014
   453.86         81.7796
   454.00         82.0114
   454.14         82.0703
   454.28         81.9850
   454.42         81.8243
   454.56         81.6621
   454.70         81.5619
   454.84         81.5765
   454.98         81.7394
   455.12         82.0433
   455.26         82.4509
   455.40         82.9274
   455.54         83.4551
   455.68         84.0238
   455.82         84.6197
   455.96         85.2285
   456.10         85.8352
   456.24         86.4221
   456.38         86.9769
   456.52         87.4812
   456.66         87.9009
   456.80         88.2068
   456.94         88.3833
   457.08         88.4213
   457.22         88.3075
   457.36         88.0281
   457.50         87.5839
   457.64         87.0026
   457.78         86.3464
   457.92         85.7039
   458.06         85.1516
   458.20         84.7264
   458.34         84.4327
   458.48         84.2639
   458.62         84.2082
   458.76         84.2516
   458.90         84.3767
   459.04         84.5572
   459.18         84.7674
   459.32         85.0052
   459.46         85.3044
   459.60         85.7147
   459.74         86.2668
   459.88         86.9556
   460.02         87.7528
   460.16         88.6219
   460.30         89.5219
   460.44         90.4089
   460.58         91.2405
   460.72         91.9884
   460.86         92.6457
   461.00         93.2148
   461.14         93.6985
   461.28         94.1034
   461.42         94.4482
   461.56         94.7594
   461.70         95.0659
   461.84         95.3928
   461.98         95.7429
   462.12         96.0842
   462.26         96.3559
   462.40         96.4871
   462.54         96.4197
   462.68         96.1256
   462.82         95.6108
   462.96         94.9060
   463.10         94.0412
   463.24         93.0312
   463.38         91.8874
   463.52         90.6300
   463.66         89.3059
   463.80         87.9968
   463.94         86.8029
   464.08         85.8165
   464.22         85.0983
   464.36         84.6683
   464.50         84.5131
   464.64         84.6128
   464.78         84.9500
   464.92         85.4973
   465.06         86.2005
   465.20         86.9691
   465.34         87.6839
   465.48         88.2146
   465.62         88.4553
   465.76         88.3519
   465.90         87.9151
   466.04         87.2181
   466.18         86.3768
   466.32         85.5263
   466.46         84.7882
   466.60         84.2470
   466.74         83.9505
   466.88         83.9138
   467.02         84.1319
   467.16         84.5880
   467.30         85.2485
   467.44         86.0458
   467.58         86.8808
   467.72         87.6568
   467.86         88.3001
   468.00         88.7705
   468.14         89.0808
   468.28         89.2868
   468.42         89.4472
   468.56         89.5918
   468.70         89.7183
   468.84         89.8079
   468.98         89.8367
   469.12         89.7799
   469.26         89.6161
   469.40         89.3383
   469.54         88.9591
   469.68         88.5086
   469.82         88.0316
   469.96         87.5685
   470.10         87.1365
   470.24         86.7515
   470.38         86.4569
   470.52         86.3148
   470.66         86.3843
   470.80         86.7080
   470.94         87.2933
   471.08         88.1081
   471.22         89.0887
   471.36         90.1483
   471.50         91.1849
   471.64         92.0826
   471.78         92.7324
   471.92         93.0613
   472.06         93.0449
   472.20         92.7015
   472.34         92.0816
   472.48         91.2625
   472.62         90.3421
   472.76         89.4390
   472.90         88.6850
   473.04         88.1935
   473.18         88.0331
   473.32         88.2213
   473.46         88.7304
   473.60         89.5032
   473.74         90.4693
   473.88         91.5500
   474.02         92.6584
   474.16         93.7121
   474.30         94.6527
   474.44         95.4523
   474.58         96.1056
   474.72         96.6150
   474.86         96.9772
   475.00         97.1800
   475.14         97.2028
   475.28         97.0287
   475.42         96.6560
   475.56         96.1062
   475.70         95.4349
   475.84         94.7202
   475.98         94.0471
   476.12         93.5065
   476.26         93.1843
   476.40         93.1391
   476.54         93.3913
   476.68         93.9298
   476.82         94.7239
   476.96         95.7199
   477.10         96.8318
   477.24         97.9539
   477.38         98.9720
   477.52         99.7702
   477.66         100.2537
   477.80         100.3755
   477.94         100.1578
   478.08         99.6883
   478.22         99.0920
   478.36         98.4989
   478.50         98.0109
   478.64         97.6967
   478.78         97.5994
   478.92         97.7313
   479.06         98.0709
   479.20         98.5683
   479.34         99.1493
   479.48         99.7216
   479.62         100.1919
   479.76         100.4881
   479.90         100.5714
   480.04         100.4353
   480.18         100.1092
   480.32         99.6596
   480.46         99.1755
   480.60         98.7445
   480.74         98.4250
   480.88         98.2337
   481.02         98.1558
   481.16         98.1631
   481.30         98.2300
   481.44         98.3396
   481.58         98.4695
   481.72         98.5864
   481.86         98.6578
   482.00         98.6584
   482.14         98.5799
   482.28         98.4361
   482.42         98.2455
   482.56         98.0225
   482.70         97.7845
   482.84         97.5537
   482.98         97.3455
   483.12         97.1666
   483.26         97.0216
   483.40         96.9128
   483.54         96.8394
   483.68         96.8014
   483.82         96.8052
   483.96         96.8547
   484.10         96.9385
   484.24         97.0253
   484.38         97.0773
   484.52         97.0647
   484.66         96.9559
   484.80         96.7092
   484.94         96.2852
   485.08         95.6662
   485.22         94.8706
   485.36         93.9558
   485.50         93.0051
   485.64         92.1052
   485.78         91.3224
   485.92         90.6877
   486.06         90.2054
   486.20         89.8734
   486.34         89.6940
   486.48         89.6717
   486.62         89.8039
   486.76         90.0751
   486.90         90.4558
   487.04         90.9122
   487.18         91.4103
   487.32         91.9038
   487.46         92.3456
   487.60         92.7155
   487.74         93.0102
   487.88         93.2221
   488.02         93.3529
   488.16         93.4335
   488.30         93.5243
   488.44         93.7022
   488.58         94.0424
   488.72         94.5981
   488.86         95.3898
   489.00         96.4019
   489.14         97.5867
   489.28         98.8745
   489.42         100.1831
   489.56         101.4207
   489.70         102.4916
   489.84         103.3054
   489.98         103.7951
   490.12         103.9412
   490.26         103.7818
   490.40         103.3980
   490.54         102.8860
   490.68         102.3252
   490.82         101.7487
   490.96         101.1456
   491.10         100.4900
   491.24         99.7613
   491.38         98.9627
   491.52         98.1431
   491.66         97.3916
   491.80         96.8141
   491.94         96.5025
   492.08         96.4979
   492.22         96.7749
   492.36         97.2732
   492.50         97.9278
   492.64         98.6599
   492.78         99.3767
   492.92         99.9926
   493.06         100.4471
   493.20         100.7078
   493.34         100.7733
   493.48         100.6890
   493.62         100.5519
   493.76         100.4787
   493.90         100.5662
   494.04         100.8806
   494.18         101.4534
   494.32         102.2665
   494.46         103.2355
   494.60         104.2174
   494.74         105.0630
   494.88         105.6769
   495.02         106.0309
   495.16         106.1325
   495.30         106.0052
   495.44         105.6896
   495.58         105.2376
   495.72         104.7031
   495.86         104.1339
   496.00         103.5732
   496.14         103.0724
   496.28         102.6896
   496.42         102.4681
   496.56         102.4138
   496.70         102.4910
   496.84         102.6344
   496.98         102.7584
   497.12         102.7642
   497.26         102.5716
   497.40         102.1537
   497.54         101.5282
   497.68         100.7255
   497.82         99.7775
   497.96         98.7288
   498.10         97.6506
   498.24         96.6446
   498.38         95.8288
   498.52         95.3049
   498.66         95.1254
   498.80         95.2716
   498.94         95.6523
   499.08         96.1270
   499.22         96.5363
   499.36         96.7401
   499.50         96.6523
   499.64         96.2497
   499.78         95.5732
   499.92         94.7158
   500.06         93.7862
   500.20         92.8676
   500.34         92.0107
   500.48         91.2562
   500.62         90.6466
   500.76         90.2182
   500.90         89.9847
   501.04         89.9277
   501.18         89.9996
   501.32         90.1428
   501.46         90.3098
   501.60         90.4758
   501.74         90.6455
   501.88         90.8538
   502.02         91.1603
   502.16         91.6257
   502.30         92.2756
   502.44         93.0789
   502.58         93.9507
   502.72         94.7724
   502.86         95.4157
   503.00         95.7752
   503.14         95.8035
   503.28         95.5203
   503.42         94.9963
   503.56         94.3240
   503.70         93.5880
   503.84         92.8616
   503.98         92.2140
   504.12         91.7103
   504.26         91.4122
   504.40         91.3798
   504.54         91.6578
   504.68         92.2478
   504.82         93.1014
   504.96         94.1370
   505.10         95.2568
   505.24         96.3531
   505.38         97.3218
   505.52         98.0867
   505.66         98.6193
   505.80         98.9302
   505.94         99.0321
   506.08         98.9171
   506.22         98.5699
   506.36         97.9933
   506.50         97.2271
   506.64         96.3411
   506.78         95.4030
   506.92         94.4594
   507.06         93.5415
   507.20         92.6730
   507.34         91.8762
   507.48         91.1790
   507.62         90.6118
   507.76         90.1957
   507.90         89.9446
   508.04         89.8827
   508.18         90.0450
   508.32         90.4516
   508.46         91.0842
   508.60         91.8828
   508.74         92.7573
   508.88         93.6067
   509.02         94.3364
   509.16         94.8680
   509.30         95.1458
   509.44         95.1447
   509.58         94.8777
   509.72         94.3910
   509.86         93.7468
   510.00         93.0144
   510.14         92.2646
   510.28         91.5708
   510.42         91.0084
   510.56         90.6427
   510.70         90.5125
   510.84         90.6157
   510.98         90.8978
   511.12         91.2601
   511.26         91.5953
   511.40         91.8215
   511.54         91.8896
   511.68         91.7681
   511.82         91.4348
   511.96         90.8921
   512.10         90.1827
   512.24         89.3847
   512.38         88.5992
   512.52         87.9280
   512.66         87.4495
   512.80         87.2112
   512.94         87.2274
   513.08         87.4659
   513.22         87.8477
   513.36         88.2700
   513.50         88.6302
   513.64         88.8431
   513.78         88.8565
   513.92         88.6586
   514.06         88.2709
   514.20         87.7357
   514.34         87.1140
   514.48         86.4922
   514.62         85.9716
   514.76         85.6423
   514.90         85.5600
   515.04         85.7361
   515.18         86.1303
   515.32         86.6475
   515.46         87.1428
   515.60         87.4497
   515.74         87.4255
   515.88         86.9747
   516.02         86.0378
   516.16         84.6007
   516.30         82.7296
   516.44         80.5746
   516.58         78.3399
   516.72         76.2469
   516.86         74.4907
   517.00         73.1951
   517.14         72.3962
   517.28         72.0720
   517.42         72.1865
   517.56         72.7022
   517.70         73.5641
   517.84         74.6866
   517.98         75.9547
   518.12         77.2589
   518.26         78.5390
   518.40         79.7861
   518.54         81.0125
   518.68         82.2376
   518.82         83.4884
   518.96         84.7780
   519.10         86.0682
   519.24         87.2580
   519.38         88.2058
   519.52         88.7713
   519.66         88.8613
   519.80         88.4784
   519.94         87.7401
   520.08         86.8257
   520.22         85.8993
   520.36         85.0774
   520.50         84.4428
   520.64         84.0708
   520.78         84.0456
   520.92         84.4421
   521.06         85.2829
   521.20         86.5010
   521.34         87.9369
   521.48         89.3853
   521.62         90.6678
   521.76         91.6736
   521.90         92.3581
   522.04         92.7282
   522.18         92.8356
   522.32         92.7824
   522.46         92.7127
   522.60         92.7723
   522.74         93.0594
   522.88         93.6104
   523.02         94.4230
   523.16         95.4727
   523.30         96.6999
   523.44         97.9920
   523.58         99.1963
   523.72         100.1517
   523.86         100.7270
   524.00         100.8618
   524.14         100.5859
   524.28         99.9911
   524.42         99.1882
   524.56         98.2892
   524.70         97.4041
   524.84         96.6321
   524.98         96.0387
   525.12         95.6283
   525.26         95.3405
   525.40         95.0828
   525.54         94.7591
   525.68         94.2723
   525.82         93.5296
   525.96         92.4791
   526.10         91.1464
   526.24         89.6368
   526.38         88.1117
   526.52         86.7651
   526.66         85.8004
   526.80         85.3852
   526.94         85.6054
   527.08         86.4553
   527.22         87.8592
   527.36         89.6915
   527.50         91.7920
   527.64         93.9901
   527.78         96.1409
   527.92         98.1454
   528.06         99.9413
   528.20         101.4804
   528.34         102.7150
   528.48         103.6065
   528.62         104.1434
   528.76         104.3371
   528.90         104.2159
   529.04         103.8346
   529.18         103.2806
   529.32         102.6554
   529.46         102.0515
   529.60         101.5531
   529.74         101.2519
   529.88         101.2408
   530.02         101.5775
   530.16         102.2589
   530.30         103.2247
   530.44         104.3774
   530.58         105.5995
   530.72         106.7669
   530.86         107.7631
   531.00         108.4884
   531.14         108.8774
   531.28         108.9107
   531.42         108.5900
   531.56         107.9069
   531.70         106.8613
   531.84         105.4996
   531.98         103.9170
   532.12         102.2399
   532.26         100.6171
   532.40         99.2015
   532.54         98.1186
   532.68         97.4415
   532.82         97.1870
   532.96         97.3305
   533.10         97.8264
   533.24         98.6140
   533.38         99.6079
   533.52         100.6966
   533.66         101.7556
   533.80         102.6758
   533.94         103.3911
   534.08         103.8885
   534.22         104.2184
   534.36         104.4963
   534.50         104.8614
   534.64         105.4171
   534.78         106.2007
   534.92         107.1838
   535.06         108.2858
   535.20         109.4022
   535.34         110.4307
   535.48         111.2874
   535.62         111.9101
   535.76         112.2372
   535.90         112.2050
   536.04         111.7858
   536.18         111.0206
   536.32         110.0120
   536.46         108.8968
   536.60         107.8211
   536.74         106.9125
   536.88         106.2614
   537.02         105.9102
   537.16         105.8524
   537.30         106.0458
   537.44         106.4252
   537.58         106.9095
   537.72         107.4097
   537.86         107.8355
   538.00         108.1002
   538.14         108.1279
   538.28         107.8599
   538.42         107.2699
   538.56         106.3918
   538.70         105.3202
   538.84         104.1723
   538.98         103.0467
   539.12         102.0034
   539.26         101.0620
   539.40         100.2141
   539.54         99.4433
   539.68         98.7393
   539.82         98.1079
   539.96         97.5769
   540.10         97.1886
   540.24         96.9838
   540.38         97.0004
   540.52         97.2774
   540.66         97.8372
   540.80         98.6661
   540.94         99.7184
   541.08         100.9382
   541.22         102.2727
   541.36         103.6654
   541.50         105.0381
   541.64         106.2749
   541.78         107.2396
   541.92         107.8318
   542.06         108.0189
   542.20         107.8179
   542.34         107.2754
   542.48         106.4751
   542.62         105.5436
   542.76         104.6254
   542.90         103.8505
   543.04         103.3151
   543.18         103.0682
   543.32         103.0979
   543.46         103.3413
   543.60         103.7253
   543.74         104.1947
   543.88         104.7045
   544.02         105.2009
   544.16         105.6113
   544.30         105.8554
   544.44         105.8842
   544.58         105.7125
   544.72         105.4026
   544.86         105.0352
   545.00         104.6987
   545.14         104.4771
   545.28         104.4290
   545.42         104.5704
   545.56         104.8725
   545.70         105.2743
   545.84         105.7001
   545.98         106.0767
   546.12         106.3513
   546.26         106.4998
   546.40         106.5059
   546.54         106.3437
   546.68         105.9935
   546.82         105.4567
   546.96         104.7558
   547.10         103.9420
   547.24         103.0991
   547.38         102.3201
   547.52         101.6772
   547.66         101.2140
   547.80         100.9603
   547.94         100.9406
   548.08         101.1584
   548.22         101.5844
   548.36         102.1631
   548.50         102.8280
   548.64         103.5184
   548.78         104.1929
   548.92         104.8236
   549.06         105.3854
   549.20         105.8590
   549.34         106.2320
   549.48         106.4929
   549.62         106.6425
   549.76         106.7082
   549.90         106.7264
   550.04         106.7048
   550.18         106.6160
   550.32         106.4310
   550.46         106.1485
   550.60         105.7974
   550.74         105.4256
   550.88         105.0893
   551.02         104.8466
   551.16         104.7523
   551.30         104.8475
   551.44         105.1382
   551.58         105.5824
   551.72         106.1089
   551.86         106.6519
   552.00         107.1644
   552.14         107.6125
   552.28         107.9683
   552.42         108.2030
   552.56         108.2891
   552.70         108.2256
   552.84         108.0608
   552.98         107.8775
   553.12         107.7557
   553.26         107.7474
   553.40         107.8695
   553.54         108.1106
   553.68         108.4483
   553.82         108.8610
   553.96         109.3248
   554.10         109.8075
   554.24         110.2750
   554.38         110.7048
   554.52         111.0874
   554.66         111.4137
   554.80         111.6689
   554.94         111.8384
   555.08         111.9123
   555.22         111.8876
   555.36         111.7675
   555.50         111.5546
   555.64         111.2463
   555.78         110.8422
   555.92         110.3564
   556.06         109.8220
   556.20         109.2862
   556.34         108.8005
   556.48         108.4054
   556.62         108.1202
   556.76         107.9496
   556.90         107.8925
   557.04         107.9423
   557.18         108.0837
   557.32         108.2862
   557.46         108.4978
   557.60         108.6466
   557.74         108.6551
   557.88         108.4620
   558.02         108.0388
   558.16         107.3911
   558.30         106.5552
   558.44         105.5976
   558.58         104.6063
   558.72         103.6711
   558.86         102.8649
   559.00         102.2358
   559.14         101.8065
   559.28         101.5844
   559.42         101.5747
   559.56         101.7756
   559.70         102.1715
   559.84         102.7334
   559.98         103.4247
   560.12         104.2059
   560.26         105.0323
   560.40         105.8486
   560.54         106.5985
   560.68         107.2353
   560.82         107.7230
   560.96         108.0358
   561.10         108.1620
   561.24         108.0921
   561.38         107.8121
   561.52         107.3257
   561.66         106.6780
   561.80         105.9590
   561.94         105.2861
   562.08         104.7736
   562.22         104.5013
   562.36         104.5001
   562.50         104.7509
   562.64         105.1929
   562.78         105.7375
   562.92         106.2806
   563.06         106.7280
   563.20         107.0221
   563.34         107.1420
   563.48         107.0861
   563.62         106.8667
   563.76         106.5112
   563.90         106.0567
   564.04         105.5577
   564.18         105.0883
   564.32         104.7216
   564.46         104.5026
   564.60         104.4284
   564.74         104.4471
   564.88         104.4808
   565.02         104.4571
   565.16         104.3266
   565.30         104.0746
   565.44         103.7234
   565.58         103.3145
   565.72         102.8917
   565.86         102.4988
   566.00         102.1795
   566.14         101.9775
   566.28         101.9357
   566.42         102.0897
   566.56         102.4626
   566.70         103.0571
   566.84         103.8399
   566.98         104.7424
   567.12         105.6774
   567.26         106.5594
   567.40         107.3260
   567.54         107.9395
   567.68         108.3729
   567.82         108.6100
   567.96         108.6565
   568.10         108.5396
   568.24         108.2965
   568.38         107.9688
   568.52         107.6025
   568.66         107.2422
   568.80         106.9195
   568.94         106.6422
   569.08         106.3897
   569.22         106.1255
   569.36         105.8081
   569.50         105.3977
   569.64         104.8619
   569.78         104.1821
   569.92         103.3579
   570.06         102.4079
   570.20         101.3735
   570.34         100.3314
   570.48         99.3880
   570.62         98.6511
   570.76         98.2069
   570.90         98.1079
   571.04         98.3746
   571.18         99.0014
   571.32         99.9580
   571.46         101.1844
   571.60         102.5876
   571.74         104.0623
   571.88         105.5084
   572.02         106.8276
   572.16         107.9341
   572.30         108.7749
   572.44         109.3385
   572.58         109.6505
   572.72         109.7612
   572.86         109.7299
   573.00         109.6089
   573.14         109.4349
   573.28         109.2384
   573.42         109.0514
   573.56         108.8935
   573.70         108.7662
   573.84         108.6645
   573.98         108.5796
   574.12         108.4887
   574.26         108.3620
   574.40         108.1920
   574.54         108.0010
   574.68         107.8287
   574.82         107.7163
   574.96         107.6808
   575.10         107.7109
   575.24         107.7890
   575.38         107.9121
   575.52         108.0910
   575.66         108.3397
   575.80         108.6639
   575.94         109.0525
   576.08         109.4776
   576.22         109.8991
   576.36         110.2775
   576.50         110.5872
   576.64         110.8093
   576.78         110.9181
   576.92         110.8836
   577.06         110.6806
   577.20         110.2861
   577.34         109.6728
   577.48         108.8239
   577.62         107.7652
   577.76         106.5780
   577.90         105.3725
   578.04         104.2572
   578.18         103.3269
   578.32         102.6562
   578.46         102.2869
   578.60         102.2243
   578.74         102.4536
   578.88         102.9546
   579.02         103.6977
   579.16         104.6283
   579.30         105.6557
   579.44         106.6681
   579.58         107.5641
   579.72         108.2858
   579.86         108.8269
   580.00         109.2188
   580.14         109.5093
   580.28         109.7381
   580.42         109.9215
   580.56         110.0710
   580.70         110.2199
   580.84         110.4126
   580.98         110.6731
   581.12         110.9998
   581.26         111.3888
   581.40         111.8424
   581.54         112.3519
   581.68         112.8842
   581.82         113.3879
   581.96         113.8152
   582.10         114.1376
   582.24         114.3424
   582.38         114.4320
   582.52         114.4189
   582.66         114.3168
   582.80         114.1433
   582.94         113.9316
   583.08         113.7343
   583.22         113.6084
   583.36         113.5827
   583.50         113.6417
   583.64         113.7450
   583.78         113.8545
   583.92         113.9356
   584.06         113.9491
   584.20         113.8572
   584.34         113.6345
   584.48         113.2642
   584.62         112.7418
   584.76         112.0907
   584.90         111.3625
   585.04         110.6230
   585.18         109.9410
   585.32         109.3781
   585.46         108.9810
   585.60         108.7798
   585.74         108.7877
   585.88         108.9981
   586.02         109.3899
   586.16         109.9355
   586.30         110.6023
   586.44         111.3427
   586.58         112.0873
   586.72         112.7531
   586.86         113.2676
   587.00         113.5831
   587.14         113.6742
   587.28         113.5375
   587.42         113.1823
   587.56         112.5877
   587.70         111.6768
   587.84         110.3669
   587.98         108.6397
   588.12         106.5447
   588.26         104.1585
   588.40         101.5713
   588.54         98.9096
   588.68         96.3481
   588.82         94.0831
   588.96         92.2964
   589.10         91.1318
   589.24         90.6839
   589.38         90.9929
   589.52         92.0435
   589.66         93.7586
   589.80         95.9965
   589.94         98.5652
   590.08         101.2338
   590.22         103.7555
   590.36         105.9331
   590.50         107.6811
   590.64         109.0006
   590.78         109.9114
   590.92         110.4453
   591.06         110.6817
   591.20         110.7415
   591.34         110.7358
   591.48         110.7320
   591.62         110.7584
   591.76         110.8229
   591.90         110.9269
   592.04         111.0653
   592.18         111.2196
   592.32         111.3589
   592.46         111.4534
   592.60         111.4834
   592.74         111.4333
   592.88         111.2920
   593.02         111.0672
   593.16         110.7843
   593.30         110.4768
   593.44         110.1775
   593.58         109.9114
   593.72         109.6934
   593.86         109.5275
   594.00         109.4041
   594.14         109.3106
   594.28         109.2411
   594.42         109.1921
   594.56         109.1607
   594.70         109.1458
   594.84         109.1522
   594.98         109.1912
   595.12         109.2736
   595.26         109.3965
   595.40         109.5398
   595.54         109.6866
   595.68         109.8398
   595.82         110.0171
   595.96         110.2359
   596.10         110.4975
   596.24         110.7799
   596.38         111.0479
   596.52         111.2654
   596.66         111.4051
   596.80         111.4557
   596.94         111.4122
   597.08         111.2655
   597.22         111.0150
   597.36         110.6783
   597.50         110.2816
   597.64         109.8493
   597.78         109.4053
   597.92         108.9796
   598.06         108.6127
   598.20         108.3468
   598.34         108.2080
   598.48         108.1969
   598.62         108.2904
   598.76         108.4455
   598.90         108.6093
   599.04         108.7360
   599.18         108.7961
   599.32         108.7704
   599.46         108.6441
   599.60         108.4114
   599.74         108.0885
   599.88         107.7124
   600.02         107.3200
   600.16         106.9346
   600.30         106.5725
   600.44         106.2447
   600.58         105.9519
   600.72         105.6885
   600.86         105.4456
   601.00         105.2154
   601.14         105.0059
   601.28         104.8445
   601.42         104.7635
   601.56         104.7858
   601.70         104.9224
   601.84         105.1755
   601.98         105.5442
   602.12         106.0259
   602.26         106.6117
   602.40         107.2825
   602.54         108.0008
   602.68         108.7159
   602.82         109.3823
   602.96         109.9656
   603.10         110.4383
   603.24         110.7899
   603.38         111.0381
   603.52         111.2172
   603.66         111.3630
   603.80         111.5051
   603.94         111.6538
   604.08         111.7960
   604.22         111.9083
   604.36         111.9703
   604.50         111.9724
   604.64         111.9176
   604.78         111.8147
   604.92         111.6684
   605.06         111.4795
   605.20         111.2466
   605.34         110.9798
   605.48         110.7110
   605.62         110.4857
   605.76         110.3494
   605.90         110.3379
   606.04         110.4684
   606.18         110.7287
   606.32         111.0768
   606.46         111.4525
   606.60         111.7909
   606.74         112.0332
   606.88         112.1372
   607.02         112.0816
   607.16         111.8669
   607.30         111.5114
   607.44         111.0414
   607.58         110.4826
   607.72         109.8660
   607.86         109.2339
   608.00         108.6384
   608.14         108.1255
   608.28         107.7200
   608.42         107.4244
   608.56         107.2248
   608.70         107.0944
   608.84         106.9947
   608.98         106.8899
   609.12         106.7633
   609.26         106.6143
   609.40         106.4508
   609.54         106.2857
   609.68         106.1350
   609.82         106.0131
   609.96         105.9343
   610.10         105.9145
   610.24         105.9611
   610.38         106.0692
   610.52         106.2259
   610.66         106.4030
   610.80         106.5566
   610.94         106.6411
   611.08         106.6270
   611.22         106.5034
   611.36         106.2663
   611.50         105.9208
   611.64         105.4929
   611.78         105.0276
   611.92         104.5703
   612.06         104.1514
   612.20         103.7733
   612.34         103.4119
   612.48         103.0391
   612.62         102.6508
   612.76         102.2629
   612.90         101.8909
   613.04         101.5571
   613.18         101.2941
   613.32         101.1354
   613.46         101.1136
   613.60         101.2537
   613.74         101.5634
   613.88         102.0293
   614.02         102.6251
   614.16         103.3188
   614.30         104.0707
   614.44         104.8284
   614.58         105.5291
   614.72         106.0990
   614.86         106.4636
   615.00         106.5793
   615.14         106.4557
   615.28         106.1432
   615.42         105.6938
   615.56         105.1429
   615.70         104.5149
   615.84         103.8318
   615.98         103.1271
   616.12         102.4512
   616.26         101.8657
   616.40         101.4309
   616.54         101.1972
   616.68         101.1934
   616.82         101.4217
   616.96         101.8643
   617.10         102.4873
   617.24         103.2379
   617.38         104.0444
   617.52         104.8301
   617.66         105.5306
   617.80         106.0915
   617.94         106.4636
   618.08         106.6160
   618.22         106.5557
   618.36         106.3282
   618.50         106.0031
   618.64         105.6537
   618.78         105.3427
   618.92         105.1223
   619.06         105.0355
   619.20         105.1121
   619.34         105.3614
   619.48         105.7678
   619.62         106.2949
   619.76         106.8872
   619.90         107.4747
   620.04         107.9762
   620.18         108.3076
   620.32         108.4108
   620.46         108.2744
   620.60         107.9281
   620.74         107.4189
   620.88         106.7877
   621.02         106.0677
   621.16         105.2940
   621.30         104.5136
   621.44         103.7876
   621.58         103.1740
   621.72         102.7002
   621.86         102.3519
   622.00         102.0941
   622.14         101.9037
   622.28         101.7768
   622.42         101.7139
   622.56         101.7053
   622.70         101.7252
   622.84         101.7439
   622.98         101.7411
   623.12         101.7006
   623.26         101.6038
   623.40         101.4413
   623.54         101.2307
   623.68         101.0151
   623.82         100.8352
   623.96         100.7060
   624.10         100.6156
   624.24         100.5343
   624.38         100.4252
   624.52         100.2522
   624.66         99.9989
   624.80         99.6800
   624.94         99.3195
   625.08         98.9347
   625.22         98.5333
   625.36         98.1227
   625.50         97.7315
   625.64         97.4113
   625.78         97.2169
   625.92         97.1930
   626.06         97.3674
   626.20         97.7441
   626.34         98.2947
   626.48         98.9568
   626.62         99.6464
   626.76         100.2823
   626.90         100.8004
   627.04         101.1547
   627.18         101.3266
   627.32         101.3368
   627.46         101.2394
   627.60         101.1014
   627.74         100.9843
   627.88         100.9326
   628.02         100.9746
   628.16         101.1279
   628.30         101.3909
   628.44         101.7376
   628.58         102.1327
   628.72         102.5417
   628.86         102.9261
   629.00         103.2416
   629.14         103.4457
   629.28         103.5126
   629.42         103.4455
   629.56         103.2796
   629.70         103.0723
   629.84         102.8829
   629.98         102.7535
   630.12         102.7056
   630.26         102.7353
   630.40         102.8052
   630.54         102.8602
   630.68         102.8496
   630.82         102.7422
   630.96         102.5355
   631.10         102.2532
   631.24         101.9411
   631.38         101.6553
   631.52         101.4484
   631.66         101.3629
   631.80         101.4276
   631.94         101.6585
   632.08         102.0569
   632.22         102.5937
   632.36         103.2016
   632.50         103.7950
   632.64         104.3000
   632.78         104.6678
   632.92         104.8764
   633.06         104.9253
   633.20         104.8328
   633.34         104.6382
   633.48         104.4022
   633.62         104.1972
   633.76         104.0845
   633.90         104.0961
   634.04         104.2361
   634.18         104.4830
   634.32         104.7912
   634.46         105.1025
   634.60         105.3532
   634.74         105.4765
   634.88         105.4107
   635.02         105.1190
   635.16         104.6085
   635.30         103.9254
   635.44         103.1417
   635.58         102.3485
   635.72         101.6414
   635.86         101.1076
   636.00         100.8208
   636.14         100.8275
   636.28         101.1335
   636.42         101.7032
   636.56         102.4691
   636.70         103.3467
   636.84         104.2459
   636.98         105.0878
   637.12         105.8178
   637.26         106.4033
   637.40         106.8367
   637.54         107.1320
   637.68         107.3141
   637.82         107.4124
   637.96         107.4497
   638.10         107.4332
   638.24         107.3612
   638.38         107.2317
   638.52         107.0433
   638.66         106.7898
   638.80         106.4621
   638.94         106.0645
   639.08         105.6217
   639.22         105.1725
   639.36         104.7609
   639.50         104.4291
   639.64         104.2125
   639.78         104.1272
   639.92         104.1661
   640.06         104.3074
   640.20         104.5214
   640.34         104.7727
   640.48         105.0218
   640.62         105.2276
   640.76         105.3561
   640.90         105.3952
   641.04         105.3549
   641.18         105.2523
   641.32         105.1098
   641.46         104.9636
   641.60         104.8487
   641.74         104.7730
   641.88         104.7233
   642.02         104.6876
   642.16         104.6703
   642.30         104.6875
   642.44         104.7519
   642.58         104.8672
   642.72         105.0352
   642.86         105.2590
   643.00         105.5396
   643.14         105.8744
   643.28         106.2623
   643.42         106.6999
   643.56         107.1640
   643.70         107.5979
   643.84         107.9283
   643.98         108.0989
   644.12         108.0800
   644.26         107.8651
   644.40         107.4765
   644.54         106.9753
   644.68         106.4430
   644.82         105.9454
   644.96         105.5154
   645.10         105.1627
   645.24         104.8945
   645.38         104.7233
   645.52         104.6598
   645.66         104.7017
   645.80         104.8268
   645.94         104.9997
   646.08         105.1857
   646.22         105.3579
   646.36         105.5108
   646.50         105.6675
   646.64         105.8565
   646.78         106.0811
   646.92         106.3214
   647.06         106.5528
   647.20         106.7551
   647.34         106.9084
   647.48         106.9955
   647.62         107.0114
   647.76         106.9606
   647.90         106.8410
   648.04         106.6291
   648.18         106.2812
   648.32         105.7512
   648.46         105.0139
   648.60         104.0825
   648.74         103.0077
   648.88         101.8628
   649.02         100.7373
   649.16         99.7339
   649.30         98.9519
   649.44         98.4653
   649.58         98.3229
   649.72         98.5545
   649.86         99.1605
   650.00         100.1023
   650.14         101.3003
   650.28         102.6408
   650.42         103.9948
   650.56         105.2443
   650.70         106.3087
   650.84         107.1601
   650.98         107.8187
   651.12         108.3286
   651.26         108.7343
   651.40         109.0695
   651.54         109.3565
   651.68         109.6040
   651.82         109.8061
   651.96         109.9473
   652.10         110.0174
   652.24         110.0275
   652.38         110.0016
   652.52         109.9568
   652.66         109.9037
   652.80         109.8558
   652.94         109.8317
   653.08         109.8477
   653.22         109.9090
   653.36         110.0041
   653.50         110.1072
   653.64         110.1829
   653.78         110.1937
   653.92         110.1085
   654.06         109.9057
   654.20         109.5738
   654.34         109.1168
   654.48         108.5588
   654.62         107.9353
   654.76         107.2672
   654.90         106.5358
   655.04         105.6996
   655.18         104.7484
   655.32         103.7272
   655.46         102.7126
   655.60         101.7813
   655.74         100.9937
   655.88         100.3911
   656.02         100.0037
   656.16         99.8539
   656.30         99.9513
   656.44         100.2909
   656.58         100.8534
   656.72         101.5994
   656.86         102.4748
   657.00         103.4234
   657.14         104.3874
   657.28         105.3021
   657.42         106.1106
   657.56         106.7934
   657.70         107.3803
   657.84         107.9149
   657.98         108.4042
   658.12         108.8148
   658.26         109.1053
   658.40         109.2479
   658.54         109.2382
   658.68         109.1037
   658.82         108.8981
   658.96         108.6797
   659.10         108.4910
   659.24         108.3494
   659.38         108.2482
   659.52         108.1665
   659.66         108.0847
   659.80         107.9939
   659.94         107.8911
   660.08         107.7778
   660.22         107.6593
   660.36         107.5398
   660.50         107.4260
   660.64         107.3400
   660.78         107.3174
   660.92         107.3851
   661.06         107.5407
   661.20         107.7571
   661.34         108.0019
   661.48         108.2390
   661.62         108.4272
   661.76         108.5271
   661.90         108.5084
   662.04         108.3547
   662.18         108.0765
   662.32         107.7171
   662.46         107.3343
   662.60         106.9739
   662.74         106.6664
   662.88         106.4309
   663.02         106.2713
   663.16         106.1807
   663.30         106.1430
   663.44         106.1328
   663.58         106.1271
   663.72         106.1137
   663.86         106.0986
   664.00         106.0992
   664.14         106.1310
   664.28         106.2014
   664.42         106.3101
   664.56         106.4525
   664.70         106.6225
   664.84         106.8107
   664.98         106.9942
   665.12         107.1332
   665.26         107.1820
   665.40         107.1049
   665.54         106.8874
   665.68         106.5418
   665.82         106.1053
   665.96         105.6272
   666.10         105.1588
   666.24         104.7452
   666.38         104.4128
   666.52         104.1672
   666.66         104.0051
   666.80         103.9233
   666.94         103.9182
   667.08         103.9823
   667.22         104.1035
   667.36         104.2705
   667.50         104.4767
   667.64         104.7209
   667.78         105.0058
   667.92         105.3338
   668.06         105.7017
   668.20         106.0937
   668.34         106.4780
   668.48         106.8160
   668.62         107.0717
   668.76         107.2171
   668.90         107.2372
   669.04         107.1313
   669.18         106.9172
   669.32         106.6323
   669.46         106.3193
   669.60         106.0089
   669.74         105.7164
   669.88         105.4489
   670.02         105.2095
   670.16         104.9944
   670.30         104.7935
   670.44         104.5932
   670.58         104.3846
   670.72         104.1723
   670.86         103.9730
   671.00         103.8123
   671.14         103.7205
   671.28         103.7186
   671.42         103.8133
   671.56         104.0009
   671.70         104.2691
   671.84         104.5955
   671.98         104.9509
   672.12         105.3036
   672.26         105.6209
   672.40         105.8745
   672.54         106.0398
   672.68         106.0959
   672.82         106.0294
   672.96         105.8377
   673.10         105.5311
   673.24         105.1369
   673.38         104.6954
   673.52         104.2479
   673.66         103.8264
   673.80         103.4506
   673.94         103.1283
   674.08         102.8644
   674.22         102.6660
   674.36         102.5408
   674.50         102.4997
   674.64         102.5564
   674.78         102.7134
   674.92         102.9556
   675.06         103.2591
   675.20         103.5996
   675.34         103.9517
   675.48         104.2865
   675.62         104.5739
   675.76         104.7851
   675.90         104.8974
   676.04         104.8964
   676.18         104.7761
   676.32         104.5458
   676.46         104.2356
   676.60         103.8924
   676.74         103.5683
   676.88         103.3091
   677.02         103.1411
   677.16         103.0626
   677.30         103.0511
   677.44         103.0784
   677.58         103.1225
   677.72         103.1707
   677.86         103.2128
   678.00         103.2355
   678.14         103.2288
   678.28         103.1931
   678.42         103.1400
   678.56         103.0910
   678.70         103.0747
   678.84         103.1169
   678.98         103.2287
   679.12         103.3994
   679.26         103.6026
   679.40         103.8095
   679.54         103.9962
   679.68         104.1453
   679.82         104.2478
   679.96         104.3039
   680.10         104.3179
   680.24         104.2955
   680.38         104.2407
   680.52         104.1528
   680.66         104.0272
   680.80         103.8639
   680.94         103.6755
   681.08         103.4859
   681.22         103.3206
   681.36         103.1976
   681.50         103.1194
   681.64         103.0748
   681.78         103.0522
   681.92         103.0470
   682.06         103.0575
   682.20         103.0828
   682.34         103.1216
   682.48         103.1677
   682.62         103.2062
   682.76         103.2162
   682.90         103.1742
   683.04         103.0622
   683.18         102.8750
   683.32         102.6208
   683.46         102.3185
   683.60         101.9932
   683.74         101.6672
   683.88         101.3549
   684.02         101.0674
   684.16         100.8157
   684.30         100.6115
   684.44         100.4656
   684.58         100.3845
   684.72         100.3644
   684.86         100.3879
   685.00         100.4279
   685.14         100.4555
   685.28         100.4497
   685.42         100.3942
   685.56         100.2600
   685.70         99.9911
   685.84         99.5080
   685.98         98.7330
   686.12         97.6186
   686.26         96.1593
   686.40         94.3923
   686.54         92.3978
   686.68         90.2932
   686.82         88.2188
   686.96         86.3254
   687.10         84.7610
   687.24         83.6517
   687.38         83.0773
   687.52         83.0595
   687.66         83.5655
   687.80         84.5121
   687.94         85.7716
   688.08         87.1836
   688.22         88.5822
   688.36         89.8339
   688.50         90.8644
   688.64         91.6590
   688.78         92.2399
   688.92         92.6422
   689.06         92.9125
   689.20         93.1059
   689.34         93.2715
   689.48         93.4502
   689.62         93.6724
   689.76         93.9482
   689.90         94.2663
   690.04         94.6033
   690.18         94.9286
   690.32         95.2154
   690.46         95.4513
   690.60         95.6383
   690.74         95.7850
   690.88         95.9059
   691.02         96.0165
   691.16         96.1216
   691.30         96.2179
   691.44         96.3054
   691.58         96.3929
   691.72         96.4939
   691.86         96.6119
   692.00         96.7418
   692.14         96.8796
   692.28         97.0215
   692.42         97.1626
   692.56         97.3040
   692.70         97.4527
   692.84         97.6170
   692.98         97.8069
   693.12         98.0277
   693.26         98.2706
   693.40         98.5160
   693.54         98.7456
   693.68         98.9431
   693.82         99.0922
   693.96         99.1859
   694.10         99.2262
   694.24         99.2124
   694.38         99.1417
   694.52         99.0212
   694.66         98.8708
   694.80         98.7168
   694.94         98.5837
   695.08         98.4920
   695.22         98.4593
   695.36         98.4998
   695.50         98.6221
   695.64         98.8232
   695.78         99.0892
   695.92         99.4032
   696.06         99.7525
   696.20         100.1209
   696.34         100.4708
   696.48         100.7446
   696.62         100.8844
   696.76         100.8514
   696.90         100.6376
   697.04         100.2702
   697.18         99.8032
   697.32         99.3010
   697.46         98.8255
   697.60         98.4286
   697.74         98.1491
   697.88         98.0087
   698.02         98.0102
   698.16         98.1379
   698.30         98.3632
   698.44         98.6535
   698.58         98.9721
   698.72         99.2725
   698.86         99.5041
   699.00         99.6301
   699.14         99.6396
   699.28         99.5485
   699.42         99.3925
   699.56         99.2141
   699.70         99.0538
   699.84         98.9451
   699.98         98.9052
   700.12         98.9315
   700.26         98.9977
   700.40         99.0628
   700.54         99.0943
   700.68         99.0777
   700.82         99.0136
   700.96         98.9065
   701.10         98.7531
   701.24         98.5448
   701.38         98.2834
   701.52         97.9847
   701.66         97.6703
   701.80         97.3652
   701.94         97.1010
   702.08         96.9099
   702.22         96.8155
   702.36         96.8285
   702.50         96.9384
   702.64         97.1166
   702.78         97.3332
   702.92         97.5717
   703.06         97.8350
   703.20         98.1364
   703.34         98.4828
   703.48         98.8686
   703.62         99.2759
   703.76         99.6803
   703.90         100.0528
   704.04         100.3608
   704.18         100.5735
   704.32         100.6790
   704.46         100.6864
   704.60         100.6086
   704.74         100.4541
   704.88         100.2321
   705.02         99.9554
   705.16         99.6387
   705.30         99.2982
   705.44         98.9455
   705.58         98.5830
   705.72         98.2115
   705.86         97.8442
   706.00         97.5071
   706.14         97.2260
   706.28         97.0147
   706.42         96.8779
   706.56         96.8235
   706.70         96.8713
   706.84         97.0400
   706.98         97.3223
   707.12         97.6755
   707.26         98.0348
   707.40         98.3369
   707.54         98.5315
   707.68         98.5840
   707.82         98.4812
   707.96         98.2348
   708.10         97.8808
   708.24         97.4768
   708.38         97.0931
   708.52         96.7921
   708.66         96.6108
   708.80         96.5571
   708.94         96.6182
   709.08         96.7730
   709.22         96.9916
   709.36         97.2317
   709.50         97.4414
   709.64         97.5734
   709.78         97.6008
   709.92         97.5201
   710.06         97.3462
   710.20         97.1078
   710.34         96.8401
   710.48         96.5741
   710.62         96.3326
   710.76         96.1316
   710.90         95.9865
   711.04         95.9112
   711.18         95.9064
   711.32         95.9560
   711.46         96.0398
   711.60         96.1400
   711.74         96.2389
   711.88         96.3229
   712.02         96.3895
   712.16         96.4445
   712.30         96.4971
   712.44         96.5489
   712.58         96.5968
   712.72         96.6463
   712.86         96.7034
   713.00         96.7581
   713.14         96.7894
   713.28         96.7784
   713.42         96.7124
   713.56         96.5870
   713.70         96.4075
   713.84         96.1865
   713.98         95.9420
   714.12         95.6948
   714.26         95.4679
   714.40         95.2905
   714.54         95.1982
   714.68         95.2197
   714.82         95.3618
   714.96         95.6019
   715.10         95.8955
   715.24         96.2026
   715.38         96.5006
   715.52         96.7695
   715.66         96.9863
   715.80         97.1300
   715.94         97.1859
   716.08         97.1480
   716.22         97.0214
   716.36         96.8172
   716.50         96.5417
   716.64         96.1912
   716.78         95.7659
   716.92         95.2863
   717.06         94.7845
   717.20         94.2798
   717.34         93.7591
   717.48         93.1921
   717.62         92.5660
   717.76         91.9024
   717.90         91.2406
   718.04         90.6121
   718.18         90.0367
   718.32         89.5318
   718.46         89.1234
   718.60         88.8436
   718.74         88.7136
   718.88         88.7420
   719.02         88.9312
   719.16         89.2628
   719.30         89.6916
   719.44         90.1654
   719.58         90.6438
   719.72         91.0981
   719.86         91.5077
   720.00         91.8689
   720.14         92.2054
   720.28         92.5565
   720.42         92.9531
   720.56         93.4110
   720.70         93.9433
   720.84         94.5598
   720.98         95.2529
   721.12         95.9941
   721.26         96.7417
   721.40         97.4475
   721.54         98.0731
   721.68         98.5965
   721.82         99.0043
   721.96         99.2945
   722.10         99.4745
   722.24         99.5538
   722.38         99.5389
   722.52         99.4347
   722.66         99.2452
   722.80         98.9739
   722.94         98.6292
   723.08         98.2255
   723.22         97.7827
   723.36         97.3273
   723.50         96.8901
   723.64         96.5006
   723.78         96.1793
   723.92         95.9315
   724.06         95.7481
   724.20         95.6200
   724.34         95.5432
   724.48         95.5060
   724.62         95.4786
   724.76         95.4270
   724.90         95.3346
   725.04         95.2068
   725.18         95.0537
   725.32         94.8835
   725.46         94.7086
   725.60         94.5489
   725.74         94.4247
   725.88         94.3533
   726.02         94.3428
   726.16         94.3826
   726.30         94.4454
   726.44         94.4978
   726.58         94.5175
   726.72         94.4956
   726.86         94.4244
   727.00         94.2912
   727.14         94.0878
   727.28         93.8181
   727.42         93.4999
   727.56         93.1593
   727.70         92.8171
   727.84         92.4767
   727.98         92.1335
   728.12         91.7905
   728.26         91.4606
   728.40         91.1706
   728.54         90.9539
   728.68         90.8312
   728.82         90.8076
   728.96         90.8790
   729.10         91.0329
   729.24         91.2511
   729.38         91.5128
   729.52         91.7934
   729.66         92.0694
   729.80         92.3178
   729.94         92.5092
   730.08         92.6194
   730.22         92.6388
   730.36         92.5678
   730.50         92.4167
   730.64         92.2147
   730.78         92.0052
   730.92         91.8263
   731.06         91.6953
   731.20         91.6019
   731.34         91.5245
   731.48         91.4528
   731.62         91.3861
   731.76         91.3231
   731.90         91.2673
   732.04         91.2303
   732.18         91.2280
   732.32         91.2795
   732.46         91.4053
   732.60         91.6220
   732.74         91.9410
   732.88         92.3553
   733.02         92.8316
   733.16         93.3216
   733.30         93.7772
   733.44         94.1614
   733.58         94.4486
   733.72         94.6186
   733.86         94.6598
   734.00         94.5740
   734.14         94.3716
   734.28         94.0622
   734.42         93.6581
   734.56         93.1867
   734.70         92.6875
   734.84         92.2019
   734.98         91.7579
   735.12         91.3653
   735.26         91.0284
   735.40         90.7546
   735.54         90.5487
   735.68         90.4093
   735.82         90.3366
   735.96         90.3384
   736.10         90.4256
   736.24         90.5984
   736.38         90.8407
   736.52         91.1318
   736.66         91.4523
   736.80         91.7826
   736.94         92.1002
   737.08         92.3829
   737.22         92.6083
   737.36         92.7497
   737.50         92.7798
   737.64         92.6761
   737.78         92.4329
   737.92         92.0711
   738.06         91.6294
   738.20         91.1482
   738.34         90.6662
   738.48         90.2252
   738.62         89.8682
   738.76         89.6276
   738.90         89.5161
   739.04         89.5290
   739.18         89.6496
   739.32         89.8486
   739.46         90.0913
   739.60         90.3405
   739.74         90.5558
   739.88         90.7031
   740.02         90.7642
   740.16         90.7342
   740.30         90.6158
   740.44         90.4219
   740.58         90.1789
   740.72         89.9153
   740.86         89.6523
   741.00         89.4087
   741.14         89.2032
   741.28         89.0551
   741.42         88.9827
   741.56         89.0020
   741.70         89.1256
   741.84         89.3559
   741.98         89.6810
   742.12         90.0736
   742.26         90.4903
   742.40         90.8838
   742.54         91.2159
   742.68         91.4585
   742.82         91.5880
   742.96         91.5880
   743.10         91.4585
   743.24         91.2159
   743.38         90.8838
   743.52         90.4903
   743.66         90.0736
   743.80         89.6810
   743.94         89.3559
   744.08         89.1256
   744.22         89.0020
