# File HD242908
# Wavelength [nm]    Normalized Amplitude
   349.70         292.7720
   349.84         292.3808
   349.98         291.9022
   350.12         291.3434
   350.26         290.7394
   350.40         290.1511
   350.54         289.6462
   350.68         289.2638
   350.82         289.0129
   350.96         288.8821
   351.10         288.8436
   351.24         288.8821
   351.38         289.0129
   351.52         289.2638
   351.66         289.6462
   351.80         290.1511
   351.94         290.7394
   352.08         291.3434
   352.22         291.9022
   352.36         292.3808
   352.50         292.7720
   352.64         293.0830
   352.78         293.3107
   352.92         293.4338
   353.06         293.4420
   353.20         293.3649
   353.34         293.2570
   353.48         293.1601
   353.62         293.0857
   353.76         293.0443
   353.90         293.0539
   354.04         293.1169
   354.18         293.1995
   354.32         293.2436
   354.46         293.2016
   354.60         293.0447
   354.74         292.7674
   354.88         292.3754
   355.02         291.8561
   355.16         291.1756
   355.30         290.2908
   355.44         289.1719
   355.58         287.8353
   355.72         286.3427
   355.86         284.7621
   356.00         283.1352
   356.14         281.4807
   356.28         279.8112
   356.42         278.1366
   356.56         276.4487
   356.70         274.7222
   356.84         272.9366
   356.98         271.1053
   357.12         269.2764
   357.26         267.5031
   357.40         265.8285
   357.54         264.2934
   357.68         262.9477
   357.82         261.8440
   357.96         261.0179
   358.10         260.4690
   358.24         260.1554
   358.38         259.9918
   358.52         259.8791
   358.66         259.7384
   358.80         259.5083
   358.94         259.1405
   359.08         258.6064
   359.22         257.9044
   359.36         257.0672
   359.50         256.1666
   359.64         255.3038
   359.78         254.5738
   359.92         254.0391
   360.06         253.7302
   360.20         253.6540
   360.34         253.7866
   360.48         254.0644
   360.62         254.3952
   360.76         254.6855
   360.90         254.8696
   361.04         254.9204
   361.18         254.8365
   361.32         254.6135
   361.46         254.2359
   361.60         253.7054
   361.74         253.0610
   361.88         252.3668
   362.02         251.6878
   362.16         251.0813
   362.30         250.5955
   362.44         250.2568
   362.58         250.0598
   362.72         249.9747
   362.86         249.9441
   363.00         249.8963
   363.14         249.7828
   363.28         249.5992
   363.42         249.3744
   363.56         249.1367
   363.70         248.8985
   363.84         248.6771
   363.98         248.5065
   364.12         248.4365
   364.26         248.5384
   364.40         248.8837
   364.54         249.5022
   364.68         250.3716
   364.82         251.4516
   364.96         252.6897
   365.10         253.9991
   365.24         255.2674
   365.38         256.3767
   365.52         257.2161
   365.66         257.7072
   365.80         257.8195
   365.94         257.5516
   366.08         256.9081
   366.22         255.9183
   366.36         254.6575
   366.50         253.2361
   366.64         251.7718
   366.78         250.3647
   366.92         249.0850
   367.06         247.9612
   367.20         246.9947
   367.34         246.1772
   367.48         245.4917
   367.62         244.9117
   367.76         244.4113
   367.90         243.9592
   368.04         243.5007
   368.18         242.9909
   368.32         242.4421
   368.46         241.9168
   368.60         241.4841
   368.74         241.2028
   368.88         241.1162
   369.02         241.2213
   369.16         241.4680
   369.30         241.7857
   369.44         242.0885
   369.58         242.2966
   369.72         242.3557
   369.86         242.2254
   370.00         241.8669
   370.14         241.2687
   370.28         240.4716
   370.42         239.5469
   370.56         238.5672
   370.70         237.6164
   370.84         236.7946
   370.98         236.1717
   371.12         235.7467
   371.26         235.4655
   371.40         235.2455
   371.54         234.9810
   371.68         234.5790
   371.82         233.9977
   371.96         233.2480
   372.10         232.3773
   372.24         231.4604
   372.38         230.5812
   372.52         229.8037
   372.66         229.1691
   372.80         228.7107
   372.94         228.4526
   373.08         228.3978
   373.22         228.5295
   373.36         228.8208
   373.50         229.2341
   373.64         229.7214
   373.78         230.2208
   373.92         230.6448
   374.06         230.8669
   374.20         230.7440
   374.34         230.1915
   374.48         229.2093
   374.62         227.8442
   374.76         226.1726
   374.90         224.2959
   375.04         222.3330
   375.18         220.4219
   375.32         218.7269
   375.46         217.4157
   375.60         216.5836
   375.74         216.2125
   375.88         216.1979
   376.02         216.3785
   376.16         216.5625
   376.30         216.5778
   376.44         216.3247
   376.58         215.8044
   376.72         215.1113
   376.86         214.4091
   377.00         213.9116
   377.14         213.8137
   377.28         214.2294
   377.42         215.1973
   377.56         216.7008
   377.70         218.6746
   377.84         220.9864
   377.98         223.4324
   378.12         225.7532
   378.26         227.6632
   378.40         228.9163
   378.54         229.3542
   378.68         228.9219
   378.82         227.6784
   378.96         225.7888
   379.10         223.4887
   379.24         221.0331
   379.38         218.6647
   379.52         216.6003
   379.66         215.0173
   379.80         214.0356
   379.94         213.7167
   380.08         214.0875
   380.22         215.1345
   380.36         216.7737
   380.50         218.8548
   380.64         221.2002
   380.78         223.6293
   380.92         225.9718
   381.06         228.0775
   381.20         229.8296
   381.34         231.1742
   381.48         232.1176
   381.62         232.6920
   381.76         232.9314
   381.90         232.8589
   382.04         232.4691
   382.18         231.7076
   382.32         230.4864
   382.46         228.7317
   382.60         226.4363
   382.74         223.6878
   382.88         220.6439
   383.02         217.5066
   383.16         214.5131
   383.30         211.9025
   383.44         209.8782
   383.58         208.5775
   383.72         208.0498
   383.86         208.2696
   384.00         209.1550
   384.14         210.5624
   384.28         212.2854
   384.42         214.0826
   384.56         215.7146
   384.70         216.9671
   384.84         217.6915
   384.98         217.8573
   385.12         217.5555
   385.26         216.9570
   385.40         216.2473
   385.54         215.5696
   385.68         215.0128
   385.82         214.6249
   385.96         214.4264
   386.10         214.4098
   386.24         214.5374
   386.38         214.7536
   386.52         215.0036
   386.66         215.2367
   386.80         215.3940
   386.94         215.4093
   387.08         215.2146
   387.22         214.7415
   387.36         213.9207
   387.50         212.6917
   387.64         211.0122
   387.78         208.8595
   387.92         206.2448
   388.06         203.2439
   388.20         200.0210
   388.34         196.8117
   388.48         193.8762
   388.62         191.4490
   388.76         189.7026
   388.90         188.7504
   389.04         188.6448
   389.18         189.3681
   389.32         190.8326
   389.46         192.8846
   389.60         195.3248
   389.74         197.9266
   389.88         200.4592
   390.02         202.7219
   390.16         204.5623
   390.30         205.8866
   390.44         206.6746
   390.58         206.9820
   390.72         206.9099
   390.86         206.5517
   391.00         205.9604
   391.14         205.1650
   391.28         204.1914
   391.42         203.0674
   391.56         201.8259
   391.70         200.5051
   391.84         199.1513
   391.98         197.8085
   392.12         196.5007
   392.26         195.2339
   392.40         194.0144
   392.54         192.8692
   392.68         191.8505
   392.82         191.0195
   392.96         190.4291
   393.10         190.1141
   393.24         190.0818
   393.38         190.3056
   393.52         190.7319
   393.66         191.3105
   393.80         192.0031
   393.94         192.7541
   394.08         193.4854
   394.22         194.1151
   394.36         194.5713
   394.50         194.7953
   394.64         194.7511
   394.78         194.4430
   394.92         193.9109
   395.06         193.2087
   395.20         192.3857
   395.34         191.4689
   395.48         190.4367
   395.62         189.2044
   395.76         187.6491
   395.90         185.6642
   396.04         183.2081
   396.18         180.3263
   396.32         177.1591
   396.46         173.9200
   396.60         170.8485
   396.74         168.1822
   396.88         166.1365
   397.02         164.8780
   397.16         164.5057
   397.30         165.0376
   397.44         166.3974
   397.58         168.4152
   397.72         170.8579
   397.86         173.4715
   398.00         175.9999
   398.14         178.2018
   398.28         179.9058
   398.42         181.0549
   398.56         181.6980
   398.70         181.9421
   398.84         181.9038
   398.98         181.6881
   399.12         181.3726
   399.26         180.9992
   399.40         180.5930
   399.54         180.1804
   399.68         179.7901
   399.82         179.4447
   399.96         179.1523
   400.10         178.9098
   400.24         178.7097
   400.38         178.5507
   400.52         178.4462
   400.66         178.4140
   400.80         178.4678
   400.94         178.6080
   401.08         178.7983
   401.22         178.9650
   401.36         179.0231
   401.50         178.8995
   401.64         178.5494
   401.78         177.9573
   401.92         177.1374
   402.06         176.1283
   402.20         174.9728
   402.34         173.7162
   402.48         172.4233
   402.62         171.1832
   402.76         170.0917
   402.90         169.2339
   403.04         168.6737
   403.18         168.4347
   403.32         168.4896
   403.46         168.7736
   403.60         169.2088
   403.74         169.7260
   403.88         170.2809
   404.02         170.8489
   404.16         171.4206
   404.30         172.0004
   404.44         172.5845
   404.58         173.1503
   404.72         173.6667
   404.86         174.1110
   405.00         174.4822
   405.14         174.7930
   405.28         175.0492
   405.42         175.2418
   405.56         175.3523
   405.70         175.3569
   405.84         175.2345
   405.98         174.9822
   406.12         174.6159
   406.26         174.1604
   406.40         173.6410
   406.54         173.0750
   406.68         172.4716
   406.82         171.8411
   406.96         171.1946
   407.10         170.5418
   407.24         169.9027
   407.38         169.3123
   407.52         168.8008
   407.66         168.3762
   407.80         168.0338
   407.94         167.7647
   408.08         167.5479
   408.22         167.3522
   408.36         167.1453
   408.50         166.8910
   408.64         166.5379
   408.78         166.0009
   408.92         165.1684
   409.06         163.9367
   409.20         162.2472
   409.34         160.1149
   409.48         157.6394
   409.62         154.9942
   409.76         152.3889
   409.90         150.0351
   410.04         148.1244
   410.18         146.8046
   410.32         146.1673
   410.46         146.2460
   410.60         147.0080
   410.74         148.3555
   410.88         150.1424
   411.02         152.1846
   411.16         154.2738
   411.30         156.2100
   411.44         157.8388
   411.58         159.0813
   411.72         159.9409
   411.86         160.4816
   412.00         160.7913
   412.14         160.9544
   412.28         161.0338
   412.42         161.0653
   412.56         161.0665
   412.70         161.0397
   412.84         160.9778
   412.98         160.8798
   413.12         160.7511
   413.26         160.5998
   413.40         160.4324
   413.54         160.2499
   413.68         160.0492
   413.82         159.8303
   413.96         159.6020
   414.10         159.3801
   414.24         159.1779
   414.38         159.0069
   414.52         158.8741
   414.66         158.7789
   414.80         158.7151
   414.94         158.6664
   415.08         158.6093
   415.22         158.5180
   415.36         158.3690
   415.50         158.1502
   415.64         157.8544
   415.78         157.4737
   415.92         157.0104
   416.06         156.4732
   416.20         155.8749
   416.34         155.2434
   416.48         154.6211
   416.62         154.0518
   416.76         153.5690
   416.90         153.1946
   417.04         152.9412
   417.18         152.8049
   417.32         152.7679
   417.46         152.8039
   417.60         152.8791
   417.74         152.9595
   417.88         153.0074
   418.02         152.9778
   418.16         152.8275
   418.30         152.5249
   418.44         152.0572
   418.58         151.4246
   418.72         150.6291
   418.86         149.6770
   419.00         148.5886
   419.14         147.4008
   419.28         146.1701
   419.42         144.9766
   419.56         143.9128
   419.70         143.0600
   419.84         142.4737
   419.98         142.1858
   420.12         142.1991
   420.26         142.4780
   420.40         142.9589
   420.54         143.5668
   420.68         144.2268
   420.82         144.8757
   420.96         145.4660
   421.10         145.9678
   421.24         146.3676
   421.38         146.6614
   421.52         146.8557
   421.66         146.9751
   421.80         147.0582
   421.94         147.1444
   422.08         147.2550
   422.22         147.3814
   422.36         147.4928
   422.50         147.5566
   422.64         147.5489
   422.78         147.4495
   422.92         147.2503
   423.06         146.9688
   423.20         146.6427
   423.34         146.3077
   423.48         145.9909
   423.62         145.7138
   423.76         145.4909
   423.90         145.3277
   424.04         145.2197
   424.18         145.1590
   424.32         145.1449
   424.46         145.1798
   424.60         145.2550
   424.74         145.3464
   424.88         145.4220
   425.02         145.4521
   425.16         145.4128
   425.30         145.2814
   425.44         145.0383
   425.58         144.6779
   425.72         144.2100
   425.86         143.6536
   426.00         143.0336
   426.14         142.3842
   426.28         141.7432
   426.42         141.1439
   426.56         140.6133
   426.70         140.1670
   426.84         139.8111
   426.98         139.5496
   427.12         139.3815
   427.26         139.2995
   427.40         139.2941
   427.54         139.3509
   427.68         139.4505
   427.82         139.5738
   427.96         139.7011
   428.10         139.8119
   428.24         139.8924
   428.38         139.9345
   428.52         139.9317
   428.66         139.8780
   428.80         139.7653
   428.94         139.5847
   429.08         139.3347
   429.22         139.0268
   429.36         138.6834
   429.50         138.3348
   429.64         138.0165
   429.78         137.7628
   429.92         137.5980
   430.06         137.5287
   430.20         137.5395
   430.34         137.6005
   430.48         137.6732
   430.62         137.7180
   430.76         137.7059
   430.90         137.6262
   431.04         137.4837
   431.18         137.2932
   431.32         137.0732
   431.46         136.8414
   431.60         136.6122
   431.74         136.3998
   431.88         136.2159
   432.02         136.0595
   432.16         135.9169
   432.30         135.7599
   432.44         135.5374
   432.58         135.1660
   432.72         134.5364
   432.86         133.5447
   433.00         132.1309
   433.14         130.2993
   433.28         128.1249
   433.42         125.7444
   433.56         123.3317
   433.70         121.0726
   433.84         119.1415
   433.98         117.6876
   434.12         116.8224
   434.26         116.6116
   434.40         117.0697
   434.54         118.1494
   434.68         119.7404
   434.82         121.6857
   434.96         123.7988
   435.10         125.8856
   435.24         127.7758
   435.38         129.3520
   435.52         130.5648
   435.66         131.4226
   435.80         131.9632
   435.94         132.2291
   436.08         132.2610
   436.22         132.1055
   436.36         131.8208
   436.50         131.4643
   436.64         131.0797
   436.78         130.6930
   436.92         130.3179
   437.06         129.9619
   437.20         129.6239
   437.34         129.2986
   437.48         128.9850
   437.62         128.6856
   437.76         128.4038
   437.90         128.1445
   438.04         127.9133
   438.18         127.7110
   438.32         127.5339
   438.46         127.3775
   438.60         127.2425
   438.74         127.1402
   438.88         127.0826
   439.02         127.0680
   439.16         127.0784
   439.30         127.0879
   439.44         127.0766
   439.58         127.0336
   439.72         126.9535
   439.86         126.8376
   440.00         126.6911
   440.14         126.5141
   440.28         126.2978
   440.42         126.0279
   440.56         125.6909
   440.70         125.2758
   440.84         124.7759
   440.98         124.1968
   441.12         123.5542
   441.26         122.8638
   441.40         122.1408
   441.54         121.4068
   441.68         120.6871
   441.82         119.9975
   441.96         119.3380
   442.10         118.7031
   442.24         118.0898
   442.38         117.4994
   442.52         116.9380
   442.66         116.4084
   442.80         115.9124
   442.94         115.4620
   443.08         115.0801
   443.22         114.7966
   443.36         114.6441
   443.50         114.6528
   443.64         114.8439
   443.78         115.2219
   443.92         115.7712
   444.06         116.4646
   444.20         117.2683
   444.34         118.1398
   444.48         119.0260
   444.62         119.8722
   444.76         120.6320
   444.90         121.2671
   445.04         121.7475
   445.18         122.0596
   445.32         122.2085
   445.46         122.2129
   445.60         122.0989
   445.74         121.8946
   445.88         121.6231
   446.02         121.2942
   446.16         120.9102
   446.30         120.4808
   446.44         120.0276
   446.58         119.5749
   446.72         119.1433
   446.86         118.7470
   447.00         118.3895
   447.14         118.0626
   447.28         117.7558
   447.42         117.4699
   447.56         117.2215
   447.70         117.0319
   447.84         116.9114
   447.98         116.8544
   448.12         116.8429
   448.26         116.8552
   448.40         116.8782
   448.54         116.9106
   448.68         116.9597
   448.82         117.0357
   448.96         117.1425
   449.10         117.2644
   449.24         117.3698
   449.38         117.4289
   449.52         117.4245
   449.66         117.3522
   449.80         117.2206
   449.94         117.0493
   450.08         116.8608
   450.22         116.6687
   450.36         116.4770
   450.50         116.2902
   450.64         116.1206
   450.78         115.9817
   450.92         115.8799
   451.06         115.8123
   451.20         115.7687
   451.34         115.7321
   451.48         115.6792
   451.62         115.5918
   451.76         115.4690
   451.90         115.3267
   452.04         115.1836
   452.18         115.0476
   452.32         114.9207
   452.46         114.8001
   452.60         114.6707
   452.74         114.5033
   452.88         114.2631
   453.02         113.9227
   453.16         113.4686
   453.30         112.9028
   453.44         112.2478
   453.58         111.5441
   453.72         110.8432
   453.86         110.2015
   454.00         109.6714
   454.14         109.2976
   454.28         109.1181
   454.42         109.1565
   454.56         109.4102
   454.70         109.8503
   454.84         110.4309
   454.98         111.0965
   455.12         111.7860
   455.26         112.4384
   455.40         113.0026
   455.54         113.4418
   455.68         113.7354
   455.82         113.8770
   455.96         113.8699
   456.10         113.7268
   456.24         113.4664
   456.38         113.1115
   456.52         112.6918
   456.66         112.2478
   456.80         111.8222
   456.94         111.4508
   457.08         111.1601
   457.22         110.9692
   457.36         110.8863
   457.50         110.9053
   457.64         111.0097
   457.78         111.1736
   457.92         111.3604
   458.06         111.5246
   458.20         111.6265
   458.34         111.6460
   458.48         111.5785
   458.62         111.4265
   458.76         111.2002
   458.90         110.9151
   459.04         110.5858
   459.18         110.2243
   459.32         109.8394
   459.46         109.4438
   459.60         109.0620
   459.74         108.7228
   459.88         108.4482
   460.02         108.2448
   460.16         108.1082
   460.30         108.0297
   460.44         107.9978
   460.58         108.0045
   460.72         108.0480
   460.86         108.1259
   461.00         108.2246
   461.14         108.3154
   461.28         108.3671
   461.42         108.3581
   461.56         108.2749
   461.70         108.1078
   461.84         107.8559
   461.98         107.5325
   462.12         107.1661
   462.26         106.7890
   462.40         106.4243
   462.54         106.0870
   462.68         105.7938
   462.82         105.5698
   462.96         105.4412
   463.10         105.4216
   463.24         105.5074
   463.38         105.6815
   463.52         105.9176
   463.66         106.1868
   463.80         106.4646
   463.94         106.7311
   464.08         106.9685
   464.22         107.1602
   464.36         107.2963
   464.50         107.3773
   464.64         107.4120
   464.78         107.4133
   464.92         107.3907
   465.06         107.3495
   465.20         107.3010
   465.34         107.2638
   465.48         107.2459
   465.62         107.2375
   465.76         107.2229
   465.90         107.1926
   466.04         107.1418
   466.18         107.0628
   466.32         106.9474
   466.46         106.7902
   466.60         106.5881
   466.74         106.3420
   466.88         106.0535
   467.02         105.7185
   467.16         105.3225
   467.30         104.8382
   467.44         104.2338
   467.58         103.4893
   467.72         102.6135
   467.86         101.6418
   468.00         100.6230
   468.14         99.6196
   468.28         98.7100
   468.42         97.9817
   468.56         97.5064
   468.70         97.3196
   468.84         97.4225
   468.98         97.7877
   469.12         98.3688
   469.26         99.1051
   469.40         99.9196
   469.54         100.7269
   469.68         101.4464
   469.82         102.0109
   469.96         102.3784
   470.10         102.5426
   470.24         102.5284
   470.38         102.3772
   470.52         102.1305
   470.66         101.8261
   470.80         101.4946
   470.94         101.1508
   471.08         100.7997
   471.22         100.4432
   471.36         100.0844
   471.50         99.7342
   471.64         99.4098
   471.78         99.1275
   471.92         98.8945
   472.06         98.7086
   472.20         98.5663
   472.34         98.4628
   472.48         98.3918
   472.62         98.3491
   472.76         98.3346
   472.90         98.3517
   473.04         98.4033
   473.18         98.4854
   473.32         98.5910
   473.46         98.7122
   473.60         98.8355
   473.74         98.9426
   473.88         99.0119
   474.02         99.0187
   474.16         98.9433
   474.30         98.7802
   474.44         98.5386
   474.58         98.2380
   474.72         97.8981
   474.86         97.5312
   475.00         97.1484
   475.14         96.7627
   475.28         96.3912
   475.42         96.0548
   475.56         95.7700
   475.70         95.5407
   475.84         95.3632
   475.98         95.2388
   476.12         95.1659
   476.26         95.1315
   476.40         95.1253
   476.54         95.1482
   476.68         95.2048
   476.82         95.2948
   476.96         95.4130
   477.10         95.5510
   477.24         95.6948
   477.38         95.8254
   477.52         95.9266
   477.66         95.9916
   477.80         96.0189
   477.94         96.0045
   478.08         95.9483
   478.22         95.8558
   478.36         95.7323
   478.50         95.5865
   478.64         95.4287
   478.78         95.2603
   478.92         95.0742
   479.06         94.8657
   479.20         94.6311
   479.34         94.3659
   479.48         94.0745
   479.62         93.7717
   479.76         93.4774
   479.90         93.2044
   480.04         92.9569
   480.18         92.7409
   480.32         92.5633
   480.46         92.4256
   480.60         92.3258
   480.74         92.2611
   480.88         92.2180
   481.02         92.1752
   481.16         92.1162
   481.30         92.0317
   481.44         91.9180
   481.58         91.7829
   481.72         91.6464
   481.86         91.5297
   482.00         91.4474
   482.14         91.4049
   482.28         91.3973
   482.42         91.4127
   482.56         91.4377
   482.70         91.4660
   482.84         91.4972
   482.98         91.5219
   483.12         91.5256
   483.26         91.5000
   483.40         91.4423
   483.54         91.3525
   483.68         91.2325
   483.82         91.0831
   483.96         90.9029
   484.10         90.6886
   484.24         90.4339
   484.38         90.1237
   484.52         89.7302
   484.66         89.2193
   484.80         88.5568
   484.94         87.7119
   485.08         86.6653
   485.22         85.4203
   485.36         84.0069
   485.50         82.4776
   485.64         80.9075
   485.78         79.3983
   485.92         78.0639
   486.06         77.0044
   486.20         76.2922
   486.34         75.9673
   486.48         76.0409
   486.62         76.4963
   486.76         77.2844
   486.90         78.3266
   487.04         79.5225
   487.18         80.7642
   487.32         81.9522
   487.46         83.0067
   487.60         83.8793
   487.74         84.5542
   487.88         85.0403
   488.02         85.3631
   488.16         85.5568
   488.30         85.6564
   488.44         85.6910
   488.58         85.6789
   488.72         85.6301
   488.86         85.5541
   489.00         85.4632
   489.14         85.3706
   489.28         85.2840
   489.42         85.2053
   489.56         85.1348
   489.70         85.0710
   489.84         85.0143
   489.98         84.9672
   490.12         84.9322
   490.26         84.9119
   490.40         84.9056
   490.54         84.9080
   490.68         84.9127
   490.82         84.9122
   490.96         84.8970
   491.10         84.8635
   491.24         84.8171
   491.38         84.7701
   491.52         84.7341
   491.66         84.7146
   491.80         84.7164
   491.94         84.7518
   492.08         84.8370
   492.22         84.9835
   492.36         85.1921
   492.50         85.4509
   492.64         85.7336
   492.78         86.0018
   492.92         86.2221
   493.06         86.3753
   493.20         86.4546
   493.34         86.4548
   493.48         86.3733
   493.62         86.2170
   493.76         85.9997
   493.90         85.7391
   494.04         85.4519
   494.18         85.1502
   494.32         84.8460
   494.46         84.5610
   494.60         84.3205
   494.74         84.1420
   494.88         84.0352
   495.02         84.0018
   495.16         84.0363
   495.30         84.1261
   495.44         84.2529
   495.58         84.3980
   495.72         84.5401
   495.86         84.6501
   496.00         84.6975
   496.14         84.6670
   496.28         84.5575
   496.42         84.3725
   496.56         84.1179
   496.70         83.7985
   496.84         83.4182
   496.98         82.9860
   497.12         82.5212
   497.26         82.0505
   497.40         81.6026
   497.54         81.2050
   497.68         80.8767
   497.82         80.6272
   497.96         80.4592
   498.10         80.3731
   498.24         80.3689
   498.38         80.4367
   498.52         80.5534
   498.66         80.6907
   498.80         80.8235
   498.94         80.9279
   499.08         80.9797
   499.22         80.9587
   499.36         80.8554
   499.50         80.6780
   499.64         80.4525
   499.78         80.2124
   499.92         79.9822
   500.06         79.7714
   500.20         79.5801
   500.34         79.4011
   500.48         79.2255
   500.62         79.0496
   500.76         78.8754
   500.90         78.7068
   501.04         78.5462
   501.18         78.4007
   501.32         78.2857
   501.46         78.2124
   501.60         78.1787
   501.74         78.1735
   501.88         78.1843
   502.02         78.1994
   502.16         78.2088
   502.30         78.2038
   502.44         78.1726
   502.58         78.1042
   502.72         77.9941
   502.86         77.8516
   503.00         77.6971
   503.14         77.5554
   503.28         77.4457
   503.42         77.3738
   503.56         77.3353
   503.70         77.3176
   503.84         77.3025
   503.98         77.2714
   504.12         77.2089
   504.26         77.1094
   504.40         76.9785
   504.54         76.8303
   504.68         76.6818
   504.82         76.5512
   504.96         76.4569
   505.10         76.4093
   505.24         76.4098
   505.38         76.4543
   505.52         76.5349
   505.66         76.6360
   505.80         76.7349
   505.94         76.8076
   506.08         76.8366
   506.22         76.8187
   506.36         76.7638
   506.50         76.6902
   506.64         76.6180
   506.78         76.5607
   506.92         76.5246
   507.06         76.5106
   507.20         76.5133
   507.34         76.5227
   507.48         76.5313
   507.62         76.5359
   507.76         76.5300
   507.90         76.5050
   508.04         76.4570
   508.18         76.3862
   508.32         76.2946
   508.46         76.1831
   508.60         76.0529
   508.74         75.9140
   508.88         75.7830
   509.02         75.6704
   509.16         75.5755
   509.30         75.4911
   509.44         75.4101
   509.58         75.3294
   509.72         75.2445
   509.86         75.1482
   510.00         75.0362
   510.14         74.9066
   510.28         74.7548
   510.42         74.5742
   510.56         74.3633
   510.70         74.1260
   510.84         73.8696
   510.98         73.6073
   511.12         73.3581
   511.26         73.1409
   511.40         72.9693
   511.54         72.8458
   511.68         72.7626
   511.82         72.7079
   511.96         72.6709
   512.10         72.6443
   512.24         72.6263
   512.38         72.6179
   512.52         72.6171
   512.66         72.6179
   512.80         72.6128
   512.94         72.5972
   513.08         72.5701
   513.22         72.5280
   513.36         72.4684
   513.50         72.3961
   513.64         72.3172
   513.78         72.2342
   513.92         72.1482
   514.06         72.0585
   514.20         71.9630
   514.34         71.8613
   514.48         71.7587
   514.62         71.6670
   514.76         71.5992
   514.90         71.5638
   515.04         71.5626
   515.18         71.5913
   515.32         71.6455
   515.46         71.7199
   515.60         71.8002
   515.74         71.8661
   515.88         71.9011
   516.02         71.8986
   516.16         71.8548
   516.30         71.7643
   516.44         71.6290
   516.58         71.4593
   516.72         71.2651
   516.86         71.0578
   517.00         70.8533
   517.14         70.6654
   517.28         70.5012
   517.42         70.3580
   517.56         70.2274
   517.70         70.1000
   517.84         69.9682
   517.98         69.8284
   518.12         69.6771
   518.26         69.5156
   518.40         69.3556
   518.54         69.2129
   518.68         69.0972
   518.82         69.0104
   518.96         68.9510
   519.10         68.9151
   519.24         68.8926
   519.38         68.8724
   519.52         68.8444
   519.66         68.7966
   519.80         68.7187
   519.94         68.6068
   520.08         68.4629
   520.22         68.2963
   520.36         68.1234
   520.50         67.9603
   520.64         67.8158
   520.78         67.6934
   520.92         67.5937
   521.06         67.5148
   521.20         67.4516
   521.34         67.3961
   521.48         67.3436
   521.62         67.2918
   521.76         67.2343
   521.90         67.1644
   522.04         67.0768
   522.18         66.9647
   522.32         66.8240
   522.46         66.6603
   522.60         66.4833
   522.74         66.2994
   522.88         66.1138
   523.02         65.9334
   523.16         65.7623
   523.30         65.6052
   523.44         65.4710
   523.58         65.3680
   523.72         65.2977
   523.86         65.2554
   524.00         65.2333
   524.14         65.2273
   524.28         65.2333
   524.42         65.2470
   524.56         65.2705
   524.70         65.3107
   524.84         65.3745
   524.98         65.4647
   525.12         65.5787
   525.26         65.7104
   525.40         65.8501
   525.54         65.9884
   525.68         66.1160
   525.82         66.2199
   525.96         66.2858
   526.10         66.3017
   526.24         66.2604
   526.38         66.1628
   526.52         66.0197
   526.66         65.8473
   526.80         65.6602
   526.94         65.4676
   527.08         65.2760
   527.22         65.0921
   527.36         64.9204
   527.50         64.7586
   527.64         64.6025
   527.78         64.4520
   527.92         64.3119
   528.06         64.1871
   528.20         64.0790
   528.34         63.9823
   528.48         63.8855
   528.62         63.7772
   528.76         63.6524
   528.90         63.5114
   529.04         63.3566
   529.18         63.1923
   529.32         63.0254
   529.46         62.8632
   529.60         62.7138
   529.74         62.5846
   529.88         62.4781
   530.02         62.3954
   530.16         62.3415
   530.30         62.3215
   530.44         62.3354
   530.58         62.3766
   530.72         62.4323
   530.86         62.4861
   531.00         62.5226
   531.14         62.5313
   531.28         62.5092
   531.42         62.4612
   531.56         62.3954
   531.70         62.3174
   531.84         62.2266
   531.98         62.1179
   532.12         61.9889
   532.26         61.8431
   532.40         61.6887
   532.54         61.5369
   532.68         61.3983
   532.82         61.2757
   532.96         61.1633
   533.10         61.0536
   533.24         60.9410
   533.38         60.8230
   533.52         60.6998
   533.66         60.5766
   533.80         60.4613
   533.94         60.3635
   534.08         60.2952
   534.22         60.2663
   534.36         60.2801
   534.50         60.3347
   534.64         60.4270
   534.78         60.5511
   534.92         60.6914
   535.06         60.8249
   535.20         60.9271
   535.34         60.9792
   535.48         60.9735
   535.62         60.9114
   535.76         60.7972
   535.90         60.6388
   536.04         60.4468
   536.18         60.2387
   536.32         60.0356
   536.46         59.8540
   536.60         59.7045
   536.74         59.5927
   536.88         59.5155
   537.02         59.4607
   537.16         59.4095
   537.30         59.3441
   537.44         59.2533
   537.58         59.1346
   537.72         58.9962
   537.86         58.8558
   538.00         58.7338
   538.14         58.6469
   538.28         58.6031
   538.42         58.6045
   538.56         58.6511
   538.70         58.7398
   538.84         58.8625
   538.98         59.0017
   539.12         59.1325
   539.26         59.2321
   539.40         59.2792
   539.54         59.2510
   539.68         59.1261
   539.82         58.8892
   539.96         58.5375
   540.10         58.0787
   540.24         57.5284
   540.38         56.9127
   540.52         56.2662
   540.66         55.6283
   540.80         55.0397
   540.94         54.5391
   541.08         54.1601
   541.22         53.9288
   541.36         53.8583
   541.50         53.9446
   541.64         54.1658
   541.78         54.4897
   541.92         54.8764
   542.06         55.2816
   542.20         55.6646
   542.34         55.9939
   542.48         56.2509
   542.62         56.4329
   542.76         56.5490
   542.90         56.6142
   543.04         56.6435
   543.18         56.6478
   543.32         56.6364
   543.46         56.6153
   543.60         56.5851
   543.74         56.5449
   543.88         56.4927
   544.02         56.4243
   544.16         56.3346
   544.30         56.2183
   544.44         56.0717
   544.58         55.8924
   544.72         55.6864
   544.86         55.4692
   545.00         55.2568
   545.14         55.0623
   545.28         54.8946
   545.42         54.7579
   545.56         54.6526
   545.70         54.5781
   545.84         54.5383
   545.98         54.5424
   546.12         54.5961
   546.26         54.6983
   546.40         54.8391
   546.54         54.9996
   546.68         55.1581
   546.82         55.2959
   546.96         55.3962
   547.10         55.4471
   547.24         55.4458
   547.38         55.3948
   547.52         55.2977
   547.66         55.1558
   547.80         54.9711
   547.94         54.7526
   548.08         54.5182
   548.22         54.2930
   548.36         54.1042
   548.50         53.9747
   548.64         53.9167
   548.78         53.9302
   548.92         54.0074
   549.06         54.1349
   549.20         54.2980
   549.34         54.4818
   549.48         54.6662
   549.62         54.8256
   549.76         54.9387
   549.90         54.9947
   550.04         54.9905
   550.18         54.9309
   550.32         54.8256
   550.46         54.6867
   550.60         54.5304
   550.74         54.3761
   550.88         54.2388
   551.02         54.1222
   551.16         54.0214
   551.30         53.9309
   551.44         53.8455
   551.58         53.7595
   551.72         53.6665
   551.86         53.5596
   552.00         53.4321
   552.14         53.2811
   552.28         53.1110
   552.42         52.9336
   552.56         52.7604
   552.70         52.5989
   552.84         52.4533
   552.98         52.3251
   553.12         52.2147
   553.26         52.1255
   553.40         52.0613
   553.54         52.0201
   553.68         51.9954
   553.82         51.9825
   553.96         51.9768
   554.10         51.9725
   554.24         51.9638
   554.38         51.9455
   554.52         51.9146
   554.66         51.8734
   554.80         51.8277
   554.94         51.7827
   555.08         51.7397
   555.22         51.6975
   555.36         51.6560
   555.50         51.6162
   555.64         51.5800
   555.78         51.5495
   555.92         51.5240
   556.06         51.4990
   556.20         51.4667
   556.34         51.4217
   556.48         51.3623
   556.62         51.2889
   556.76         51.2046
   556.90         51.1144
   557.04         51.0228
   557.18         50.9336
   557.32         50.8494
   557.46         50.7720
   557.60         50.7033
   557.74         50.6464
   557.88         50.6057
   558.02         50.5844
   558.16         50.5793
   558.30         50.5837
   558.44         50.5894
   558.58         50.5908
   558.72         50.5869
   558.86         50.5770
   559.00         50.5582
   559.14         50.5259
   559.28         50.4779
   559.42         50.4156
   559.56         50.3419
   559.70         50.2618
   559.84         50.1816
   559.98         50.1042
   560.12         50.0311
   560.26         49.9653
   560.40         49.9088
   560.54         49.8623
   560.68         49.8240
   560.82         49.7913
   560.96         49.7660
   561.10         49.7514
   561.24         49.7490
   561.38         49.7552
   561.52         49.7620
   561.66         49.7629
   561.80         49.7572
   561.94         49.7482
   562.08         49.7398
   562.22         49.7327
   562.36         49.7242
   562.50         49.7079
   562.64         49.6791
   562.78         49.6396
   562.92         49.5914
   563.06         49.5329
   563.20         49.4635
   563.34         49.3857
   563.48         49.3044
   563.62         49.2222
   563.76         49.1374
   563.90         49.0481
   564.04         48.9545
   564.18         48.8599
   564.32         48.7701
   564.46         48.6890
   564.60         48.6170
   564.74         48.5518
   564.88         48.4907
   565.02         48.4333
   565.16         48.3834
   565.30         48.3479
   565.44         48.3307
   565.58         48.3307
   565.72         48.3453
   565.86         48.3708
   566.00         48.4003
   566.14         48.4235
   566.28         48.4285
   566.42         48.4086
   566.56         48.3610
   566.70         48.2838
   566.84         48.1806
   566.98         48.0592
   567.12         47.9281
   567.26         47.7974
   567.40         47.6778
   567.54         47.5779
   567.68         47.5020
   567.82         47.4479
   567.96         47.4125
   568.10         47.3963
   568.24         47.4030
   568.38         47.4337
   568.52         47.4833
   568.66         47.5451
   568.80         47.6116
   568.94         47.6741
   569.08         47.7235
   569.22         47.7455
   569.36         47.7268
   569.50         47.6627
   569.64         47.5545
   569.78         47.4063
   569.92         47.2263
   570.06         47.0283
   570.20         46.8314
   570.34         46.6566
   570.48         46.5221
   570.62         46.4402
   570.76         46.4123
   570.90         46.4292
   571.04         46.4724
   571.18         46.5203
   571.32         46.5536
   571.46         46.5573
   571.60         46.5211
   571.74         46.4405
   571.88         46.3176
   572.02         46.1637
   572.16         45.9957
   572.30         45.8287
   572.44         45.6726
   572.58         45.5330
   572.72         45.4138
   572.86         45.3183
   573.00         45.2486
   573.14         45.2046
   573.28         45.1847
   573.42         45.1865
   573.56         45.2081
   573.70         45.2434
   573.84         45.2856
   573.98         45.3321
   574.12         45.3828
   574.26         45.4350
   574.40         45.4833
   574.54         45.5218
   574.68         45.5478
   574.82         45.5618
   574.96         45.5665
   575.10         45.5665
   575.24         45.5690
   575.38         45.5787
   575.52         45.5932
   575.66         45.6049
   575.80         45.6031
   575.94         45.5771
   576.08         45.5200
   576.22         45.4296
   576.36         45.3078
   576.50         45.1593
   576.64         44.9889
   576.78         44.7939
   576.92         44.5639
   577.06         44.2921
   577.20         43.9844
   577.34         43.6582
   577.48         43.3366
   577.62         43.0434
   577.76         42.7984
   577.90         42.6143
   578.04         42.4944
   578.18         42.4362
   578.32         42.4341
   578.46         42.4752
   578.60         42.5388
   578.74         42.6001
   578.88         42.6354
   579.02         42.6237
   579.16         42.5500
   579.30         42.4111
   579.44         42.2158
   579.58         41.9862
   579.72         41.7545
   579.86         41.5503
   580.00         41.3933
   580.14         41.2927
   580.28         41.2468
   580.42         41.2465
   580.56         41.2802
   580.70         41.3372
   580.84         41.4092
   580.98         41.4905
   581.12         41.5770
   581.26         41.6688
   581.40         41.7689
   581.54         41.8808
   581.68         42.0077
   581.82         42.1517
   581.96         42.3108
   582.10         42.4744
   582.24         42.6273
   582.38         42.7550
   582.52         42.8481
   582.66         42.9045
   582.80         42.9273
   582.94         42.9204
   583.08         42.8892
   583.22         42.8432
   583.36         42.7940
   583.50         42.7510
   583.64         42.7204
   583.78         42.7053
   583.92         42.7048
   584.06         42.7121
   584.20         42.7165
   584.34         42.7065
   584.48         42.6708
   584.62         42.5983
   584.76         42.4838
   584.90         42.3318
   585.04         42.1547
   585.18         41.9687
   585.32         41.7922
   585.46         41.6445
   585.60         41.5412
   585.74         41.4917
   585.88         41.4986
   586.02         41.5519
   586.16         41.6287
   586.30         41.7005
   586.44         41.7414
   586.58         41.7318
   586.72         41.6614
   586.86         41.5297
   587.00         41.3480
   587.14         41.1385
   587.28         40.9285
   587.42         40.7427
   587.56         40.5932
   587.70         40.4730
   587.84         40.3605
   587.98         40.2356
   588.12         40.0855
   588.26         39.8963
   588.40         39.6518
   588.54         39.3459
   588.68         38.9916
   588.82         38.6180
   588.96         38.2639
   589.10         37.9688
   589.24         37.7653
   589.38         37.6747
   589.52         37.7060
   589.66         37.8558
   589.80         38.1089
   589.94         38.4374
   590.08         38.8061
   590.22         39.1811
   590.36         39.5358
   590.50         39.8570
   590.64         40.1416
   590.78         40.3846
   590.92         40.5763
   591.06         40.7098
   591.20         40.7885
   591.34         40.8210
   591.48         40.8126
   591.62         40.7660
   591.76         40.6860
   591.90         40.5809
   592.04         40.4612
   592.18         40.3367
   592.32         40.2162
   592.46         40.1099
   592.60         40.0292
   592.74         39.9826
   592.88         39.9710
   593.02         39.9883
   593.16         40.0253
   593.30         40.0718
   593.44         40.1183
   593.58         40.1528
   593.72         40.1658
   593.86         40.1559
   594.00         40.1248
   594.14         40.0734
   594.28         39.9996
   594.42         39.9043
   594.56         39.7907
   594.70         39.6615
   594.84         39.5200
   594.98         39.3732
   595.12         39.2338
   595.26         39.1135
   595.40         39.0168
   595.54         38.9414
   595.68         38.8828
   595.82         38.8352
   595.96         38.7926
   596.10         38.7514
   596.24         38.7112
   596.38         38.6749
   596.52         38.6452
   596.66         38.6207
   596.80         38.5998
   596.94         38.5819
   597.08         38.5690
   597.22         38.5613
   597.36         38.5575
   597.50         38.5555
   597.64         38.5512
   597.78         38.5419
   597.92         38.5277
   598.06         38.5085
   598.20         38.4855
   598.34         38.4637
   598.48         38.4522
   598.62         38.4619
   598.76         38.4976
   598.90         38.5534
   599.04         38.6170
   599.18         38.6759
   599.32         38.7203
   599.46         38.7412
   599.60         38.7299
   599.74         38.6798
   599.88         38.5886
   600.02         38.4615
   600.16         38.3094
   600.30         38.1447
   600.44         37.9804
   600.58         37.8288
   600.72         37.6976
   600.86         37.5928
   601.00         37.5172
   601.14         37.4672
   601.28         37.4354
   601.42         37.4127
   601.56         37.3956
   601.70         37.3882
   601.84         37.3973
   601.98         37.4271
   602.12         37.4759
   602.26         37.5365
   602.40         37.5988
   602.54         37.6494
   602.68         37.6765
   602.82         37.6685
   602.96         37.6165
   603.10         37.5227
   603.24         37.3983
   603.38         37.2572
   603.52         37.1116
   603.66         36.9692
   603.80         36.8364
   603.94         36.7203
   604.08         36.6278
   604.22         36.5644
   604.36         36.5323
   604.50         36.5294
   604.64         36.5488
   604.78         36.5813
   604.92         36.6186
   605.06         36.6546
   605.20         36.6853
   605.34         36.7101
   605.48         36.7313
   605.62         36.7530
   605.76         36.7766
   605.90         36.7967
   606.04         36.8072
   606.18         36.8046
   606.32         36.7870
   606.46         36.7555
   606.60         36.7138
   606.74         36.6675
   606.88         36.6211
   607.02         36.5778
   607.16         36.5383
   607.30         36.4993
   607.44         36.4568
   607.58         36.4099
   607.72         36.3600
   607.86         36.3107
   608.00         36.2653
   608.14         36.2262
   608.28         36.1937
   608.42         36.1694
   608.56         36.1595
   608.70         36.1720
   608.84         36.2075
   608.98         36.2543
   609.12         36.2970
   609.26         36.3247
   609.40         36.3319
   609.54         36.3164
   609.68         36.2781
   609.82         36.2175
   609.96         36.1379
   610.10         36.0483
   610.24         35.9600
   610.38         35.8833
   610.52         35.8259
   610.66         35.7929
   610.80         35.7859
   610.94         35.8033
   611.08         35.8416
   611.22         35.8957
   611.36         35.9579
   611.50         36.0193
   611.64         36.0742
   611.78         36.1231
   611.92         36.1682
   612.06         36.2097
   612.20         36.2440
   612.34         36.2669
   612.48         36.2775
   612.62         36.2783
   612.76         36.2723
   612.90         36.2608
   613.04         36.2412
   613.18         36.2088
   613.32         36.1602
   613.46         36.0972
   613.60         36.0265
   613.74         35.9569
   613.88         35.8940
   614.02         35.8375
   614.16         35.7846
   614.30         35.7326
   614.44         35.6803
   614.58         35.6297
   614.72         35.5843
   614.86         35.5460
   615.00         35.5174
   615.14         35.4978
   615.28         35.4802
   615.42         35.4549
   615.56         35.4119
   615.70         35.3428
   615.84         35.2459
   615.98         35.1248
   616.12         34.9854
   616.26         34.8350
   616.40         34.6804
   616.54         34.5272
   616.68         34.3815
   616.82         34.2506
   616.96         34.1383
   617.10         34.0454
   617.24         33.9712
   617.38         33.9135
   617.52         33.8681
   617.66         33.8309
   617.80         33.7980
   617.94         33.7681
   618.08         33.7424
   618.22         33.7219
   618.36         33.7085
   618.50         33.7070
   618.64         33.7217
   618.78         33.7545
   618.92         33.8036
   619.06         33.8627
   619.20         33.9232
   619.34         33.9776
   619.48         34.0202
   619.62         34.0483
   619.76         34.0663
   619.90         34.0814
   620.04         34.0974
   620.18         34.1158
   620.32         34.1366
   620.46         34.1575
   620.60         34.1745
   620.74         34.1830
   620.88         34.1799
   621.02         34.1644
   621.16         34.1370
   621.30         34.0988
   621.44         34.0511
   621.58         33.9938
   621.72         33.9262
   621.86         33.8537
   622.00         33.7855
   622.14         33.7318
   622.28         33.7011
   622.42         33.6994
   622.56         33.7256
   622.70         33.7695
   622.84         33.8183
   622.98         33.8596
   623.12         33.8850
   623.26         33.8931
   623.40         33.8878
   623.54         33.8785
   623.68         33.8755
   623.82         33.8869
   623.96         33.9160
   624.10         33.9610
   624.24         34.0167
   624.38         34.0779
   624.52         34.1388
   624.66         34.1914
   624.80         34.2299
   624.94         34.2521
   625.08         34.2542
   625.22         34.2294
   625.36         34.1762
   625.50         34.1035
   625.64         34.0262
   625.78         33.9591
   625.92         33.9091
   626.06         33.8748
   626.20         33.8496
   626.34         33.8214
   626.48         33.7756
   626.62         33.6988
   626.76         33.5828
   626.90         33.4230
   627.04         33.2151
   627.18         32.9564
   627.32         32.6474
   627.46         32.2957
   627.60         31.9174
   627.74         31.5345
   627.88         31.1741
   628.02         30.8643
   628.16         30.6256
   628.30         30.4688
   628.44         30.3960
   628.58         30.4035
   628.72         30.4861
   628.86         30.6359
   629.00         30.8374
   629.14         31.0666
   629.28         31.2994
   629.42         31.5178
   629.56         31.7055
   629.70         31.8488
   629.84         31.9417
   629.98         31.9874
   630.12         31.9965
   630.26         31.9810
   630.40         31.9487
   630.54         31.9040
   630.68         31.8514
   630.82         31.7961
   630.96         31.7436
   631.10         31.7016
   631.24         31.6795
   631.38         31.6855
   631.52         31.7236
   631.66         31.7929
   631.80         31.8890
   631.94         32.0055
   632.08         32.1324
   632.22         32.2565
   632.36         32.3658
   632.50         32.4526
   632.64         32.5125
   632.78         32.5435
   632.92         32.5456
   633.06         32.5191
   633.20         32.4642
   633.34         32.3823
   633.48         32.2773
   633.62         32.1565
   633.76         32.0294
   633.90         31.9067
   634.04         31.7977
   634.18         31.7074
   634.32         31.6350
   634.46         31.5772
   634.60         31.5309
   634.74         31.4941
   634.88         31.4650
   635.02         31.4407
   635.16         31.4165
   635.30         31.3867
   635.44         31.3477
   635.58         31.2996
   635.72         31.2473
   635.86         31.1962
   636.00         31.1508
   636.14         31.1139
   636.28         31.0856
   636.42         31.0644
   636.56         31.0495
   636.70         31.0394
   636.84         31.0293
   636.98         31.0139
   637.12         30.9902
   637.26         30.9566
   637.40         30.9127
   637.54         30.8629
   637.68         30.8137
   637.82         30.7709
   637.96         30.7378
   638.10         30.7174
   638.24         30.7111
   638.38         30.7150
   638.52         30.7185
   638.66         30.7122
   638.80         30.6933
   638.94         30.6651
   639.08         30.6345
   639.22         30.6066
   639.36         30.5816
   639.50         30.5572
   639.64         30.5336
   639.78         30.5133
   639.92         30.5002
   640.06         30.4990
   640.20         30.5131
   640.34         30.5398
   640.48         30.5727
   640.62         30.6054
   640.76         30.6337
   640.90         30.6550
   641.04         30.6678
   641.18         30.6740
   641.32         30.6806
   641.46         30.6949
   641.60         30.7207
   641.74         30.7570
   641.88         30.7973
   642.02         30.8348
   642.16         30.8665
   642.30         30.8900
   642.44         30.9016
   642.58         30.9005
   642.72         30.8891
   642.86         30.8690
   643.00         30.8404
   643.14         30.8053
   643.28         30.7677
   643.42         30.7309
   643.56         30.6955
   643.70         30.6602
   643.84         30.6225
   643.98         30.5795
   644.12         30.5301
   644.26         30.4741
   644.40         30.4097
   644.54         30.3350
   644.68         30.2512
   644.82         30.1628
   644.96         30.0749
   645.10         29.9938
   645.24         29.9282
   645.38         29.8823
   645.52         29.8539
   645.66         29.8393
   645.80         29.8368
   645.94         29.8440
   646.08         29.8552
   646.22         29.8637
   646.36         29.8661
   646.50         29.8615
   646.64         29.8505
   646.78         29.8353
   646.92         29.8187
   647.06         29.8037
   647.20         29.7943
   647.34         29.7951
   647.48         29.8093
   647.62         29.8363
   647.76         29.8732
   647.90         29.9142
   648.04         29.9504
   648.18         29.9722
   648.32         29.9748
   648.46         29.9572
   648.60         29.9210
   648.74         29.8709
   648.88         29.8155
   649.02         29.7638
   649.16         29.7209
   649.30         29.6886
   649.44         29.6669
   649.58         29.6547
   649.72         29.6479
   649.86         29.6421
   650.00         29.6347
   650.14         29.6244
   650.28         29.6115
   650.42         29.5962
   650.56         29.5766
   650.70         29.5508
   650.84         29.5188
   650.98         29.4818
   651.12         29.4405
   651.26         29.3953
   651.40         29.3445
   651.54         29.2848
   651.68         29.2117
   651.82         29.1224
   651.96         29.0190
   652.10         28.9084
   652.24         28.8010
   652.38         28.7063
   652.52         28.6329
   652.66         28.5875
   652.80         28.5740
   652.94         28.5939
   653.08         28.6445
   653.22         28.7209
   653.36         28.8182
   653.50         28.9295
   653.64         29.0461
   653.78         29.1606
   653.92         29.2639
   654.06         29.3441
   654.20         29.3894
   654.34         29.3913
   654.48         29.3438
   654.62         29.2409
   654.76         29.0759
   654.90         28.8426
   655.04         28.5353
   655.18         28.1517
   655.32         27.6977
   655.46         27.1895
   655.60         26.6531
   655.74         26.1222
   655.88         25.6359
   656.02         25.2352
   656.16         24.9560
   656.30         24.8238
   656.44         24.8485
   656.58         25.0237
   656.72         25.3306
   656.86         25.7428
   657.00         26.2271
   657.14         26.7419
   657.28         27.2425
   657.42         27.6898
   657.56         28.0546
   657.70         28.3225
   657.84         28.4968
   657.98         28.5921
   658.12         28.6276
   658.26         28.6222
   658.40         28.5935
   658.54         28.5570
   658.68         28.5237
   658.82         28.4991
   658.96         28.4859
   659.10         28.4858
   659.24         28.4998
   659.38         28.5275
   659.52         28.5657
   659.66         28.6096
   659.80         28.6530
   659.94         28.6933
   660.08         28.7295
   660.22         28.7592
   660.36         28.7806
   660.50         28.7904
   660.64         28.7838
   660.78         28.7579
   660.92         28.7136
   661.06         28.6550
   661.20         28.5878
   661.34         28.5163
   661.48         28.4445
   661.62         28.3760
   661.76         28.3130
   661.90         28.2559
   662.04         28.2057
   662.18         28.1659
   662.32         28.1419
   662.46         28.1376
   662.60         28.1529
   662.74         28.1830
   662.88         28.2218
   663.02         28.2666
   663.16         28.3154
   663.30         28.3644
   663.44         28.4078
   663.58         28.4392
   663.72         28.4542
   663.86         28.4500
   664.00         28.4245
   664.14         28.3775
   664.28         28.3115
   664.42         28.2324
   664.56         28.1483
   664.70         28.0652
   664.84         27.9842
   664.98         27.9015
   665.12         27.8119
   665.26         27.7111
   665.40         27.5978
   665.54         27.4752
   665.68         27.3502
   665.82         27.2289
   665.96         27.1168
   666.10         27.0194
   666.24         26.9419
   666.38         26.8883
   666.52         26.8591
   666.66         26.8511
   666.80         26.8580
   666.94         26.8724
   667.08         26.8883
   667.22         26.8980
   667.36         26.8924
   667.50         26.8669
   667.64         26.8242
   667.78         26.7715
   667.92         26.7169
   668.06         26.6674
   668.20         26.6284
   668.34         26.6049
   668.48         26.5998
   668.62         26.6128
   668.76         26.6405
   668.90         26.6766
   669.04         26.7145
   669.18         26.7489
   669.32         26.7752
   669.46         26.7889
   669.60         26.7882
   669.74         26.7742
   669.88         26.7479
   670.02         26.7127
   670.16         26.6745
   670.30         26.6380
   670.44         26.6037
   670.58         26.5708
   670.72         26.5381
   670.86         26.5051
   671.00         26.4736
   671.14         26.4460
   671.28         26.4242
   671.42         26.4099
   671.56         26.4038
   671.70         26.4060
   671.84         26.4149
   671.98         26.4275
   672.12         26.4404
   672.26         26.4513
   672.40         26.4602
   672.54         26.4676
   672.68         26.4725
   672.82         26.4734
   672.96         26.4695
   673.10         26.4618
   673.24         26.4532
   673.38         26.4467
   673.52         26.4439
   673.66         26.4456
   673.80         26.4495
   673.94         26.4518
   674.08         26.4502
   674.22         26.4437
   674.36         26.4316
   674.50         26.4136
   674.64         26.3902
   674.78         26.3617
   674.92         26.3304
   675.06         26.3011
   675.20         26.2778
   675.34         26.2627
   675.48         26.2563
   675.62         26.2573
   675.76         26.2621
   675.90         26.2677
   676.04         26.2726
   676.18         26.2763
   676.32         26.2782
   676.46         26.2781
   676.60         26.2765
   676.74         26.2743
   676.88         26.2707
   677.02         26.2646
   677.16         26.2565
   677.30         26.2462
   677.44         26.2312
   677.58         26.2079
   677.72         26.1736
   677.86         26.1267
   678.00         26.0668
   678.14         25.9944
   678.28         25.9120
   678.42         25.8239
   678.56         25.7360
   678.70         25.6549
   678.84         25.5875
   678.98         25.5391
   679.12         25.5130
   679.26         25.5097
   679.40         25.5261
   679.54         25.5565
   679.68         25.5931
   679.82         25.6258
   679.96         25.6412
   680.10         25.6289
   680.24         25.5875
   680.38         25.5237
   680.52         25.4465
   680.66         25.3633
   680.80         25.2801
   680.94         25.2046
   681.08         25.1455
   681.22         25.1101
   681.36         25.1025
   681.50         25.1218
   681.64         25.1619
   681.78         25.2157
   681.92         25.2779
   682.06         25.3443
   682.20         25.4101
   682.34         25.4705
   682.48         25.5224
   682.62         25.5666
   682.76         25.6088
   682.90         25.6543
   683.04         25.7028
   683.18         25.7494
   683.32         25.7874
   683.46         25.8113
   683.60         25.8192
   683.74         25.8108
   683.88         25.7873
   684.02         25.7510
   684.16         25.7054
   684.30         25.6543
   684.44         25.6012
   684.58         25.5489
   684.72         25.4998
   684.86         25.4558
   685.00         25.4186
   685.14         25.3884
   685.28         25.3612
   685.42         25.3264
   685.56         25.2635
   685.70         25.1463
   685.84         24.9505
   685.98         24.6609
   686.12         24.2742
   686.26         23.8012
   686.40         23.2635
   686.54         22.6908
   686.68         22.1188
   686.82         21.5867
   686.96         21.1330
   687.10         20.7905
   687.24         20.5817
   687.38         20.5114
   687.52         20.5657
   687.66         20.7167
   687.80         20.9263
   687.94         21.1514
   688.08         21.3483
   688.22         21.4809
   688.36         21.5313
   688.50         21.5021
   688.64         21.4114
   688.78         21.2852
   688.92         21.1519
   689.06         21.0373
   689.20         20.9608
   689.34         20.9337
   689.48         20.9605
   689.62         21.0375
   689.76         21.1536
   689.90         21.2947
   690.04         21.4471
   690.18         21.5996
   690.32         21.7461
   690.46         21.8856
   690.60         22.0214
   690.74         22.1587
   690.88         22.3016
   691.02         22.4522
   691.16         22.6089
   691.30         22.7684
   691.44         22.9262
   691.58         23.0753
   691.72         23.2063
   691.86         23.3093
   692.00         23.3774
   692.14         23.4079
   692.28         23.4002
   692.42         23.3568
   692.56         23.2846
   692.70         23.1924
   692.84         23.0893
   692.98         22.9853
   693.12         22.8910
   693.26         22.8156
   693.40         22.7637
   693.54         22.7370
   693.68         22.7368
   693.82         22.7675
   693.96         22.8339
   694.10         22.9341
   694.24         23.0571
   694.38         23.1870
   694.52         23.3096
   694.66         23.4157
   694.80         23.4994
   694.94         23.5569
   695.08         23.5880
   695.22         23.5963
   695.36         23.5888
   695.50         23.5758
   695.64         23.5690
   695.78         23.5781
   695.92         23.6092
   696.06         23.6644
   696.20         23.7426
   696.34         23.8413
   696.48         23.9570
   696.62         24.0808
   696.76         24.1996
   696.90         24.3023
   697.04         24.3833
   697.18         24.4420
   697.32         24.4787
   697.46         24.4941
   697.60         24.4892
   697.74         24.4649
   697.88         24.4211
   698.02         24.3580
   698.16         24.2764
   698.30         24.1771
   698.44         24.0612
   698.58         23.9309
   698.72         23.7916
   698.86         23.6514
   699.00         23.5207
   699.14         23.4092
   699.28         23.3216
   699.42         23.2594
   699.56         23.2221
   699.70         23.2079
   699.84         23.2132
   699.98         23.2318
   700.12         23.2557
   700.26         23.2757
   700.40         23.2833
   700.54         23.2753
   700.68         23.2523
   700.82         23.2184
   700.96         23.1790
   701.10         23.1413
   701.24         23.1125
   701.38         23.0976
   701.52         23.0974
   701.66         23.1094
   701.80         23.1306
   701.94         23.1596
   702.08         23.1969
   702.22         23.2425
   702.36         23.2935
   702.50         23.3431
   702.64         23.3834
   702.78         23.4107
   702.92         23.4248
   703.06         23.4274
   703.20         23.4184
   703.34         23.3944
   703.48         23.3512
   703.62         23.2846
   703.76         23.1908
   703.90         23.0684
   704.04         22.9219
   704.18         22.7637
   704.32         22.6115
   704.46         22.4842
   704.60         22.3959
   704.74         22.3511
   704.88         22.3462
   705.02         22.3753
   705.16         22.4317
   705.30         22.5080
   705.44         22.5942
   705.58         22.6790
   705.72         22.7517
   705.86         22.8035
   706.00         22.8291
   706.14         22.8273
   706.28         22.8016
   706.42         22.7605
   706.56         22.7153
   706.70         22.6767
   706.84         22.6498
   706.98         22.6365
   707.12         22.6371
   707.26         22.6487
   707.40         22.6666
   707.54         22.6886
   707.68         22.7154
   707.82         22.7474
   707.96         22.7835
   708.10         22.8232
   708.24         22.8675
   708.38         22.9169
   708.52         22.9687
   708.66         23.0181
   708.80         23.0607
   708.94         23.0927
   709.08         23.1106
   709.22         23.1120
   709.36         23.0954
   709.50         23.0616
   709.64         23.0149
   709.78         22.9580
   709.92         22.8921
   710.06         22.8206
   710.20         22.7510
   710.34         22.6912
   710.48         22.6460
   710.62         22.6178
   710.76         22.6091
   710.90         22.6220
   711.04         22.6560
   711.18         22.7074
   711.32         22.7733
   711.46         22.8512
   711.60         22.9368
   711.74         23.0242
   711.88         23.1055
   712.02         23.1733
   712.16         23.2234
   712.30         23.2537
   712.44         23.2649
   712.58         23.2631
   712.72         23.2595
   712.86         23.2632
   713.00         23.2767
   713.14         23.3002
   713.28         23.3354
   713.42         23.3830
   713.56         23.4404
   713.70         23.5001
   713.84         23.5538
   713.98         23.5944
   714.12         23.6159
   714.26         23.6136
   714.40         23.5856
   714.54         23.5339
   714.68         23.4620
   714.82         23.3728
   714.96         23.2691
   715.10         23.1557
   715.24         23.0386
   715.38         22.9217
   715.52         22.8035
   715.66         22.6796
   715.80         22.5471
   715.94         22.4045
   716.08         22.2507
   716.22         22.0849
   716.36         21.9085
   716.50         21.7244
   716.64         21.5357
   716.78         21.3449
   716.92         21.1528
   717.06         20.9615
   717.20         20.7749
   717.34         20.5954
   717.48         20.4246
   717.62         20.2671
   717.76         20.1279
   717.90         20.0090
   718.04         19.9120
   718.18         19.8389
   718.32         19.7910
   718.46         19.7709
   718.60         19.7815
   718.74         19.8218
   718.88         19.8864
   719.02         19.9679
   719.16         20.0593
   719.30         20.1548
   719.44         20.2502
   719.58         20.3443
   719.72         20.4373
   719.86         20.5290
   720.00         20.6205
   720.14         20.7177
   720.28         20.8293
   720.42         20.9615
   720.56         21.1167
   720.70         21.2938
   720.84         21.4874
   720.98         21.6896
   721.12         21.8920
   721.26         22.0836
   721.40         22.2521
   721.54         22.3882
   721.68         22.4877
   721.82         22.5517
   721.96         22.5829
   722.10         22.5828
   722.24         22.5518
   722.38         22.4926
   722.52         22.4139
   722.66         22.3268
   722.80         22.2392
   722.94         22.1569
   723.08         22.0827
   723.22         22.0152
   723.36         21.9500
   723.50         21.8841
   723.64         21.8160
   723.78         21.7440
   723.92         21.6661
   724.06         21.5802
   724.20         21.4854
   724.34         21.3851
   724.48         21.2841
   724.62         21.1839
   724.76         21.0863
   724.90         20.9978
   725.04         20.9270
   725.18         20.8756
   725.32         20.8364
   725.46         20.8023
   725.60         20.7725
   725.74         20.7493
   725.88         20.7354
   726.02         20.7323
   726.16         20.7398
   726.30         20.7540
   726.44         20.7683
   726.58         20.7761
   726.72         20.7725
   726.86         20.7567
   727.00         20.7313
   727.14         20.6980
   727.28         20.6582
   727.42         20.6132
   727.56         20.5621
   727.70         20.5014
   727.84         20.4277
   727.98         20.3421
   728.12         20.2523
   728.26         20.1687
   728.40         20.0996
   728.54         20.0491
   728.68         20.0194
   728.82         20.0115
   728.96         20.0243
   729.10         20.0534
   729.24         20.0920
   729.38         20.1352
   729.52         20.1809
   729.66         20.2271
   729.80         20.2696
   729.94         20.3029
   730.08         20.3231
   730.22         20.3306
   730.36         20.3284
   730.50         20.3190
   730.64         20.3045
   730.78         20.2878
   730.92         20.2706
   731.06         20.2506
   731.20         20.2224
   731.34         20.1813
   731.48         20.1252
   731.62         20.0550
   731.76         19.9760
   731.90         19.8995
   732.04         19.8392
   732.18         19.8042
   732.32         19.7973
   732.46         19.8195
   732.60         19.8705
   732.74         19.9472
   732.88         20.0417
   733.02         20.1434
   733.16         20.2408
   733.30         20.3250
   733.44         20.3906
   733.58         20.4347
   733.72         20.4551
   733.86         20.4508
   734.00         20.4241
   734.14         20.3811
   734.28         20.3299
   734.42         20.2788
   734.56         20.2351
   734.70         20.2026
   734.84         20.1831
   734.98         20.1768
   735.12         20.1817
   735.26         20.1927
   735.40         20.2023
   735.54         20.2042
   735.68         20.1936
   735.82         20.1675
   735.96         20.1268
   736.10         20.0756
   736.24         20.0184
   736.38         19.9594
   736.52         19.9021
   736.66         19.8500
   736.80         19.8052
   736.94         19.7679
   737.08         19.7352
   737.22         19.7035
   737.36         19.6706
   737.50         19.6345
   737.64         19.5938
   737.78         19.5473
   737.92         19.4945
   738.06         19.4368
   738.20         19.3766
   738.34         19.3165
   738.48         19.2599
   738.62         19.2098
   738.76         19.1674
   738.90         19.1322
   739.04         19.1036
   739.18         19.0801
   739.32         19.0603
   739.46         19.0436
   739.60         19.0285
   739.74         19.0121
   739.88         18.9923
   740.02         18.9689
   740.16         18.9418
   740.30         18.9127
   740.44         18.8859
   740.58         18.8676
   740.72         18.8642
   740.86         18.8805
   741.00         18.9175
   741.14         18.9748
   741.28         19.0495
   741.42         19.1356
   741.56         19.2260
   741.70         19.3133
   741.84         19.3899
   741.98         19.4505
   742.12         19.4928
   742.26         19.5162
   742.40         19.5225
   742.54         19.5178
   742.68         19.5094
   742.82         19.5030
   742.96         19.5030
   743.10         19.5094
   743.24         19.5178
   743.38         19.5225
   743.52         19.5162
   743.66         19.4928
   743.80         19.4505
   743.94         19.3899
   744.08         19.3133
   744.22         19.2260
