# File HD256413
# Wavelength [nm]    Normalized Amplitude
   349.70         134.6211
   349.84         135.1741
   349.98         135.7861
   350.12         136.3961
   350.26         136.9320
   350.40         137.3471
   350.54         137.6365
   350.68         137.8202
   350.82         137.9269
   350.96         137.9812
   351.10         137.9977
   351.24         137.9812
   351.38         137.9269
   351.52         137.8202
   351.66         137.6365
   351.80         137.3471
   351.94         136.9320
   352.08         136.3961
   352.22         135.7861
   352.36         135.1741
   352.50         134.6211
   352.64         134.1738
   352.78         133.8685
   352.92         133.7295
   353.06         133.7646
   353.20         133.9541
   353.34         134.2575
   353.48         134.6287
   353.62         135.0316
   353.76         135.4488
   353.90         135.8763
   354.04         136.3216
   354.18         136.7944
   354.32         137.2778
   354.46         137.7242
   354.60         138.0765
   354.74         138.2764
   354.88         138.2674
   355.02         138.0000
   355.16         137.4505
   355.30         136.6393
   355.44         135.6240
   355.58         134.4809
   355.72         133.2915
   355.86         132.1432
   356.00         131.1285
   356.14         130.3232
   356.28         129.7682
   356.42         129.4649
   356.56         129.3747
   356.70         129.4231
   356.84         129.5099
   356.98         129.5252
   357.12         129.3900
   357.26         129.0835
   357.40         128.6286
   357.54         128.0781
   357.68         127.5078
   357.82         126.9991
   357.96         126.6182
   358.10         126.4030
   358.24         126.3575
   358.38         126.4589
   358.52         126.6824
   358.66         127.0046
   358.80         127.3957
   358.94         127.8378
   359.08         128.3209
   359.22         128.8150
   359.36         129.2697
   359.50         129.6508
   359.64         129.9635
   359.78         130.2333
   359.92         130.4729
   360.06         130.6701
   360.20         130.8008
   360.34         130.8359
   360.48         130.7337
   360.62         130.4539
   360.76         129.9905
   360.90         129.3814
   361.04         128.6970
   361.18         128.0193
   361.32         127.4180
   361.46         126.9422
   361.60         126.6032
   361.74         126.3611
   361.88         126.1583
   362.02         125.9514
   362.16         125.7180
   362.30         125.4503
   362.44         125.1486
   362.58         124.8259
   362.72         124.5019
   362.86         124.1961
   363.00         123.9267
   363.14         123.7106
   363.28         123.5733
   363.42         123.5419
   363.56         123.6236
   363.70         123.7899
   363.84         123.9907
   363.98         124.1858
   364.12         124.3487
   364.26         124.4582
   364.40         124.5074
   364.54         124.5106
   364.68         124.4822
   364.82         124.4294
   364.96         124.3677
   365.10         124.3237
   365.24         124.3192
   365.38         124.3577
   365.52         124.4291
   365.66         124.5141
   365.80         124.5884
   365.94         124.6340
   366.08         124.6466
   366.22         124.6337
   366.36         124.6032
   366.50         124.5717
   366.64         124.5606
   366.78         124.5751
   366.92         124.6095
   367.06         124.6595
   367.20         124.7280
   367.34         124.8103
   367.48         124.8887
   367.62         124.9479
   367.76         124.9777
   367.90         124.9666
   368.04         124.8964
   368.18         124.7474
   368.32         124.5148
   368.46         124.2132
   368.60         123.8631
   368.74         123.4906
   368.88         123.1296
   369.02         122.8207
   369.16         122.6043
   369.30         122.4981
   369.44         122.5041
   369.58         122.6172
   369.72         122.8122
   369.86         123.0529
   370.00         123.2932
   370.14         123.4865
   370.28         123.6128
   370.42         123.6833
   370.56         123.7297
   370.70         123.7931
   370.84         123.9075
   370.98         124.0829
   371.12         124.2947
   371.26         124.5036
   371.40         124.6969
   371.54         124.8982
   371.68         125.1483
   371.82         125.4776
   371.96         125.8907
   372.10         126.3746
   372.24         126.8879
   372.38         127.3569
   372.52         127.7112
   372.66         127.9234
   372.80         128.0305
   372.94         128.1210
   373.08         128.3029
   373.22         128.6795
   373.36         129.3242
   373.50         130.2513
   373.64         131.4123
   373.78         132.7189
   373.92         134.0581
   374.06         135.2904
   374.20         136.2556
   374.34         136.8126
   374.48         136.8833
   374.62         136.4681
   374.76         135.6450
   374.90         134.5669
   375.04         133.4509
   375.18         132.5457
   375.32         132.0769
   375.46         132.1743
   375.60         132.8298
   375.74         133.9136
   375.88         135.2030
   376.02         136.4131
   376.16         137.2569
   376.30         137.5322
   376.44         137.1817
   376.58         136.3033
   376.72         135.1260
   376.86         133.9572
   377.00         133.1219
   377.14         132.8816
   377.28         133.3682
   377.42         134.5791
   377.56         136.4254
   377.70         138.7713
   377.84         141.4321
   377.98         144.1764
   378.12         146.7389
   378.26         148.8542
   378.40         150.2908
   378.54         150.8636
   378.68         150.4680
   378.82         149.1204
   378.96         146.9672
   379.10         144.2560
   379.24         141.2878
   379.38         138.3545
   379.52         135.7130
   379.66         133.5966
   379.80         132.2025
   379.94         131.6727
   380.08         132.0860
   380.22         133.4578
   380.36         135.7081
   380.50         138.6259
   380.64         141.8987
   380.78         145.1778
   380.92         148.1551
   381.06         150.6050
   381.20         152.4042
   381.34         153.5482
   381.48         154.1231
   381.62         154.2577
   381.76         154.0830
   381.90         153.6884
   382.04         153.0956
   382.18         152.2790
   382.32         151.1853
   382.46         149.7386
   382.60         147.8800
   382.74         145.6198
   382.88         143.0503
   383.02         140.3224
   383.16         137.6291
   383.30         135.1977
   383.44         133.2628
   383.58         132.0202
   383.72         131.5888
   383.86         132.0027
   384.00         133.2221
   384.14         135.1364
   384.28         137.5741
   384.42         140.3275
   384.56         143.1745
   384.70         145.9037
   384.84         148.3539
   384.98         150.4361
   385.12         152.1382
   385.26         153.5074
   385.40         154.6071
   385.54         155.4742
   385.68         156.1074
   385.82         156.4812
   385.96         156.5686
   386.10         156.3663
   386.24         155.9119
   386.38         155.2801
   386.52         154.5580
   386.66         153.8214
   386.80         153.1226
   386.94         152.4857
   387.08         151.8975
   387.22         151.2855
   387.36         150.5197
   387.50         149.4403
   387.64         147.8895
   387.78         145.7438
   387.92         142.9486
   388.06         139.5556
   388.20         135.7331
   388.34         131.7402
   388.48         127.8922
   388.62         124.5221
   388.76         121.9396
   388.90         120.3849
   389.04         119.9936
   389.18         120.7911
   389.32         122.7001
   389.46         125.5455
   389.60         129.0672
   389.74         132.9480
   389.88         136.8607
   390.02         140.5243
   390.16         143.7266
   390.30         146.3329
   390.44         148.2929
   390.58         149.6297
   390.72         150.4111
   390.86         150.7118
   391.00         150.5994
   391.14         150.1467
   391.28         149.4374
   391.42         148.5562
   391.56         147.5717
   391.70         146.5357
   391.84         145.4981
   391.98         144.4981
   392.12         143.5490
   392.26         142.6525
   392.40         141.8132
   392.54         141.0398
   392.68         140.3452
   392.82         139.7326
   392.96         139.1927
   393.10         138.7193
   393.24         138.3201
   393.38         138.0066
   393.52         137.7756
   393.66         137.6131
   393.80         137.5078
   393.94         137.4482
   394.08         137.4163
   394.22         137.3905
   394.36         137.3557
   394.50         137.3009
   394.64         137.2160
   394.78         137.0991
   394.92         136.9569
   395.06         136.7830
   395.20         136.5370
   395.34         136.1416
   395.48         135.4903
   395.62         134.4671
   395.76         132.9713
   395.90         130.9329
   396.04         128.3317
   396.18         125.2335
   396.32         121.8152
   396.46         118.3438
   396.60         115.1147
   396.74         112.4041
   396.88         110.4475
   397.02         109.4189
   397.16         109.4096
   397.30         110.4249
   397.44         112.3786
   397.58         115.0896
   397.72         118.3017
   397.86         121.7237
   398.00         125.0730
   398.14         128.1116
   398.28         130.6756
   398.42         132.6864
   398.56         134.1381
   398.70         135.0877
   398.84         135.6383
   398.98         135.9035
   399.12         135.9745
   399.26         135.9126
   399.40         135.7627
   399.54         135.5587
   399.68         135.3230
   399.82         135.0642
   399.96         134.7827
   400.10         134.4753
   400.24         134.1326
   400.38         133.7461
   400.52         133.3184
   400.66         132.8652
   400.80         132.4136
   400.94         131.9908
   401.08         131.6012
   401.22         131.2198
   401.36         130.8074
   401.50         130.3191
   401.64         129.7153
   401.78         128.9829
   401.92         128.1469
   402.06         127.2627
   402.20         126.3907
   402.34         125.5887
   402.48         124.9131
   402.62         124.4151
   402.76         124.1299
   402.90         124.0731
   403.04         124.2468
   403.18         124.6349
   403.32         125.1987
   403.46         125.8831
   403.60         126.6195
   403.74         127.3337
   403.88         127.9660
   404.02         128.4842
   404.16         128.8843
   404.30         129.1871
   404.44         129.4211
   404.58         129.6007
   404.72         129.7220
   404.86         129.7780
   405.00         129.7762
   405.14         129.7334
   405.28         129.6643
   405.42         129.5855
   405.56         129.5204
   405.70         129.4846
   405.84         129.4721
   405.98         129.4648
   406.12         129.4406
   406.26         129.3698
   406.40         129.2227
   406.54         128.9787
   406.68         128.6284
   406.82         128.1828
   406.96         127.6715
   407.10         127.1315
   407.24         126.5992
   407.38         126.1093
   407.52         125.6931
   407.66         125.3674
   407.80         125.1315
   407.94         124.9780
   408.08         124.8922
   408.22         124.8404
   408.36         124.7619
   408.50         124.5726
   408.64         124.1746
   408.78         123.4665
   408.92         122.3548
   409.06         120.7697
   409.20         118.6924
   409.34         116.1771
   409.48         113.3509
   409.62         110.3940
   409.76         107.5185
   409.90         104.9471
   410.04         102.8892
   410.18         101.5147
   410.32         100.9319
   410.46         101.1742
   410.60         102.1943
   410.74         103.8709
   410.88         106.0298
   411.02         108.4677
   411.16         110.9720
   411.30         113.3466
   411.44         115.4439
   411.58         117.1817
   411.72         118.5458
   411.86         119.5781
   412.00         120.3442
   412.14         120.9110
   412.28         121.3368
   412.42         121.6596
   412.56         121.8978
   412.70         122.0473
   412.84         122.0853
   412.98         121.9831
   413.12         121.7151
   413.26         121.2706
   413.40         120.6651
   413.54         119.9382
   413.68         119.1412
   413.82         118.3284
   413.96         117.5548
   414.10         116.8741
   414.24         116.3342
   414.38         115.9713
   414.52         115.8017
   414.66         115.8191
   414.80         116.0020
   414.94         116.3109
   415.08         116.6918
   415.22         117.0871
   415.36         117.4421
   415.50         117.7144
   415.64         117.8770
   415.78         117.9208
   415.92         117.8611
   416.06         117.7278
   416.20         117.5571
   416.34         117.3850
   416.48         117.2356
   416.62         117.1177
   416.76         117.0360
   416.90         116.9941
   417.04         116.9863
   417.18         116.9951
   417.32         117.0040
   417.46         117.0055
   417.60         116.9903
   417.74         116.9444
   417.88         116.8549
   418.02         116.7105
   418.16         116.5066
   418.30         116.2511
   418.44         115.9640
   418.58         115.6635
   418.72         115.3563
   418.86         115.0463
   419.00         114.7421
   419.14         114.4523
   419.28         114.1865
   419.42         113.9538
   419.56         113.7558
   419.70         113.5876
   419.84         113.4474
   419.98         113.3406
   420.12         113.2663
   420.26         113.2126
   420.40         113.1709
   420.54         113.1429
   420.68         113.1338
   420.82         113.1497
   420.96         113.1917
   421.10         113.2499
   421.24         113.3075
   421.38         113.3476
   421.52         113.3565
   421.66         113.3208
   421.80         113.2281
   421.94         113.0781
   422.08         112.8835
   422.22         112.6642
   422.36         112.4456
   422.50         112.2526
   422.64         112.1051
   422.78         112.0124
   422.92         111.9775
   423.06         111.9979
   423.20         112.0637
   423.34         112.1613
   423.48         112.2751
   423.62         112.3848
   423.76         112.4673
   423.90         112.5043
   424.04         112.4800
   424.18         112.3827
   424.32         112.2098
   424.46         111.9704
   424.60         111.6820
   424.74         111.3586
   424.88         111.0151
   425.02         110.6725
   425.16         110.3512
   425.30         110.0629
   425.44         109.8073
   425.58         109.5764
   425.72         109.3589
   425.86         109.1495
   426.00         108.9534
   426.14         108.7783
   426.28         108.6310
   426.42         108.5217
   426.56         108.4630
   426.70         108.4622
   426.84         108.5241
   426.98         108.6565
   427.12         108.8688
   427.26         109.1635
   427.40         109.5305
   427.54         109.9437
   427.68         110.3639
   427.82         110.7521
   427.96         111.0807
   428.10         111.3358
   428.24         111.5159
   428.38         111.6303
   428.52         111.6963
   428.66         111.7286
   428.80         111.7300
   428.94         111.6910
   429.08         111.5936
   429.22         111.4213
   429.36         111.1705
   429.50         110.8519
   429.64         110.4798
   429.78         110.0611
   429.92         109.5991
   430.06         109.1021
   430.20         108.5866
   430.34         108.0746
   430.48         107.5857
   430.62         107.1297
   430.76         106.7072
   430.90         106.3144
   431.04         105.9481
   431.18         105.6053
   431.32         105.2812
   431.46         104.9741
   431.60         104.6890
   431.74         104.4340
   431.88         104.2131
   432.02         104.0157
   432.16         103.8138
   432.30         103.5660
   432.44         103.2190
   432.58         102.7104
   432.72         101.9708
   432.86         100.9288
   433.00         99.5299
   433.14         97.7639
   433.28         95.6851
   433.42         93.4095
   433.56         91.0957
   433.70         88.9230
   433.84         87.0690
   433.98         85.6908
   434.12         84.9099
   434.26         84.7947
   434.40         85.3480
   434.54         86.5094
   434.68         88.1650
   434.82         90.1629
   434.96         92.3271
   435.10         94.4753
   435.24         96.4427
   435.38         98.1070
   435.52         99.4041
   435.66         100.3293
   435.80         100.9225
   435.94         101.2493
   436.08         101.3811
   436.22         101.3826
   436.36         101.3089
   436.50         101.2053
   436.64         101.1077
   436.78         101.0405
   436.92         101.0154
   437.06         101.0333
   437.20         101.0845
   437.34         101.1493
   437.48         101.2018
   437.62         101.2073
   437.76         101.1273
   437.90         100.9337
   438.04         100.6194
   438.18         100.1994
   438.32         99.7088
   438.46         99.1986
   438.60         98.7247
   438.74         98.3352
   438.88         98.0670
   439.02         97.9436
   439.16         97.9721
   439.30         98.1411
   439.44         98.4234
   439.58         98.7838
   439.72         99.1819
   439.86         99.5763
   440.00         99.9313
   440.14         100.2151
   440.28         100.4032
   440.42         100.4931
   440.56         100.5020
   440.70         100.4502
   440.84         100.3525
   440.98         100.2160
   441.12         100.0365
   441.26         99.8004
   441.40         99.4946
   441.54         99.1154
   441.68         98.6673
   441.82         98.1589
   441.96         97.6023
   442.10         97.0167
   442.24         96.4289
   442.38         95.8678
   442.52         95.3554
   442.66         94.9010
   442.80         94.5072
   442.94         94.1797
   443.08         93.9237
   443.22         93.7347
   443.36         93.5993
   443.50         93.5050
   443.64         93.4457
   443.78         93.4226
   443.92         93.4423
   444.06         93.5113
   444.20         93.6267
   444.34         93.7763
   444.48         93.9421
   444.62         94.1068
   444.76         94.2606
   444.90         94.4008
   445.04         94.5256
   445.18         94.6307
   445.32         94.7074
   445.46         94.7449
   445.60         94.7289
   445.74         94.6385
   445.88         94.4476
   446.02         94.1328
   446.16         93.6875
   446.30         93.1298
   446.44         92.4979
   446.58         91.8374
   446.72         91.1889
   446.86         90.5878
   447.00         90.0690
   447.14         89.6652
   447.28         89.4078
   447.42         89.3253
   447.56         89.4281
   447.70         89.6982
   447.84         90.0896
   447.98         90.5434
   448.12         91.0100
   448.26         91.4570
   448.40         91.8640
   448.54         92.2239
   448.68         92.5478
   448.82         92.8609
   448.96         93.1881
   449.10         93.5407
   449.24         93.9067
   449.38         94.2586
   449.52         94.5676
   449.66         94.8092
   449.80         94.9619
   449.94         95.0123
   450.08         94.9563
   450.22         94.7933
   450.36         94.5281
   450.50         94.1844
   450.64         93.8092
   450.78         93.4583
   450.92         93.1808
   451.06         93.0098
   451.20         92.9620
   451.34         93.0401
   451.48         93.2290
   451.62         93.4937
   451.76         93.7840
   451.90         94.0440
   452.04         94.2237
   452.18         94.2868
   452.32         94.2180
   452.46         94.0256
   452.60         93.7375
   452.74         93.3913
   452.88         93.0250
   453.02         92.6754
   453.16         92.3746
   453.30         92.1403
   453.44         91.9735
   453.58         91.8632
   453.72         91.7878
   453.86         91.7197
   454.00         91.6309
   454.14         91.4965
   454.28         91.3019
   454.42         91.0506
   454.56         90.7646
   454.70         90.4759
   454.84         90.2203
   454.98         90.0319
   455.12         89.9358
   455.26         89.9456
   455.40         90.0595
   455.54         90.2548
   455.68         90.4947
   455.82         90.7426
   455.96         90.9715
   456.10         91.1587
   456.24         91.2790
   456.38         91.3083
   456.52         91.2305
   456.66         91.0520
   456.80         90.8003
   456.94         90.5113
   457.08         90.2208
   457.22         89.9548
   457.36         89.7264
   457.50         89.5425
   457.64         89.4096
   457.78         89.3312
   457.92         89.3019
   458.06         89.2992
   458.20         89.2942
   458.34         89.2689
   458.48         89.2134
   458.62         89.1158
   458.76         88.9626
   458.90         88.7506
   459.04         88.4893
   459.18         88.1982
   459.32         87.8977
   459.46         87.5975
   459.60         87.3037
   459.74         87.0257
   459.88         86.7753
   460.02         86.5716
   460.16         86.4352
   460.30         86.3731
   460.44         86.3764
   460.58         86.4266
   460.72         86.5015
   460.86         86.5824
   461.00         86.6600
   461.14         86.7300
   461.28         86.7850
   461.42         86.8137
   461.56         86.8033
   461.70         86.7414
   461.84         86.6186
   461.98         86.4306
   462.12         86.1875
   462.26         85.9134
   462.40         85.6308
   462.54         85.3569
   462.68         85.1089
   462.82         84.9033
   462.96         84.7528
   463.10         84.6667
   463.24         84.6452
   463.38         84.6796
   463.52         84.7603
   463.66         84.8782
   463.80         85.0177
   463.94         85.1585
   464.08         85.2854
   464.22         85.3925
   464.36         85.4816
   464.50         85.5613
   464.64         85.6453
   464.78         85.7489
   464.92         85.8791
   465.06         86.0268
   465.20         86.1775
   465.34         86.3181
   465.48         86.4301
   465.62         86.4859
   465.76         86.4580
   465.90         86.3302
   466.04         86.1035
   466.18         85.7934
   466.32         85.4246
   466.46         85.0286
   466.60         84.6351
   466.74         84.2621
   466.88         83.9233
   467.02         83.6394
   467.16         83.4311
   467.30         83.3086
   467.44         83.2730
   467.58         83.3212
   467.72         83.4470
   467.86         83.6405
   468.00         83.8813
   468.14         84.1372
   468.28         84.3715
   468.42         84.5566
   468.56         84.6783
   468.70         84.7307
   468.84         84.7132
   468.98         84.6277
   469.12         84.4790
   469.26         84.2758
   469.40         84.0327
   469.54         83.7737
   469.68         83.5233
   469.82         83.2940
   469.96         83.0891
   470.10         82.9144
   470.24         82.7780
   470.38         82.6811
   470.52         82.6189
   470.66         82.5867
   470.80         82.5802
   470.94         82.5908
   471.08         82.6069
   471.22         82.6148
   471.36         82.5932
   471.50         82.5149
   471.64         82.3579
   471.78         82.1151
   471.92         81.7914
   472.06         81.4061
   472.20         80.9929
   472.34         80.5867
   472.48         80.2168
   472.62         79.9104
   472.76         79.6899
   472.90         79.5643
   473.04         79.5271
   473.18         79.5657
   473.32         79.6662
   473.46         79.8104
   473.60         79.9732
   473.74         80.1278
   473.88         80.2529
   474.02         80.3364
   474.16         80.3808
   474.30         80.3987
   474.44         80.4055
   474.58         80.4173
   474.72         80.4443
   474.86         80.4792
   475.00         80.5009
   475.14         80.4904
   475.28         80.4388
   475.42         80.3445
   475.56         80.2101
   475.70         80.0406
   475.84         79.8450
   475.98         79.6339
   476.12         79.4126
   476.26         79.1853
   476.40         78.9654
   476.54         78.7718
   476.68         78.6207
   476.82         78.5165
   476.96         78.4504
   477.10         78.4128
   477.24         78.3962
   477.38         78.3907
   477.52         78.3876
   477.66         78.3832
   477.80         78.3781
   477.94         78.3748
   478.08         78.3769
   478.22         78.3823
   478.36         78.3873
   478.50         78.3954
   478.64         78.4113
   478.78         78.4378
   478.92         78.4730
   479.06         78.5066
   479.20         78.5236
   479.34         78.5197
   479.48         78.5048
   479.62         78.4913
   479.76         78.4834
   479.90         78.4767
   480.04         78.4613
   480.18         78.4259
   480.32         78.3626
   480.46         78.2685
   480.60         78.1455
   480.74         77.9986
   480.88         77.8292
   481.02         77.6385
   481.16         77.4305
   481.30         77.2081
   481.44         76.9728
   481.58         76.7252
   481.72         76.4748
   481.86         76.2463
   482.00         76.0705
   482.14         75.9661
   482.28         75.9296
   482.42         75.9464
   482.56         76.0079
   482.70         76.1117
   482.84         76.2521
   482.98         76.4163
   483.12         76.5860
   483.26         76.7423
   483.40         76.8670
   483.54         76.9391
   483.68         76.9426
   483.82         76.8750
   483.96         76.7414
   484.10         76.5458
   484.24         76.2890
   484.38         75.9687
   484.52         75.5708
   484.66         75.0639
   484.80         74.4045
   484.94         73.5504
   485.08         72.4816
   485.22         71.2141
   485.36         69.7952
   485.50         68.2928
   485.64         66.7933
   485.78         65.3982
   485.92         64.2121
   486.06         63.3218
   486.20         62.7831
   486.34         62.6199
   486.48         62.8248
   486.62         63.3570
   486.76         64.1446
   486.90         65.0959
   487.04         66.1136
   487.18         67.1063
   487.32         67.9989
   487.46         68.7419
   487.60         69.3195
   487.74         69.7476
   487.88         70.0627
   488.02         70.3056
   488.16         70.5089
   488.30         70.6981
   488.44         70.8914
   488.58         71.0937
   488.72         71.3008
   488.86         71.5076
   489.00         71.7112
   489.14         71.9088
   489.28         72.0950
   489.42         72.2595
   489.56         72.3917
   489.70         72.4846
   489.84         72.5354
   489.98         72.5464
   490.12         72.5261
   490.26         72.4860
   490.40         72.4416
   490.54         72.4097
   490.68         72.3943
   490.82         72.3817
   490.96         72.3520
   491.10         72.2850
   491.24         72.1665
   491.38         71.9911
   491.52         71.7605
   491.66         71.4848
   491.80         71.1872
   491.94         70.9041
   492.08         70.6743
   492.22         70.5304
   492.36         70.4929
   492.50         70.5651
   492.64         70.7401
   492.78         71.0038
   492.92         71.3365
   493.06         71.7119
   493.20         72.0937
   493.34         72.4343
   493.48         72.7016
   493.62         72.8918
   493.76         73.0154
   493.90         73.0888
   494.04         73.1279
   494.18         73.1428
   494.32         73.1394
   494.46         73.1276
   494.60         73.1132
   494.74         73.0892
   494.88         73.0492
   495.02         72.9883
   495.16         72.9023
   495.30         72.7921
   495.44         72.6620
   495.58         72.5167
   495.72         72.3574
   495.86         72.1838
   496.00         71.9998
   496.14         71.8205
   496.28         71.6593
   496.42         71.5197
   496.56         71.4044
   496.70         71.3111
   496.84         71.2312
   496.98         71.1566
   497.12         71.0808
   497.26         70.9917
   497.40         70.8790
   497.54         70.7404
   497.68         70.5744
   497.82         70.3844
   497.96         70.1812
   498.10         69.9791
   498.24         69.7913
   498.38         69.6286
   498.52         69.5024
   498.66         69.4239
   498.80         69.4000
   498.94         69.4272
   499.08         69.4911
   499.22         69.5735
   499.36         69.6576
   499.50         69.7365
   499.64         69.8151
   499.78         69.8984
   499.92         69.9777
   500.06         70.0315
   500.20         70.0345
   500.34         69.9633
   500.48         69.8007
   500.62         69.5368
   500.76         69.1722
   500.90         68.7220
   501.04         68.2086
   501.18         67.6605
   501.32         67.1138
   501.46         66.6086
   501.60         66.1838
   501.74         65.8723
   501.88         65.6990
   502.02         65.6704
   502.16         65.7704
   502.30         65.9697
   502.44         66.2306
   502.58         66.5147
   502.72         66.7909
   502.86         67.0342
   503.00         67.2277
   503.14         67.3655
   503.28         67.4482
   503.42         67.4773
   503.56         67.4563
   503.70         67.3928
   503.84         67.2968
   503.98         67.1725
   504.12         67.0152
   504.26         66.8191
   504.40         66.5787
   504.54         66.2891
   504.68         65.9545
   504.82         65.5972
   504.96         65.2493
   505.10         64.9367
   505.24         64.6743
   505.38         64.4704
   505.52         64.3313
   505.66         64.2599
   505.80         64.2496
   505.94         64.2850
   506.08         64.3511
   506.22         64.4379
   506.36         64.5327
   506.50         64.6171
   506.64         64.6755
   506.78         64.7013
   506.92         64.6976
   507.06         64.6735
   507.20         64.6427
   507.34         64.6212
   507.48         64.6184
   507.62         64.6303
   507.76         64.6444
   507.90         64.6488
   508.04         64.6356
   508.18         64.5969
   508.32         64.5240
   508.46         64.4102
   508.60         64.2515
   508.74         64.0515
   508.88         63.8192
   509.02         63.5665
   509.16         63.3117
   509.30         63.0754
   509.44         62.8736
   509.58         62.7177
   509.72         62.6133
   509.86         62.5584
   510.00         62.5493
   510.14         62.5840
   510.28         62.6594
   510.42         62.7698
   510.56         62.9082
   510.70         63.0636
   510.84         63.2201
   510.98         63.3626
   511.12         63.4789
   511.26         63.5600
   511.40         63.6015
   511.54         63.6021
   511.68         63.5612
   511.82         63.4787
   511.96         63.3566
   512.10         63.2052
   512.24         63.0437
   512.38         62.8947
   512.52         62.7757
   512.66         62.6959
   512.80         62.6558
   512.94         62.6499
   513.08         62.6662
   513.22         62.6860
   513.36         62.6910
   513.50         62.6722
   513.64         62.6257
   513.78         62.5443
   513.92         62.4223
   514.06         62.2599
   514.20         62.0622
   514.34         61.8362
   514.48         61.5915
   514.62         61.3449
   514.76         61.1200
   514.90         60.9410
   515.04         60.8233
   515.18         60.7692
   515.32         60.7731
   515.46         60.8266
   515.60         60.9174
   515.74         61.0273
   515.88         61.1399
   516.02         61.2480
   516.16         61.3480
   516.30         61.4305
   516.44         61.4863
   516.58         61.5142
   516.72         61.5164
   516.86         61.4968
   517.00         61.4639
   517.14         61.4279
   517.28         61.3973
   517.42         61.3736
   517.56         61.3495
   517.70         61.3126
   517.84         61.2504
   517.98         61.1579
   518.12         61.0394
   518.26         60.9059
   518.40         60.7743
   518.54         60.6631
   518.68         60.5850
   518.82         60.5420
   518.96         60.5258
   519.10         60.5239
   519.24         60.5220
   519.38         60.5077
   519.52         60.4743
   519.66         60.4173
   519.80         60.3349
   519.94         60.2301
   520.08         60.1060
   520.22         59.9658
   520.36         59.8146
   520.50         59.6601
   520.64         59.5128
   520.78         59.3829
   520.92         59.2776
   521.06         59.1986
   521.20         59.1422
   521.34         59.0998
   521.48         59.0654
   521.62         59.0365
   521.76         59.0085
   521.90         58.9808
   522.04         58.9581
   522.18         58.9431
   522.32         58.9329
   522.46         58.9219
   522.60         58.9028
   522.74         58.8624
   522.88         58.7858
   523.02         58.6670
   523.16         58.5097
   523.30         58.3250
   523.44         58.1297
   523.58         57.9402
   523.72         57.7659
   523.86         57.6083
   524.00         57.4654
   524.14         57.3377
   524.28         57.2256
   524.42         57.1312
   524.56         57.0633
   524.70         57.0283
   524.84         57.0241
   524.98         57.0437
   525.12         57.0823
   525.26         57.1370
   525.40         57.2017
   525.54         57.2704
   525.68         57.3419
   525.82         57.4135
   525.96         57.4755
   526.10         57.5130
   526.24         57.5119
   526.38         57.4645
   526.52         57.3737
   526.66         57.2521
   526.80         57.1155
   526.94         56.9772
   527.08         56.8474
   527.22         56.7346
   527.36         56.6438
   527.50         56.5735
   527.64         56.5185
   527.78         56.4737
   527.92         56.4345
   528.06         56.3988
   528.20         56.3681
   528.34         56.3436
   528.48         56.3197
   528.62         56.2870
   528.76         56.2388
   528.90         56.1750
   529.04         56.0990
   529.18         56.0162
   529.32         55.9321
   529.46         55.8506
   529.60         55.7762
   529.74         55.7137
   529.88         55.6646
   530.02         55.6269
   530.16         55.5979
   530.30         55.5755
   530.44         55.5588
   530.58         55.5466
   530.72         55.5335
   530.86         55.5101
   531.00         55.4699
   531.14         55.4123
   531.28         55.3430
   531.42         55.2727
   531.56         55.2113
   531.70         55.1617
   531.84         55.1198
   531.98         55.0791
   532.12         55.0349
   532.26         54.9866
   532.40         54.9356
   532.54         54.8839
   532.68         54.8340
   532.82         54.7874
   532.96         54.7445
   533.10         54.7054
   533.24         54.6685
   533.38         54.6285
   533.52         54.5813
   533.66         54.5285
   533.80         54.4719
   533.94         54.4095
   534.08         54.3417
   534.22         54.2738
   534.36         54.2139
   534.50         54.1697
   534.64         54.1466
   534.78         54.1436
   534.92         54.1506
   535.06         54.1490
   535.20         54.1181
   535.34         54.0414
   535.48         53.9127
   535.62         53.7354
   535.76         53.5178
   535.90         53.2738
   536.04         53.0232
   536.18         52.7905
   536.32         52.5983
   536.46         52.4577
   536.60         52.3730
   536.74         52.3476
   536.88         52.3779
   537.02         52.4490
   537.16         52.5375
   537.30         52.6221
   537.44         52.6891
   537.58         52.7296
   537.72         52.7426
   537.86         52.7340
   538.00         52.7131
   538.14         52.6885
   538.28         52.6630
   538.42         52.6352
   538.56         52.6046
   538.70         52.5735
   538.84         52.5470
   538.98         52.5281
   539.12         52.5161
   539.26         52.5104
   539.40         52.5089
   539.54         52.5080
   539.68         52.5047
   539.82         52.4962
   539.96         52.4824
   540.10         52.4603
   540.24         52.4234
   540.38         52.3698
   540.52         52.3019
   540.66         52.2241
   540.80         52.1419
   540.94         52.0601
   541.08         51.9838
   541.22         51.9178
   541.36         51.8629
   541.50         51.8170
   541.64         51.7733
   541.78         51.7253
   541.92         51.6657
   542.06         51.5865
   542.20         51.4848
   542.34         51.3604
   542.48         51.2134
   542.62         51.0476
   542.76         50.8715
   542.90         50.6984
   543.04         50.5408
   543.18         50.4056
   543.32         50.2962
   543.46         50.2128
   543.60         50.1505
   543.74         50.1031
   543.88         50.0655
   544.02         50.0361
   544.16         50.0155
   544.30         49.9998
   544.44         49.9789
   544.58         49.9418
   544.72         49.8849
   544.86         49.8130
   545.00         49.7290
   545.14         49.6336
   545.28         49.5314
   545.42         49.4304
   545.56         49.3383
   545.70         49.2561
   545.84         49.1813
   545.98         49.1155
   546.12         49.0606
   546.26         49.0222
   546.40         49.0101
   546.54         49.0281
   546.68         49.0716
   546.82         49.1309
   546.96         49.1926
   547.10         49.2441
   547.24         49.2795
   547.38         49.2966
   547.52         49.2941
   547.66         49.2722
   547.80         49.2329
   547.94         49.1803
   548.08         49.1202
   548.22         49.0598
   548.36         49.0068
   548.50         48.9717
   548.64         48.9638
   548.78         48.9838
   548.92         49.0262
   549.06         49.0790
   549.20         49.1262
   549.34         49.1568
   549.48         49.1642
   549.62         49.1397
   549.76         49.0755
   549.90         48.9726
   550.04         48.8392
   550.18         48.6902
   550.32         48.5428
   550.46         48.4113
   550.60         48.3077
   550.74         48.2426
   550.88         48.2210
   551.02         48.2388
   551.16         48.2876
   551.30         48.3567
   551.44         48.4340
   551.58         48.5088
   551.72         48.5715
   551.86         48.6131
   552.00         48.6247
   552.14         48.5988
   552.28         48.5335
   552.42         48.4347
   552.56         48.3134
   552.70         48.1789
   552.84         48.0372
   552.98         47.8906
   553.12         47.7403
   553.26         47.5894
   553.40         47.4450
   553.54         47.3136
   553.68         47.2008
   553.82         47.1133
   553.96         47.0528
   554.10         47.0158
   554.24         46.9974
   554.38         46.9920
   554.52         46.9946
   554.66         47.0030
   554.80         47.0178
   554.94         47.0398
   555.08         47.0672
   555.22         47.0957
   555.36         47.1180
   555.50         47.1261
   555.64         47.1135
   555.78         47.0756
   555.92         47.0091
   556.06         46.9132
   556.20         46.7907
   556.34         46.6502
   556.48         46.5024
   556.62         46.3570
   556.76         46.2261
   556.90         46.1227
   557.04         46.0555
   557.18         46.0280
   557.32         46.0380
   557.46         46.0792
   557.60         46.1441
   557.74         46.2234
   557.88         46.3058
   558.02         46.3798
   558.16         46.4351
   558.30         46.4674
   558.44         46.4767
   558.58         46.4687
   558.72         46.4528
   558.86         46.4350
   559.00         46.4150
   559.14         46.3870
   559.28         46.3456
   559.42         46.2913
   559.56         46.2254
   559.70         46.1507
   559.84         46.0724
   559.98         45.9940
   560.12         45.9172
   560.26         45.8440
   560.40         45.7755
   560.54         45.7141
   560.68         45.6607
   560.82         45.6150
   560.96         45.5767
   561.10         45.5432
   561.24         45.5101
   561.38         45.4731
   561.52         45.4272
   561.66         45.3708
   561.80         45.3078
   561.94         45.2473
   562.08         45.1984
   562.22         45.1635
   562.36         45.1383
   562.50         45.1151
   562.64         45.0869
   562.78         45.0516
   562.92         45.0109
   563.06         44.9653
   563.20         44.9140
   563.34         44.8573
   563.48         44.7996
   563.62         44.7471
   563.76         44.7039
   563.90         44.6744
   564.04         44.6623
   564.18         44.6688
   564.32         44.6937
   564.46         44.7326
   564.60         44.7748
   564.74         44.8057
   564.88         44.8105
   565.02         44.7792
   565.16         44.7073
   565.30         44.5967
   565.44         44.4548
   565.58         44.2914
   565.72         44.1169
   565.86         43.9413
   566.00         43.7746
   566.14         43.6254
   566.28         43.4981
   566.42         43.3977
   566.56         43.3301
   566.70         43.2964
   566.84         43.2918
   566.98         43.3059
   567.12         43.3258
   567.26         43.3413
   567.40         43.3470
   567.54         43.3437
   567.68         43.3355
   567.82         43.3260
   567.96         43.3191
   568.10         43.3181
   568.24         43.3254
   568.38         43.3418
   568.52         43.3641
   568.66         43.3872
   568.80         43.4048
   568.94         43.4113
   569.08         43.4038
   569.22         43.3777
   569.36         43.3253
   569.50         43.2419
   569.64         43.1291
   569.78         42.9956
   569.92         42.8554
   570.06         42.7264
   570.20         42.6241
   570.34         42.5547
   570.48         42.5168
   570.62         42.5058
   570.76         42.5151
   570.90         42.5349
   571.04         42.5511
   571.18         42.5484
   571.32         42.5182
   571.46         42.4591
   571.60         42.3727
   571.74         42.2624
   571.88         42.1341
   572.02         41.9981
   572.16         41.8673
   572.30         41.7540
   572.44         41.6680
   572.58         41.6128
   572.72         41.5845
   572.86         41.5754
   573.00         41.5781
   573.14         41.5885
   573.28         41.6023
   573.42         41.6127
   573.56         41.6117
   573.70         41.5927
   573.84         41.5554
   573.98         41.5062
   574.12         41.4529
   574.26         41.4025
   574.40         41.3623
   574.54         41.3385
   574.68         41.3343
   574.82         41.3497
   574.96         41.3844
   575.10         41.4362
   575.24         41.5020
   575.38         41.5785
   575.52         41.6596
   575.66         41.7365
   575.80         41.7988
   575.94         41.8356
   576.08         41.8392
   576.22         41.8090
   576.36         41.7484
   576.50         41.6608
   576.64         41.5471
   576.78         41.4030
   576.92         41.2202
   577.06         40.9924
   577.20         40.7227
   577.34         40.4244
   577.48         40.1178
   577.62         39.8238
   577.76         39.5598
   577.90         39.3399
   578.04         39.1715
   578.18         39.0554
   578.32         38.9915
   578.46         38.9777
   578.60         39.0061
   578.74         39.0654
   578.88         39.1427
   579.02         39.2241
   579.16         39.2969
   579.30         39.3528
   579.44         39.3886
   579.58         39.4086
   579.72         39.4234
   579.86         39.4420
   580.00         39.4684
   580.14         39.5013
   580.28         39.5355
   580.42         39.5662
   580.56         39.5915
   580.70         39.6118
   580.84         39.6303
   580.98         39.6521
   581.12         39.6816
   581.26         39.7195
   581.40         39.7650
   581.54         39.8157
   581.68         39.8669
   581.82         39.9136
   581.96         39.9519
   582.10         39.9775
   582.24         39.9863
   582.38         39.9753
   582.52         39.9443
   582.66         39.8969
   582.80         39.8384
   582.94         39.7749
   583.08         39.7141
   583.22         39.6623
   583.36         39.6240
   583.50         39.6001
   583.64         39.5887
   583.78         39.5852
   583.92         39.5837
   584.06         39.5777
   584.20         39.5622
   584.34         39.5367
   584.48         39.5025
   584.62         39.4603
   584.76         39.4119
   584.90         39.3620
   585.04         39.3173
   585.18         39.2822
   585.32         39.2580
   585.46         39.2470
   585.60         39.2512
   585.74         39.2674
   585.88         39.2878
   586.02         39.2990
   586.16         39.2838
   586.30         39.2292
   586.44         39.1320
   586.58         38.9979
   586.72         38.8387
   586.86         38.6679
   587.00         38.4991
   587.14         38.3449
   587.28         38.2156
   587.42         38.1177
   587.56         38.0522
   587.70         38.0086
   587.84         37.9617
   587.98         37.8836
   588.12         37.7552
   588.26         37.5640
   588.40         37.3000
   588.54         36.9589
   588.68         36.5518
   588.82         36.1096
   588.96         35.6769
   589.10         35.2984
   589.24         35.0115
   589.38         34.8439
   589.52         34.8092
   589.66         34.9067
   589.80         35.1221
   589.94         35.4263
   590.08         35.7834
   590.22         36.1572
   590.36         36.5135
   590.50         36.8284
   590.64         37.0916
   590.78         37.3026
   590.92         37.4640
   591.06         37.5806
   591.20         37.6641
   591.34         37.7320
   591.48         37.7997
   591.62         37.8750
   591.76         37.9586
   591.90         38.0469
   592.04         38.1323
   592.18         38.2024
   592.32         38.2458
   592.46         38.2577
   592.60         38.2395
   592.74         38.1965
   592.88         38.1321
   593.02         38.0482
   593.16         37.9459
   593.30         37.8268
   593.44         37.6959
   593.58         37.5573
   593.72         37.4142
   593.86         37.2711
   594.00         37.1330
   594.14         37.0053
   594.28         36.8898
   594.42         36.7864
   594.56         36.6948
   594.70         36.6122
   594.84         36.5349
   594.98         36.4602
   595.12         36.3888
   595.26         36.3252
   595.40         36.2748
   595.54         36.2404
   595.68         36.2230
   595.82         36.2230
   595.96         36.2400
   596.10         36.2728
   596.24         36.3187
   596.38         36.3735
   596.52         36.4290
   596.66         36.4767
   596.80         36.5121
   596.94         36.5308
   597.08         36.5271
   597.22         36.4970
   597.36         36.4403
   597.50         36.3609
   597.64         36.2651
   597.78         36.1618
   597.92         36.0614
   598.06         35.9695
   598.20         35.8872
   598.34         35.8152
   598.48         35.7537
   598.62         35.7013
   598.76         35.6560
   598.90         35.6148
   599.04         35.5738
   599.18         35.5325
   599.32         35.4972
   599.46         35.4742
   599.60         35.4627
   599.74         35.4571
   599.88         35.4505
   600.02         35.4384
   600.16         35.4181
   600.30         35.3882
   600.44         35.3504
   600.58         35.3059
   600.72         35.2539
   600.86         35.1936
   601.00         35.1253
   601.14         35.0523
   601.28         34.9837
   601.42         34.9305
   601.56         34.9000
   601.70         34.8964
   601.84         34.9227
   601.98         34.9799
   602.12         35.0641
   602.26         35.1676
   602.40         35.2808
   602.54         35.3919
   602.68         35.4883
   602.82         35.5585
   602.96         35.5931
   603.10         35.5886
   603.24         35.5463
   603.38         35.4697
   603.52         35.3622
   603.66         35.2285
   603.80         35.0761
   603.94         34.9143
   604.08         34.7536
   604.22         34.6043
   604.36         34.4755
   604.50         34.3743
   604.64         34.3023
   604.78         34.2563
   604.92         34.2312
   605.06         34.2216
   605.20         34.2207
   605.34         34.2242
   605.48         34.2329
   605.62         34.2492
   605.76         34.2752
   605.90         34.3076
   606.04         34.3407
   606.18         34.3691
   606.32         34.3896
   606.46         34.4014
   606.60         34.4067
   606.74         34.4091
   606.88         34.4107
   607.02         34.4122
   607.16         34.4140
   607.30         34.4159
   607.44         34.4174
   607.58         34.4183
   607.72         34.4176
   607.86         34.4126
   608.00         34.4010
   608.14         34.3813
   608.28         34.3515
   608.42         34.3098
   608.56         34.2569
   608.70         34.1967
   608.84         34.1340
   608.98         34.0710
   609.12         34.0083
   609.26         33.9434
   609.40         33.8732
   609.54         33.7972
   609.68         33.7178
   609.82         33.6377
   609.96         33.5584
   610.10         33.4819
   610.24         33.4105
   610.38         33.3476
   610.52         33.2971
   610.66         33.2627
   610.80         33.2467
   610.94         33.2482
   611.08         33.2627
   611.22         33.2827
   611.36         33.2998
   611.50         33.3067
   611.64         33.2988
   611.78         33.2749
   611.92         33.2398
   612.06         33.2032
   612.20         33.1758
   612.34         33.1638
   612.48         33.1677
   612.62         33.1843
   612.76         33.2095
   612.90         33.2374
   613.04         33.2604
   613.18         33.2711
   613.32         33.2607
   613.46         33.2206
   613.60         33.1472
   613.74         33.0439
   613.88         32.9189
   614.02         32.7859
   614.16         32.6594
   614.30         32.5501
   614.44         32.4650
   614.58         32.4111
   614.72         32.3937
   614.86         32.4122
   615.00         32.4617
   615.14         32.5347
   615.28         32.6204
   615.42         32.7093
   615.56         32.7930
   615.70         32.8637
   615.84         32.9159
   615.98         32.9460
   616.12         32.9539
   616.26         32.9414
   616.40         32.9102
   616.54         32.8619
   616.68         32.7998
   616.82         32.7244
   616.96         32.6354
   617.10         32.5369
   617.24         32.4355
   617.38         32.3356
   617.52         32.2396
   617.66         32.1488
   617.80         32.0631
   617.94         31.9835
   618.08         31.9142
   618.22         31.8598
   618.36         31.8260
   618.50         31.8184
   618.64         31.8372
   618.78         31.8766
   618.92         31.9257
   619.06         31.9730
   619.20         32.0088
   619.34         32.0258
   619.48         32.0208
   619.62         31.9967
   619.76         31.9599
   619.90         31.9153
   620.04         31.8672
   620.18         31.8195
   620.32         31.7780
   620.46         31.7504
   620.60         31.7414
   620.74         31.7510
   620.88         31.7768
   621.02         31.8140
   621.16         31.8546
   621.30         31.8902
   621.44         31.9170
   621.58         31.9314
   621.72         31.9299
   621.86         31.9133
   622.00         31.8878
   622.14         31.8621
   622.28         31.8427
   622.42         31.8314
   622.56         31.8247
   622.70         31.8178
   622.84         31.8096
   622.98         31.8003
   623.12         31.7873
   623.26         31.7668
   623.40         31.7380
   623.54         31.7027
   623.68         31.6648
   623.82         31.6297
   623.96         31.6030
   624.10         31.5873
   624.24         31.5830
   624.38         31.5929
   624.52         31.6217
   624.66         31.6689
   624.80         31.7262
   624.94         31.7814
   625.08         31.8202
   625.22         31.8279
   625.36         31.7967
   625.50         31.7263
   625.64         31.6175
   625.78         31.4728
   625.92         31.3000
   626.06         31.1105
   626.20         30.9182
   626.34         30.7352
   626.48         30.5646
   626.62         30.4004
   626.76         30.2361
   626.90         30.0688
   627.04         29.8967
   627.18         29.7165
   627.32         29.5240
   627.46         29.3178
   627.60         29.1043
   627.74         28.8964
   627.88         28.7100
   628.02         28.5631
   628.16         28.4720
   628.30         28.4500
   628.44         28.5050
   628.58         28.6349
   628.72         28.8275
   628.86         29.0627
   629.00         29.3130
   629.14         29.5454
   629.28         29.7336
   629.42         29.8652
   629.56         29.9387
   629.70         29.9578
   629.84         29.9287
   629.98         29.8607
   630.12         29.7695
   630.26         29.6728
   630.40         29.5833
   630.54         29.5097
   630.68         29.4598
   630.82         29.4391
   630.96         29.4484
   631.10         29.4816
   631.24         29.5274
   631.38         29.5743
   631.52         29.6140
   631.66         29.6412
   631.80         29.6566
   631.94         29.6659
   632.08         29.6748
   632.22         29.6874
   632.36         29.7040
   632.50         29.7203
   632.64         29.7316
   632.78         29.7377
   632.92         29.7411
   633.06         29.7424
   633.20         29.7371
   633.34         29.7169
   633.48         29.6756
   633.62         29.6133
   633.76         29.5324
   633.90         29.4350
   634.04         29.3279
   634.18         29.2240
   634.32         29.1350
   634.46         29.0689
   634.60         29.0299
   634.74         29.0197
   634.88         29.0372
   635.02         29.0752
   635.16         29.1210
   635.30         29.1641
   635.44         29.2004
   635.58         29.2274
   635.72         29.2412
   635.86         29.2382
   636.00         29.2204
   636.14         29.1938
   636.28         29.1626
   636.42         29.1252
   636.56         29.0804
   636.70         29.0302
   636.84         28.9766
   636.98         28.9187
   637.12         28.8556
   637.26         28.7879
   637.40         28.7175
   637.54         28.6481
   637.68         28.5838
   637.82         28.5302
   637.96         28.4964
   638.10         28.4901
   638.24         28.5129
   638.38         28.5592
   638.52         28.6195
   638.66         28.6830
   638.80         28.7401
   638.94         28.7835
   639.08         28.8093
   639.22         28.8161
   639.36         28.8039
   639.50         28.7743
   639.64         28.7297
   639.78         28.6738
   639.92         28.6126
   640.06         28.5534
   640.20         28.5041
   640.34         28.4708
   640.48         28.4584
   640.62         28.4675
   640.76         28.4909
   640.90         28.5177
   641.04         28.5396
   641.18         28.5535
   641.32         28.5604
   641.46         28.5648
   641.60         28.5736
   641.74         28.5927
   641.88         28.6245
   642.02         28.6687
   642.16         28.7223
   642.30         28.7795
   642.44         28.8344
   642.58         28.8836
   642.72         28.9253
   642.86         28.9549
   643.00         28.9641
   643.14         28.9435
   643.28         28.8865
   643.42         28.7925
   643.56         28.6669
   643.70         28.5202
   643.84         28.3622
   643.98         28.2000
   644.12         28.0402
   644.26         27.8901
   644.40         27.7563
   644.54         27.6435
   644.68         27.5544
   644.82         27.4897
   644.96         27.4491
   645.10         27.4311
   645.24         27.4329
   645.38         27.4501
   645.52         27.4762
   645.66         27.5048
   645.80         27.5323
   645.94         27.5586
   646.08         27.5822
   646.22         27.5996
   646.36         27.6084
   646.50         27.6076
   646.64         27.5986
   646.78         27.5849
   646.92         27.5695
   647.06         27.5547
   647.20         27.5429
   647.34         27.5369
   647.48         27.5395
   647.62         27.5508
   647.76         27.5677
   647.90         27.5864
   648.04         27.6010
   648.18         27.6030
   648.32         27.5856
   648.46         27.5485
   648.60         27.4953
   648.74         27.4302
   648.88         27.3598
   649.02         27.2928
   649.16         27.2384
   649.30         27.2033
   649.44         27.1903
   649.58         27.1976
   649.72         27.2215
   649.86         27.2576
   650.00         27.3003
   650.14         27.3433
   650.28         27.3801
   650.42         27.4064
   650.56         27.4205
   650.70         27.4220
   650.84         27.4131
   650.98         27.3963
   651.12         27.3704
   651.26         27.3310
   651.40         27.2742
   651.54         27.2020
   651.68         27.1213
   651.82         27.0391
   651.96         26.9589
   652.10         26.8822
   652.24         26.8135
   652.38         26.7607
   652.52         26.7336
   652.66         26.7394
   652.80         26.7797
   652.94         26.8502
   653.08         26.9419
   653.22         27.0433
   653.36         27.1416
   653.50         27.2233
   653.64         27.2763
   653.78         27.2949
   653.92         27.2795
   654.06         27.2313
   654.20         27.1520
   654.34         27.0417
   654.48         26.8992
   654.62         26.7246
   654.76         26.5192
   654.90         26.2863
   655.04         26.0304
   655.18         25.7562
   655.32         25.4710
   655.46         25.1861
   655.60         24.9158
   655.74         24.6740
   655.88         24.4741
   656.02         24.3277
   656.16         24.2438
   656.30         24.2287
   656.44         24.2826
   656.58         24.3983
   656.72         24.5651
   656.86         24.7732
   657.00         25.0148
   657.14         25.2785
   657.28         25.5474
   657.42         25.8035
   657.56         26.0339
   657.70         26.2304
   657.84         26.3897
   657.98         26.5104
   658.12         26.5903
   658.26         26.6271
   658.40         26.6221
   658.54         26.5791
   658.68         26.5023
   658.82         26.3969
   658.96         26.2703
   659.10         26.1316
   659.24         25.9906
   659.38         25.8573
   659.52         25.7392
   659.66         25.6402
   659.80         25.5589
   659.94         25.4933
   660.08         25.4422
   660.22         25.4052
   660.36         25.3840
   660.50         25.3806
   660.64         25.3951
   660.78         25.4245
   660.92         25.4638
   661.06         25.5074
   661.20         25.5501
   661.34         25.5892
   661.48         25.6261
   661.62         25.6640
   661.76         25.7048
   661.90         25.7481
   662.04         25.7905
   662.18         25.8272
   662.32         25.8513
   662.46         25.8552
   662.60         25.8329
   662.74         25.7818
   662.88         25.7046
   663.02         25.6085
   663.16         25.4989
   663.30         25.3795
   663.44         25.2575
   663.58         25.1441
   663.72         25.0534
   663.86         24.9963
   664.00         24.9772
   664.14         24.9947
   664.28         25.0406
   664.42         25.1022
   664.56         25.1667
   664.70         25.2234
   664.84         25.2638
   664.98         25.2806
   665.12         25.2671
   665.26         25.2189
   665.40         25.1344
   665.54         25.0167
   665.68         24.8724
   665.82         24.7107
   665.96         24.5443
   666.10         24.3862
   666.24         24.2459
   666.38         24.1281
   666.52         24.0343
   666.66         23.9658
   666.80         23.9238
   666.94         23.9085
   667.08         23.9216
   667.22         23.9641
   667.36         24.0315
   667.50         24.1141
   667.64         24.2007
   667.78         24.2790
   667.92         24.3401
   668.06         24.3806
   668.20         24.4018
   668.34         24.4062
   668.48         24.3969
   668.62         24.3773
   668.76         24.3511
   668.90         24.3225
   669.04         24.2976
   669.18         24.2815
   669.32         24.2767
   669.46         24.2815
   669.60         24.2917
   669.74         24.3019
   669.88         24.3058
   670.02         24.2975
   670.16         24.2734
   670.30         24.2311
   670.44         24.1702
   670.58         24.0956
   670.72         24.0162
   670.86         23.9413
   671.00         23.8778
   671.14         23.8292
   671.28         23.7948
   671.42         23.7705
   671.56         23.7516
   671.70         23.7339
   671.84         23.7137
   671.98         23.6891
   672.12         23.6601
   672.26         23.6276
   672.40         23.5925
   672.54         23.5551
   672.68         23.5115
   672.82         23.4582
   672.96         23.3973
   673.10         23.3366
   673.24         23.2856
   673.38         23.2504
   673.52         23.2318
   673.66         23.2261
   673.80         23.2266
   673.94         23.2275
   674.08         23.2274
   674.22         23.2290
   674.36         23.2358
   674.50         23.2511
   674.64         23.2766
   674.78         23.3094
   674.92         23.3451
   675.06         23.3809
   675.20         23.4163
   675.34         23.4534
   675.48         23.4968
   675.62         23.5510
   675.76         23.6136
   675.90         23.6759
   676.04         23.7272
   676.18         23.7598
   676.32         23.7694
   676.46         23.7576
   676.60         23.7309
   676.74         23.6972
   676.88         23.6620
   677.02         23.6268
   677.16         23.5913
   677.30         23.5532
   677.44         23.5111
   677.58         23.4678
   677.72         23.4275
   677.86         23.3925
   678.00         23.3630
   678.14         23.3382
   678.28         23.3191
   678.42         23.3083
   678.56         23.3078
   678.70         23.3193
   678.84         23.3442
   678.98         23.3812
   679.12         23.4251
   679.26         23.4666
   679.40         23.4963
   679.54         23.5071
   679.68         23.4961
   679.82         23.4650
   679.96         23.4185
   680.10         23.3609
   680.24         23.2948
   680.38         23.2214
   680.52         23.1424
   680.66         23.0611
   680.80         22.9807
   680.94         22.9046
   681.08         22.8347
   681.22         22.7735
   681.36         22.7261
   681.50         22.6988
   681.64         22.6943
   681.78         22.7121
   681.92         22.7502
   682.06         22.8061
   682.20         22.8762
   682.34         22.9544
   682.48         23.0318
   682.62         23.0977
   682.76         23.1425
   682.90         23.1599
   683.04         23.1490
   683.18         23.1129
   683.32         23.0555
   683.46         22.9814
   683.60         22.8978
   683.74         22.8127
   683.88         22.7337
   684.02         22.6655
   684.16         22.6076
   684.30         22.5558
   684.44         22.5063
   684.58         22.4572
   684.72         22.4071
   684.86         22.3549
   685.00         22.3002
   685.14         22.2425
   685.28         22.1811
   685.42         22.1125
   685.56         22.0272
   685.70         21.9075
   685.84         21.7329
   685.98         21.4869
   686.12         21.1617
   686.26         20.7600
   686.40         20.2946
   686.54         19.7875
   686.68         19.2686
   686.82         18.7735
   686.96         18.3403
   687.10         18.0052
   687.24         17.7967
   687.38         17.7293
   687.52         17.7999
   687.66         17.9898
   687.80         18.2663
   687.94         18.5887
   688.08         18.9135
   688.22         19.2014
   688.36         19.4263
   688.50         19.5787
   688.64         19.6612
   688.78         19.6835
   688.92         19.6606
   689.06         19.6117
   689.20         19.5553
   689.34         19.5055
   689.48         19.4715
   689.62         19.4556
   689.76         19.4551
   689.90         19.4656
   690.04         19.4815
   690.18         19.4995
   690.32         19.5200
   690.46         19.5450
   690.60         19.5768
   690.74         19.6184
   690.88         19.6758
   691.02         19.7556
   691.16         19.8605
   691.30         19.9883
   691.44         20.1352
   691.58         20.2968
   691.72         20.4664
   691.86         20.6324
   692.00         20.7824
   692.14         20.9065
   692.28         20.9985
   692.42         21.0552
   692.56         21.0757
   692.70         21.0603
   692.84         21.0114
   692.98         20.9337
   693.12         20.8347
   693.26         20.7246
   693.40         20.6147
   693.54         20.5150
   693.68         20.4319
   693.82         20.3692
   693.96         20.3293
   694.10         20.3137
   694.24         20.3214
   694.38         20.3478
   694.52         20.3871
   694.66         20.4365
   694.80         20.4954
   694.94         20.5621
   695.08         20.6336
   695.22         20.7068
   695.36         20.7805
   695.50         20.8551
   695.64         20.9302
   695.78         21.0060
   695.92         21.0830
   696.06         21.1619
   696.20         21.2430
   696.34         21.3255
   696.48         21.4060
   696.62         21.4786
   696.76         21.5391
   696.90         21.5856
   697.04         21.6186
   697.18         21.6394
   697.32         21.6488
   697.46         21.6454
   697.60         21.6258
   697.74         21.5866
   697.88         21.5285
   698.02         21.4539
   698.16         21.3656
   698.30         21.2666
   698.44         21.1598
   698.58         21.0472
   698.72         20.9318
   698.86         20.8191
   699.00         20.7153
   699.14         20.6267
   699.28         20.5581
   699.42         20.5122
   699.56         20.4889
   699.70         20.4850
   699.84         20.4950
   699.98         20.5131
   700.12         20.5357
   700.26         20.5604
   700.40         20.5861
   700.54         20.6117
   700.68         20.6365
   700.82         20.6615
   700.96         20.6887
   701.10         20.7178
   701.24         20.7466
   701.38         20.7726
   701.52         20.7917
   701.66         20.7978
   701.80         20.7849
   701.94         20.7509
   702.08         20.7006
   702.22         20.6433
   702.36         20.5896
   702.50         20.5484
   702.64         20.5248
   702.78         20.5201
   702.92         20.5337
   703.06         20.5646
   703.20         20.6105
   703.34         20.6663
   703.48         20.7252
   703.62         20.7801
   703.76         20.8237
   703.90         20.8503
   704.04         20.8580
   704.18         20.8495
   704.32         20.8319
   704.46         20.8157
   704.60         20.8103
   704.74         20.8196
   704.88         20.8407
   705.02         20.8661
   705.16         20.8874
   705.30         20.8964
   705.44         20.8878
   705.58         20.8600
   705.72         20.8142
   705.86         20.7531
   706.00         20.6819
   706.14         20.6086
   706.28         20.5400
   706.42         20.4789
   706.56         20.4277
   706.70         20.3895
   706.84         20.3659
   706.98         20.3568
   707.12         20.3608
   707.26         20.3749
   707.40         20.3939
   707.54         20.4118
   707.68         20.4237
   707.82         20.4254
   707.96         20.4149
   708.10         20.3925
   708.24         20.3610
   708.38         20.3239
   708.52         20.2834
   708.66         20.2400
   708.80         20.1918
   708.94         20.1358
   709.08         20.0714
   709.22         20.0008
   709.36         19.9276
   709.50         19.8574
   709.64         19.7982
   709.78         19.7574
   709.92         19.7386
   710.06         19.7436
   710.20         19.7751
   710.34         19.8344
   710.48         19.9171
   710.62         20.0152
   710.76         20.1217
   710.90         20.2303
   711.04         20.3330
   711.18         20.4218
   711.32         20.4907
   711.46         20.5373
   711.60         20.5635
   711.74         20.5752
   711.88         20.5791
   712.02         20.5827
   712.16         20.5954
   712.30         20.6243
   712.44         20.6713
   712.58         20.7323
   712.72         20.7994
   712.86         20.8597
   713.00         20.8976
   713.14         20.9018
   713.28         20.8716
   713.42         20.8131
   713.56         20.7331
   713.70         20.6377
   713.84         20.5360
   713.98         20.4394
   714.12         20.3597
   714.26         20.3068
   714.40         20.2843
   714.54         20.2913
   714.68         20.3253
   714.82         20.3802
   714.96         20.4440
   715.10         20.5000
   715.24         20.5319
   715.38         20.5277
   715.52         20.4794
   715.66         20.3853
   715.80         20.2501
   715.94         20.0807
   716.08         19.8831
   716.22         19.6623
   716.36         19.4233
   716.50         19.1722
   716.64         18.9163
   716.78         18.6650
   716.92         18.4272
   717.06         18.2096
   717.20         18.0184
   717.34         17.8570
   717.48         17.7229
   717.62         17.6125
   717.76         17.5247
   717.90         17.4598
   718.04         17.4178
   718.18         17.3995
   718.32         17.4051
   718.46         17.4333
   718.60         17.4807
   718.74         17.5404
   718.88         17.6031
   719.02         17.6604
   719.16         17.7088
   719.30         17.7474
   719.44         17.7754
   719.58         17.7919
   719.72         17.7968
   719.86         17.7934
   720.00         17.7901
   720.14         17.8013
   720.28         17.8431
   720.42         17.9265
   720.56         18.0546
   720.70         18.2288
   720.84         18.4478
   720.98         18.7020
   721.12         18.9744
   721.26         19.2442
   721.40         19.4901
   721.54         19.6966
   721.68         19.8565
   721.82         19.9663
   721.96         20.0230
   722.10         20.0252
   722.24         19.9725
   722.38         19.8669
   722.52         19.7172
   722.66         19.5392
   722.80         19.3495
   722.94         19.1625
   723.08         18.9900
   723.22         18.8407
   723.36         18.7200
   723.50         18.6297
   723.64         18.5699
   723.78         18.5441
   723.92         18.5570
   724.06         18.6087
   724.20         18.6928
   724.34         18.7971
   724.48         18.9062
   724.62         19.0055
   724.76         19.0843
   724.90         19.1379
   725.04         19.1676
   725.18         19.1773
   725.32         19.1666
   725.46         19.1347
   725.60         19.0864
   725.74         19.0288
   725.88         18.9685
   726.02         18.9109
   726.16         18.8590
   726.30         18.8114
   726.44         18.7601
   726.58         18.6930
   726.72         18.5999
   726.86         18.4793
   727.00         18.3393
   727.14         18.1940
   727.28         18.0594
   727.42         17.9470
   727.56         17.8600
   727.70         17.7973
   727.84         17.7547
   727.98         17.7279
   728.12         17.7145
   728.26         17.7131
   728.40         17.7181
   728.54         17.7211
   728.68         17.7159
   728.82         17.7016
   728.96         17.6826
   729.10         17.6649
   729.24         17.6546
   729.38         17.6591
   729.52         17.6857
   729.66         17.7358
   729.80         17.8013
   729.94         17.8669
   730.08         17.9169
   730.22         17.9412
   730.36         17.9371
   730.50         17.9066
   730.64         17.8555
   730.78         17.7926
   730.92         17.7275
   731.06         17.6665
   731.20         17.6142
   731.34         17.5760
   731.48         17.5573
   731.62         17.5606
   731.76         17.5843
   731.90         17.6268
   732.04         17.6879
   732.18         17.7639
   732.32         17.8463
   732.46         17.9263
   732.60         17.9982
   732.74         18.0607
   732.88         18.1134
   733.02         18.1557
   733.16         18.1856
   733.30         18.2007
   733.44         18.2001
   733.58         18.1836
   733.72         18.1498
   733.86         18.0952
   734.00         18.0181
   734.14         17.9218
   734.28         17.8133
   734.42         17.7024
   734.56         17.6010
   734.70         17.5193
   734.84         17.4644
   734.98         17.4407
   735.12         17.4476
   735.26         17.4789
   735.40         17.5234
   735.54         17.5688
   735.68         17.6044
   735.82         17.6228
   735.96         17.6230
   736.10         17.6097
   736.24         17.5895
   736.38         17.5663
   736.52         17.5433
   736.66         17.5264
   736.80         17.5211
   736.94         17.5292
   737.08         17.5490
   737.22         17.5761
   737.36         17.6048
   737.50         17.6294
   737.64         17.6445
   737.78         17.6456
   737.92         17.6315
   738.06         17.6064
   738.20         17.5781
   738.34         17.5539
   738.48         17.5359
   738.62         17.5215
   738.76         17.5059
   738.90         17.4824
   739.04         17.4466
   739.18         17.3985
   739.32         17.3414
   739.46         17.2782
   739.60         17.2104
   739.74         17.1390
   739.88         17.0669
   740.02         16.9980
   740.16         16.9366
   740.30         16.8875
   740.44         16.8577
   740.58         16.8553
   740.72         16.8852
   740.86         16.9484
   741.00         17.0411
   741.14         17.1563
   741.28         17.2848
   741.42         17.4138
   741.56         17.5289
   741.70         17.6158
   741.84         17.6616
   741.98         17.6589
   742.12         17.6100
   742.26         17.5255
   742.40         17.4226
   742.54         17.3217
   742.68         17.2412
   742.82         17.1961
   742.96         17.1961
   743.10         17.2412
   743.24         17.3217
   743.38         17.4226
   743.52         17.5255
   743.66         17.6100
   743.80         17.6589
   743.94         17.6616
   744.08         17.6158
   744.22         17.5289
