# File HD250368
# Wavelength [nm]    Normalized Amplitude
   349.70         1.3176
   349.84         1.3248
   349.98         1.3372
   350.12         1.3513
   350.26         1.3636
   350.40         1.3724
   350.54         1.3776
   350.68         1.3806
   350.82         1.3828
   350.96         1.3848
   351.10         1.3855
   351.24         1.3848
   351.38         1.3828
   351.52         1.3806
   351.66         1.3776
   351.80         1.3724
   351.94         1.3636
   352.08         1.3513
   352.22         1.3372
   352.36         1.3248
   352.50         1.3176
   352.64         1.3178
   352.78         1.3269
   352.92         1.3471
   353.06         1.3781
   353.20         1.4172
   353.34         1.4605
   353.48         1.5034
   353.62         1.5402
   353.76         1.5665
   353.90         1.5801
   354.04         1.5811
   354.18         1.5706
   354.32         1.5493
   354.46         1.5187
   354.60         1.4830
   354.74         1.4476
   354.88         1.4170
   355.02         1.3928
   355.16         1.3741
   355.30         1.3592
   355.44         1.3459
   355.58         1.3305
   355.72         1.3096
   355.86         1.2815
   356.00         1.2471
   356.14         1.2091
   356.28         1.1706
   356.42         1.1346
   356.56         1.1035
   356.70         1.0791
   356.84         1.0617
   356.98         1.0506
   357.12         1.0441
   357.26         1.0395
   357.40         1.0333
   357.54         1.0219
   357.68         1.0034
   357.82         0.9784
   357.96         0.9497
   358.10         0.9224
   358.24         0.9035
   358.38         0.8999
   358.52         0.9172
   358.66         0.9584
   358.80         1.0227
   358.94         1.1063
   359.08         1.2023
   359.22         1.3037
   359.36         1.4033
   359.50         1.4937
   359.64         1.5678
   359.78         1.6207
   359.92         1.6510
   360.06         1.6605
   360.20         1.6539
   360.34         1.6378
   360.48         1.6193
   360.62         1.6030
   360.76         1.5913
   360.90         1.5851
   361.04         1.5848
   361.18         1.5902
   361.32         1.6008
   361.46         1.6160
   361.60         1.6360
   361.74         1.6606
   361.88         1.6889
   362.02         1.7185
   362.16         1.7462
   362.30         1.7698
   362.44         1.7884
   362.58         1.8030
   362.72         1.8150
   362.86         1.8255
   363.00         1.8352
   363.14         1.8431
   363.28         1.8478
   363.42         1.8487
   363.56         1.8457
   363.70         1.8383
   363.84         1.8270
   363.98         1.8142
   364.12         1.8030
   364.26         1.7961
   364.40         1.7952
   364.54         1.8021
   364.68         1.8197
   364.82         1.8506
   364.96         1.8963
   365.10         1.9557
   365.24         2.0247
   365.38         2.0977
   365.52         2.1678
   365.66         2.2274
   365.80         2.2702
   365.94         2.2930
   366.08         2.2957
   366.22         2.2810
   366.36         2.2539
   366.50         2.2213
   366.64         2.1886
   366.78         2.1594
   366.92         2.1361
   367.06         2.1205
   367.20         2.1137
   367.34         2.1156
   367.48         2.1236
   367.62         2.1334
   367.76         2.1412
   367.90         2.1463
   368.04         2.1500
   368.18         2.1537
   368.32         2.1578
   368.46         2.1633
   368.60         2.1716
   368.74         2.1840
   368.88         2.2014
   369.02         2.2234
   369.16         2.2482
   369.30         2.2719
   369.44         2.2898
   369.58         2.2976
   369.72         2.2923
   369.86         2.2727
   370.00         2.2402
   370.14         2.1995
   370.28         2.1585
   370.42         2.1251
   370.56         2.1042
   370.70         2.0961
   370.84         2.0973
   370.98         2.1031
   371.12         2.1098
   371.26         2.1144
   371.40         2.1143
   371.54         2.1063
   371.68         2.0881
   371.82         2.0587
   371.96         2.0188
   372.10         1.9706
   372.24         1.9169
   372.38         1.8607
   372.52         1.8045
   372.66         1.7515
   372.80         1.7047
   372.94         1.6652
   373.08         1.6322
   373.22         1.6034
   373.36         1.5778
   373.50         1.5558
   373.64         1.5383
   373.78         1.5262
   373.92         1.5202
   374.06         1.5218
   374.20         1.5325
   374.34         1.5529
   374.48         1.5809
   374.62         1.6129
   374.76         1.6449
   374.90         1.6745
   375.04         1.7012
   375.18         1.7255
   375.32         1.7480
   375.46         1.7682
   375.60         1.7848
   375.74         1.7970
   375.88         1.8050
   376.02         1.8110
   376.16         1.8181
   376.30         1.8295
   376.44         1.8494
   376.58         1.8813
   376.72         1.9263
   376.86         1.9824
   377.00         2.0455
   377.14         2.1107
   377.28         2.1737
   377.42         2.2308
   377.56         2.2786
   377.70         2.3131
   377.84         2.3316
   377.98         2.3324
   378.12         2.3153
   378.26         2.2809
   378.40         2.2305
   378.54         2.1664
   378.68         2.0914
   378.82         2.0097
   378.96         1.9272
   379.10         1.8508
   379.24         1.7865
   379.38         1.7387
   379.52         1.7102
   379.66         1.7014
   379.80         1.7110
   379.94         1.7357
   380.08         1.7701
   380.22         1.8078
   380.36         1.8418
   380.50         1.8662
   380.64         1.8754
   380.78         1.8653
   380.92         1.8343
   381.06         1.7835
   381.20         1.7163
   381.34         1.6374
   381.48         1.5517
   381.62         1.4647
   381.76         1.3815
   381.90         1.3055
   382.04         1.2386
   382.18         1.1818
   382.32         1.1358
   382.46         1.1008
   382.60         1.0754
   382.74         1.0572
   382.88         1.0437
   383.02         1.0336
   383.16         1.0266
   383.30         1.0238
   383.44         1.0261
   383.58         1.0339
   383.72         1.0472
   383.86         1.0648
   384.00         1.0852
   384.14         1.1074
   384.28         1.1302
   384.42         1.1525
   384.56         1.1724
   384.70         1.1883
   384.84         1.1989
   384.98         1.2037
   385.12         1.2034
   385.26         1.1983
   385.40         1.1892
   385.54         1.1777
   385.68         1.1656
   385.82         1.1543
   385.96         1.1441
   386.10         1.1350
   386.24         1.1272
   386.38         1.1216
   386.52         1.1186
   386.66         1.1187
   386.80         1.1219
   386.94         1.1285
   387.08         1.1389
   387.22         1.1542
   387.36         1.1756
   387.50         1.2047
   387.64         1.2433
   387.78         1.2922
   387.92         1.3519
   388.06         1.4230
   388.20         1.5050
   388.34         1.5967
   388.48         1.6966
   388.62         1.8034
   388.76         1.9151
   388.90         2.0287
   389.04         2.1393
   389.18         2.2420
   389.32         2.3319
   389.46         2.4052
   389.60         2.4591
   389.74         2.4934
   389.88         2.5101
   390.02         2.5127
   390.16         2.5059
   390.30         2.4950
   390.44         2.4846
   390.58         2.4778
   390.72         2.4750
   390.86         2.4743
   391.00         2.4725
   391.14         2.4666
   391.28         2.4532
   391.42         2.4292
   391.56         2.3912
   391.70         2.3365
   391.84         2.2631
   391.98         2.1701
   392.12         2.0580
   392.26         1.9297
   392.40         1.7905
   392.54         1.6471
   392.68         1.5071
   392.82         1.3781
   392.96         1.2670
   393.10         1.1796
   393.24         1.1202
   393.38         1.0919
   393.52         1.0967
   393.66         1.1356
   393.80         1.2079
   393.94         1.3109
   394.08         1.4387
   394.22         1.5833
   394.36         1.7359
   394.50         1.8878
   394.64         2.0316
   394.78         2.1616
   394.92         2.2739
   395.06         2.3645
   395.20         2.4287
   395.34         2.4616
   395.48         2.4592
   395.62         2.4190
   395.76         2.3417
   395.90         2.2312
   396.04         2.0952
   396.18         1.9450
   396.32         1.7943
   396.46         1.6571
   396.60         1.5473
   396.74         1.4764
   396.88         1.4530
   397.02         1.4815
   397.16         1.5613
   397.30         1.6873
   397.44         1.8501
   397.58         2.0376
   397.72         2.2368
   397.86         2.4351
   398.00         2.6225
   398.14         2.7917
   398.28         2.9384
   398.42         3.0607
   398.56         3.1593
   398.70         3.2378
   398.84         3.3017
   398.98         3.3570
   399.12         3.4083
   399.26         3.4579
   399.40         3.5055
   399.54         3.5493
   399.68         3.5874
   399.82         3.6188
   399.96         3.6442
   400.10         3.6654
   400.24         3.6850
   400.38         3.7047
   400.52         3.7256
   400.66         3.7489
   400.80         3.7753
   400.94         3.8049
   401.08         3.8370
   401.22         3.8708
   401.36         3.9054
   401.50         3.9397
   401.64         3.9715
   401.78         3.9975
   401.92         4.0141
   402.06         4.0185
   402.20         4.0101
   402.34         3.9911
   402.48         3.9654
   402.62         3.9380
   402.76         3.9141
   402.90         3.8973
   403.04         3.8892
   403.18         3.8887
   403.32         3.8924
   403.46         3.8964
   403.60         3.8974
   403.74         3.8945
   403.88         3.8885
   404.02         3.8802
   404.16         3.8696
   404.30         3.8550
   404.44         3.8341
   404.58         3.8058
   404.72         3.7717
   404.86         3.7357
   405.00         3.7016
   405.14         3.6708
   405.28         3.6430
   405.42         3.6169
   405.56         3.5921
   405.70         3.5693
   405.84         3.5503
   405.98         3.5372
   406.12         3.5329
   406.26         3.5391
   406.40         3.5553
   406.54         3.5778
   406.68         3.6023
   406.82         3.6262
   406.96         3.6489
   407.10         3.6713
   407.24         3.6950
   407.38         3.7224
   407.52         3.7553
   407.66         3.7950
   407.80         3.8424
   407.94         3.8984
   408.08         3.9627
   408.22         4.0334
   408.36         4.1058
   408.50         4.1731
   408.64         4.2287
   408.78         4.2671
   408.92         4.2837
   409.06         4.2763
   409.20         4.2462
   409.34         4.1983
   409.48         4.1393
   409.62         4.0759
   409.76         4.0142
   409.90         3.9592
   410.04         3.9155
   410.18         3.8867
   410.32         3.8749
   410.46         3.8796
   410.60         3.8977
   410.74         3.9247
   410.88         3.9554
   411.02         3.9845
   411.16         4.0075
   411.30         4.0217
   411.44         4.0252
   411.58         4.0183
   411.72         4.0030
   411.86         3.9818
   412.00         3.9563
   412.14         3.9272
   412.28         3.8951
   412.42         3.8610
   412.56         3.8269
   412.70         3.7958
   412.84         3.7702
   412.98         3.7503
   413.12         3.7338
   413.26         3.7180
   413.40         3.7011
   413.54         3.6825
   413.68         3.6616
   413.82         3.6375
   413.96         3.6096
   414.10         3.5778
   414.24         3.5423
   414.38         3.5039
   414.52         3.4637
   414.66         3.4244
   414.80         3.3901
   414.94         3.3656
   415.08         3.3547
   415.22         3.3589
   415.36         3.3774
   415.50         3.4073
   415.64         3.4453
   415.78         3.4884
   415.92         3.5339
   416.06         3.5779
   416.20         3.6153
   416.34         3.6412
   416.48         3.6518
   416.62         3.6456
   416.76         3.6230
   416.90         3.5863
   417.04         3.5401
   417.18         3.4912
   417.32         3.4470
   417.46         3.4139
   417.60         3.3961
   417.74         3.3947
   417.88         3.4091
   418.02         3.4372
   418.16         3.4753
   418.30         3.5184
   418.44         3.5595
   418.58         3.5916
   418.72         3.6096
   418.86         3.6112
   419.00         3.5975
   419.14         3.5721
   419.28         3.5406
   419.42         3.5103
   419.56         3.4884
   419.70         3.4808
   419.84         3.4909
   419.98         3.5189
   420.12         3.5619
   420.26         3.6147
   420.40         3.6719
   420.54         3.7293
   420.68         3.7847
   420.82         3.8379
   420.96         3.8895
   421.10         3.9399
   421.24         3.9879
   421.38         4.0304
   421.52         4.0638
   421.66         4.0866
   421.80         4.0999
   421.94         4.1071
   422.08         4.1112
   422.22         4.1132
   422.36         4.1136
   422.50         4.1125
   422.64         4.1106
   422.78         4.1093
   422.92         4.1109
   423.06         4.1194
   423.20         4.1387
   423.34         4.1709
   423.48         4.2148
   423.62         4.2652
   423.76         4.3146
   423.90         4.3566
   424.04         4.3881
   424.18         4.4101
   424.32         4.4253
   424.46         4.4358
   424.60         4.4420
   424.74         4.4416
   424.88         4.4323
   425.02         4.4141
   425.16         4.3900
   425.30         4.3648
   425.44         4.3438
   425.58         4.3307
   425.72         4.3266
   425.86         4.3290
   426.00         4.3324
   426.14         4.3298
   426.28         4.3154
   426.42         4.2876
   426.56         4.2487
   426.70         4.2041
   426.84         4.1589
   426.98         4.1178
   427.12         4.0844
   427.26         4.0612
   427.40         4.0495
   427.54         4.0502
   427.68         4.0629
   427.82         4.0850
   427.96         4.1108
   428.10         4.1338
   428.24         4.1483
   428.38         4.1503
   428.52         4.1374
   428.66         4.1084
   428.80         4.0641
   428.94         4.0065
   429.08         3.9381
   429.22         3.8609
   429.36         3.7756
   429.50         3.6824
   429.64         3.5817
   429.78         3.4754
   429.92         3.3670
   430.06         3.2619
   430.20         3.1677
   430.34         3.0946
   430.48         3.0547
   430.62         3.0595
   430.76         3.1170
   430.90         3.2284
   431.04         3.3871
   431.18         3.5795
   431.32         3.7876
   431.46         3.9934
   431.60         4.1826
   431.74         4.3456
   431.88         4.4768
   432.02         4.5739
   432.16         4.6387
   432.30         4.6773
   432.44         4.6983
   432.58         4.7105
   432.72         4.7201
   432.86         4.7311
   433.00         4.7456
   433.14         4.7640
   433.28         4.7845
   433.42         4.8038
   433.56         4.8194
   433.70         4.8299
   433.84         4.8362
   433.98         4.8408
   434.12         4.8473
   434.26         4.8597
   434.40         4.8798
   434.54         4.9074
   434.68         4.9405
   434.82         4.9769
   434.96         5.0142
   435.10         5.0503
   435.24         5.0838
   435.38         5.1156
   435.52         5.1484
   435.66         5.1849
   435.80         5.2261
   435.94         5.2704
   436.08         5.3137
   436.22         5.3501
   436.36         5.3733
   436.50         5.3785
   436.64         5.3639
   436.78         5.3315
   436.92         5.2852
   437.06         5.2282
   437.20         5.1619
   437.34         5.0865
   437.48         5.0041
   437.62         4.9185
   437.76         4.8337
   437.90         4.7529
   438.04         4.6786
   438.18         4.6129
   438.32         4.5582
   438.46         4.5180
   438.60         4.4957
   438.74         4.4933
   438.88         4.5102
   439.02         4.5442
   439.16         4.5916
   439.30         4.6462
   439.44         4.7000
   439.58         4.7453
   439.72         4.7771
   439.86         4.7955
   440.00         4.8055
   440.14         4.8143
   440.28         4.8268
   440.42         4.8448
   440.56         4.8696
   440.70         4.9023
   440.84         4.9438
   440.98         4.9936
   441.12         5.0492
   441.26         5.1060
   441.40         5.1585
   441.54         5.2030
   441.68         5.2375
   441.82         5.2617
   441.96         5.2766
   442.10         5.2842
   442.24         5.2870
   442.38         5.2869
   442.52         5.2855
   442.66         5.2839
   442.80         5.2826
   442.94         5.2813
   443.08         5.2803
   443.22         5.2805
   443.36         5.2836
   443.50         5.2911
   443.64         5.3042
   443.78         5.3234
   443.92         5.3490
   444.06         5.3806
   444.20         5.4159
   444.34         5.4506
   444.48         5.4794
   444.62         5.4979
   444.76         5.5023
   444.90         5.4900
   445.04         5.4608
   445.18         5.4179
   445.32         5.3661
   445.46         5.3106
   445.60         5.2565
   445.74         5.2091
   445.88         5.1745
   446.02         5.1578
   446.16         5.1626
   446.30         5.1902
   446.44         5.2402
   446.58         5.3112
   446.72         5.3989
   446.86         5.4961
   447.00         5.5951
   447.14         5.6902
   447.28         5.7785
   447.42         5.8588
   447.56         5.9310
   447.70         5.9945
   447.84         6.0485
   447.98         6.0915
   448.12         6.1223
   448.26         6.1398
   448.40         6.1445
   448.54         6.1385
   448.68         6.1254
   448.82         6.1096
   448.96         6.0952
   449.10         6.0869
   449.24         6.0897
   449.38         6.1065
   449.52         6.1386
   449.66         6.1869
   449.80         6.2512
   449.94         6.3285
   450.08         6.4122
   450.22         6.4928
   450.36         6.5611
   450.50         6.6098
   450.64         6.6351
   450.78         6.6363
   450.92         6.6160
   451.06         6.5786
   451.20         6.5290
   451.34         6.4720
   451.48         6.4107
   451.62         6.3469
   451.76         6.2825
   451.90         6.2184
   452.04         6.1546
   452.18         6.0906
   452.32         6.0269
   452.46         5.9658
   452.60         5.9105
   452.74         5.8639
   452.88         5.8275
   453.02         5.8023
   453.16         5.7891
   453.30         5.7884
   453.44         5.7994
   453.58         5.8198
   453.72         5.8452
   453.86         5.8706
   454.00         5.8912
   454.14         5.9035
   454.28         5.9068
   454.42         5.9037
   454.56         5.8986
   454.70         5.8960
   454.84         5.8993
   454.98         5.9110
   455.12         5.9326
   455.26         5.9628
   455.40         5.9988
   455.54         6.0379
   455.68         6.0794
   455.82         6.1224
   455.96         6.1655
   456.10         6.2068
   456.24         6.2447
   456.38         6.2773
   456.52         6.3034
   456.66         6.3224
   456.80         6.3344
   456.94         6.3404
   457.08         6.3415
   457.22         6.3381
   457.36         6.3299
   457.50         6.3171
   457.64         6.3005
   457.78         6.2820
   457.92         6.2645
   458.06         6.2506
   458.20         6.2422
   458.34         6.2384
   458.48         6.2366
   458.62         6.2349
   458.76         6.2328
   458.90         6.2300
   459.04         6.2263
   459.18         6.2216
   459.32         6.2166
   459.46         6.2131
   459.60         6.2141
   459.74         6.2226
   459.88         6.2413
   460.02         6.2715
   460.16         6.3122
   460.30         6.3608
   460.44         6.4142
   460.58         6.4691
   460.72         6.5222
   460.86         6.5715
   461.00         6.6157
   461.14         6.6552
   461.28         6.6910
   461.42         6.7242
   461.56         6.7547
   461.70         6.7820
   461.84         6.8055
   461.98         6.8247
   462.12         6.8387
   462.26         6.8461
   462.40         6.8451
   462.54         6.8336
   462.68         6.8106
   462.82         6.7759
   462.96         6.7323
   463.10         6.6833
   463.24         6.6318
   463.38         6.5787
   463.52         6.5241
   463.66         6.4680
   463.80         6.4120
   463.94         6.3589
   464.08         6.3115
   464.22         6.2719
   464.36         6.2409
   464.50         6.2190
   464.64         6.2079
   464.78         6.2096
   464.92         6.2255
   465.06         6.2555
   465.20         6.2967
   465.34         6.3434
   465.48         6.3877
   465.62         6.4220
   465.76         6.4400
   465.90         6.4383
   466.04         6.4173
   466.18         6.3814
   466.32         6.3385
   466.46         6.2974
   466.60         6.2652
   466.74         6.2457
   466.88         6.2400
   467.02         6.2487
   467.16         6.2728
   467.30         6.3118
   467.44         6.3618
   467.58         6.4162
   467.72         6.4679
   467.86         6.5113
   468.00         6.5419
   468.14         6.5582
   468.28         6.5617
   468.42         6.5555
   468.56         6.5420
   468.70         6.5227
   468.84         6.4981
   468.98         6.4693
   469.12         6.4367
   469.26         6.4005
   469.40         6.3614
   469.54         6.3214
   469.68         6.2831
   469.82         6.2483
   469.96         6.2183
   470.10         6.1935
   470.24         6.1750
   470.38         6.1645
   470.52         6.1635
   470.66         6.1732
   470.80         6.1950
   470.94         6.2290
   471.08         6.2743
   471.22         6.3286
   471.36         6.3881
   471.50         6.4480
   471.64         6.5023
   471.78         6.5447
   471.92         6.5705
   472.06         6.5767
   472.20         6.5628
   472.34         6.5306
   472.48         6.4847
   472.62         6.4318
   472.76         6.3795
   472.90         6.3353
   473.04         6.3057
   473.18         6.2949
   473.32         6.3046
   473.46         6.3336
   473.60         6.3792
   473.74         6.4372
   473.88         6.5025
   474.02         6.5692
   474.16         6.6316
   474.30         6.6849
   474.44         6.7271
   474.58         6.7582
   474.72         6.7792
   474.86         6.7917
   475.00         6.7970
   475.14         6.7958
   475.28         6.7882
   475.42         6.7741
   475.56         6.7539
   475.70         6.7295
   475.84         6.7033
   475.98         6.6784
   476.12         6.6577
   476.26         6.6449
   476.40         6.6434
   476.54         6.6551
   476.68         6.6805
   476.82         6.7190
   476.96         6.7702
   477.10         6.8327
   477.24         6.9031
   477.38         6.9760
   477.52         7.0445
   477.66         7.1016
   477.80         7.1421
   477.94         7.1644
   478.08         7.1697
   478.22         7.1610
   478.36         7.1417
   478.50         7.1156
   478.64         7.0858
   478.78         7.0554
   478.92         7.0271
   479.06         7.0037
   479.20         6.9872
   479.34         6.9788
   479.48         6.9781
   479.62         6.9830
   479.76         6.9900
   479.90         6.9957
   480.04         6.9985
   480.18         6.9977
   480.32         6.9944
   480.46         6.9915
   480.60         6.9919
   480.74         6.9978
   480.88         7.0099
   481.02         7.0276
   481.16         7.0490
   481.30         7.0716
   481.44         7.0935
   481.58         7.1123
   481.72         7.1256
   481.86         7.1301
   482.00         7.1235
   482.14         7.1053
   482.28         7.0769
   482.42         7.0412
   482.56         7.0014
   482.70         6.9611
   482.84         6.9234
   482.98         6.8905
   483.12         6.8641
   483.26         6.8455
   483.40         6.8358
   483.54         6.8350
   483.68         6.8411
   483.82         6.8518
   483.96         6.8654
   484.10         6.8801
   484.24         6.8935
   484.38         6.9024
   484.52         6.9043
   484.66         6.8976
   484.80         6.8807
   484.94         6.8509
   485.08         6.8056
   485.22         6.7447
   485.36         6.6729
   485.50         6.5968
   485.64         6.5231
   485.78         6.4573
   485.92         6.4042
   486.06         6.3658
   486.20         6.3416
   486.34         6.3303
   486.48         6.3314
   486.62         6.3447
   486.76         6.3699
   486.90         6.4054
   487.04         6.4488
   487.18         6.4979
   487.32         6.5504
   487.46         6.6028
   487.60         6.6507
   487.74         6.6908
   487.88         6.7215
   488.02         6.7418
   488.16         6.7504
   488.30         6.7472
   488.44         6.7351
   488.58         6.7201
   488.72         6.7092
   488.86         6.7100
   489.00         6.7276
   489.14         6.7639
   489.28         6.8184
   489.42         6.8891
   489.56         6.9721
   489.70         7.0613
   489.84         7.1489
   489.98         7.2259
   490.12         7.2838
   490.26         7.3177
   490.40         7.3270
   490.54         7.3149
   490.68         7.2872
   490.82         7.2496
   490.96         7.2054
   491.10         7.1552
   491.24         7.0998
   491.38         7.0410
   491.52         6.9818
   491.66         6.9261
   491.80         6.8793
   491.94         6.8481
   492.08         6.8385
   492.22         6.8521
   492.36         6.8857
   492.50         6.9333
   492.64         6.9888
   492.78         7.0461
   492.92         7.0994
   493.06         7.1427
   493.20         7.1715
   493.34         7.1843
   493.48         7.1816
   493.62         7.1667
   493.76         7.1457
   493.90         7.1259
   494.04         7.1142
   494.18         7.1159
   494.32         7.1332
   494.46         7.1643
   494.60         7.2047
   494.74         7.2478
   494.88         7.2868
   495.02         7.3163
   495.16         7.3342
   495.30         7.3412
   495.44         7.3404
   495.58         7.3354
   495.72         7.3294
   495.86         7.3245
   496.00         7.3220
   496.14         7.3225
   496.28         7.3261
   496.42         7.3326
   496.56         7.3413
   496.70         7.3509
   496.84         7.3599
   496.98         7.3653
   497.12         7.3629
   497.26         7.3486
   497.40         7.3195
   497.54         7.2744
   497.68         7.2148
   497.82         7.1435
   497.96         7.0646
   498.10         6.9828
   498.24         6.9033
   498.38         6.8320
   498.52         6.7751
   498.66         6.7376
   498.80         6.7221
   498.94         6.7274
   499.08         6.7474
   499.22         6.7734
   499.36         6.7964
   499.50         6.8091
   499.64         6.8051
   499.78         6.7799
   499.92         6.7339
   500.06         6.6720
   500.20         6.6013
   500.34         6.5279
   500.48         6.4572
   500.62         6.3943
   500.76         6.3441
   500.90         6.3095
   501.04         6.2915
   501.18         6.2893
   501.32         6.3004
   501.46         6.3219
   501.60         6.3505
   501.74         6.3836
   501.88         6.4194
   502.02         6.4580
   502.16         6.5008
   502.30         6.5489
   502.44         6.6028
   502.58         6.6615
   502.72         6.7209
   502.86         6.7750
   503.00         6.8172
   503.14         6.8428
   503.28         6.8498
   503.42         6.8389
   503.56         6.8142
   503.70         6.7824
   503.84         6.7493
   503.98         6.7191
   504.12         6.6953
   504.26         6.6808
   504.40         6.6779
   504.54         6.6883
   504.68         6.7132
   504.82         6.7528
   504.96         6.8056
   505.10         6.8681
   505.24         6.9354
   505.38         7.0026
   505.52         7.0651
   505.66         7.1191
   505.80         7.1622
   505.94         7.1933
   506.08         7.2125
   506.22         7.2194
   506.36         7.2123
   506.50         7.1903
   506.64         7.1550
   506.78         7.1109
   506.92         7.0627
   507.06         7.0144
   507.20         6.9686
   507.34         6.9272
   507.48         6.8918
   507.62         6.8641
   507.76         6.8447
   507.90         6.8331
   508.04         6.8293
   508.18         6.8343
   508.32         6.8499
   508.46         6.8767
   508.60         6.9140
   508.74         6.9585
   508.88         7.0038
   509.02         7.0433
   509.16         7.0729
   509.30         7.0901
   509.44         7.0930
   509.58         7.0812
   509.72         7.0571
   509.86         7.0249
   510.00         6.9892
   510.14         6.9546
   510.28         6.9261
   510.42         6.9088
   510.56         6.9072
   510.70         6.9237
   510.84         6.9574
   510.98         7.0040
   511.12         7.0566
   511.26         7.1079
   511.40         7.1513
   511.54         7.1816
   511.68         7.1966
   511.82         7.1958
   511.96         7.1789
   512.10         7.1468
   512.24         7.1024
   512.38         7.0504
   512.52         6.9966
   512.66         6.9469
   512.80         6.9055
   512.94         6.8747
   513.08         6.8538
   513.22         6.8400
   513.36         6.8299
   513.50         6.8206
   513.64         6.8100
   513.78         6.7966
   513.92         6.7800
   514.06         6.7609
   514.20         6.7414
   514.34         6.7232
   514.48         6.7083
   514.62         6.6983
   514.76         6.6953
   514.90         6.7004
   515.04         6.7137
   515.18         6.7329
   515.32         6.7533
   515.46         6.7687
   515.60         6.7723
   515.74         6.7579
   515.88         6.7219
   516.02         6.6631
   516.16         6.5814
   516.30         6.4785
   516.44         6.3603
   516.58         6.2370
   516.72         6.1213
   516.86         6.0255
   517.00         5.9594
   517.14         5.9280
   517.28         5.9300
   517.42         5.9595
   517.56         6.0090
   517.70         6.0719
   517.84         6.1420
   517.98         6.2131
   518.12         6.2793
   518.26         6.3365
   518.40         6.3838
   518.54         6.4229
   518.68         6.4566
   518.82         6.4875
   518.96         6.5193
   519.10         6.5565
   519.24         6.6019
   519.38         6.6541
   519.52         6.7073
   519.66         6.7540
   519.80         6.7887
   519.94         6.8105
   520.08         6.8230
   520.22         6.8326
   520.36         6.8437
   520.50         6.8570
   520.64         6.8704
   520.78         6.8821
   520.92         6.8924
   521.06         6.9031
   521.20         6.9160
   521.34         6.9310
   521.48         6.9451
   521.62         6.9531
   521.76         6.9505
   521.90         6.9353
   522.04         6.9082
   522.18         6.8717
   522.32         6.8303
   522.46         6.7899
   522.60         6.7567
   522.74         6.7367
   522.88         6.7341
   523.02         6.7510
   523.16         6.7873
   523.30         6.8418
   523.44         6.9122
   523.58         6.9931
   523.72         7.0759
   523.86         7.1500
   524.00         7.2060
   524.14         7.2390
   524.28         7.2483
   524.42         7.2373
   524.56         7.2115
   524.70         7.1771
   524.84         7.1402
   524.98         7.1072
   525.12         7.0821
   525.26         7.0647
   525.40         7.0512
   525.54         7.0356
   525.68         7.0125
   525.82         6.9760
   525.96         6.9210
   526.10         6.8461
   526.24         6.7547
   526.38         6.6534
   526.52         6.5515
   526.66         6.4609
   526.80         6.3938
   526.94         6.3602
   527.08         6.3653
   527.22         6.4096
   527.36         6.4883
   527.50         6.5928
   527.64         6.7126
   527.78         6.8375
   527.92         6.9593
   528.06         7.0726
   528.20         7.1747
   528.34         7.2638
   528.48         7.3382
   528.62         7.3969
   528.76         7.4392
   528.90         7.4643
   529.04         7.4720
   529.18         7.4646
   529.32         7.4471
   529.46         7.4249
   529.60         7.4013
   529.74         7.3790
   529.88         7.3617
   530.02         7.3539
   530.16         7.3594
   530.30         7.3795
   530.44         7.4113
   530.58         7.4498
   530.72         7.4895
   530.86         7.5257
   531.00         7.5540
   531.14         7.5704
   531.28         7.5727
   531.42         7.5612
   531.56         7.5380
   531.70         7.5046
   531.84         7.4614
   531.98         7.4097
   532.12         7.3523
   532.26         7.2927
   532.40         7.2353
   532.54         7.1853
   532.68         7.1474
   532.82         7.1249
   532.96         7.1184
   533.10         7.1268
   533.24         7.1485
   533.38         7.1816
   533.52         7.2231
   533.66         7.2685
   533.80         7.3132
   533.94         7.3528
   534.08         7.3845
   534.22         7.4074
   534.36         7.4236
   534.50         7.4385
   534.64         7.4584
   534.78         7.4873
   534.92         7.5258
   535.06         7.5723
   535.20         7.6241
   535.34         7.6770
   535.48         7.7256
   535.62         7.7651
   535.76         7.7926
   535.90         7.8055
   536.04         7.8015
   536.18         7.7793
   536.32         7.7407
   536.46         7.6909
   536.60         7.6371
   536.74         7.5875
   536.88         7.5482
   537.02         7.5225
   537.16         7.5109
   537.30         7.5122
   537.44         7.5251
   537.58         7.5479
   537.72         7.5780
   537.86         7.6113
   538.00         7.6427
   538.14         7.6671
   538.28         7.6804
   538.42         7.6786
   538.56         7.6590
   538.70         7.6214
   538.84         7.5692
   538.98         7.5074
   539.12         7.4404
   539.26         7.3709
   539.40         7.2998
   539.54         7.2281
   539.68         7.1579
   539.82         7.0928
   539.96         7.0358
   540.10         6.9896
   540.24         6.9562
   540.38         6.9365
   540.52         6.9312
   540.66         6.9405
   540.80         6.9634
   540.94         6.9979
   541.08         7.0412
   541.22         7.0909
   541.36         7.1450
   541.50         7.2012
   541.64         7.2569
   541.78         7.3086
   541.92         7.3526
   542.06         7.3862
   542.20         7.4082
   542.34         7.4183
   542.48         7.4172
   542.62         7.4072
   542.76         7.3929
   542.90         7.3791
   543.04         7.3691
   543.18         7.3654
   543.32         7.3691
   543.46         7.3797
   543.60         7.3950
   543.74         7.4128
   543.88         7.4322
   544.02         7.4532
   544.16         7.4759
   544.30         7.4994
   544.44         7.5206
   544.58         7.5360
   544.72         7.5441
   544.86         7.5465
   545.00         7.5460
   545.14         7.5452
   545.28         7.5451
   545.42         7.5458
   545.56         7.5462
   545.70         7.5453
   545.84         7.5420
   545.98         7.5347
   546.12         7.5219
   546.26         7.5031
   546.40         7.4797
   546.54         7.4531
   546.68         7.4223
   546.82         7.3858
   546.96         7.3429
   547.10         7.2950
   547.24         7.2461
   547.38         7.2017
   547.52         7.1664
   547.66         7.1427
   547.80         7.1315
   547.94         7.1339
   548.08         7.1508
   548.22         7.1815
   548.36         7.2227
   548.50         7.2700
   548.64         7.3192
   548.78         7.3672
   548.92         7.4119
   549.06         7.4509
   549.20         7.4817
   549.34         7.5034
   549.48         7.5173
   549.62         7.5256
   549.76         7.5299
   549.90         7.5321
   550.04         7.5339
   550.18         7.5366
   550.32         7.5401
   550.46         7.5434
   550.60         7.5458
   550.74         7.5463
   550.88         7.5448
   551.02         7.5423
   551.16         7.5409
   551.30         7.5425
   551.44         7.5473
   551.58         7.5547
   551.72         7.5634
   551.86         7.5722
   552.00         7.5803
   552.14         7.5875
   552.28         7.5944
   552.42         7.6018
   552.56         7.6095
   552.70         7.6167
   552.84         7.6221
   552.98         7.6253
   553.12         7.6272
   553.26         7.6296
   553.40         7.6338
   553.54         7.6404
   553.68         7.6494
   553.82         7.6606
   553.96         7.6740
   554.10         7.6893
   554.24         7.7054
   554.38         7.7203
   554.52         7.7324
   554.66         7.7411
   554.80         7.7471
   554.94         7.7506
   555.08         7.7509
   555.22         7.7467
   555.36         7.7375
   555.50         7.7239
   555.64         7.7065
   555.78         7.6857
   555.92         7.6610
   556.06         7.6332
   556.20         7.6036
   556.34         7.5743
   556.48         7.5473
   556.62         7.5237
   556.76         7.5037
   556.90         7.4879
   557.04         7.4773
   557.18         7.4731
   557.32         7.4759
   557.46         7.4846
   557.60         7.4967
   557.74         7.5082
   557.88         7.5146
   558.02         7.5121
   558.16         7.4980
   558.30         7.4714
   558.44         7.4331
   558.58         7.3860
   558.72         7.3344
   558.86         7.2834
   559.00         7.2381
   559.14         7.2021
   559.28         7.1775
   559.42         7.1658
   559.56         7.1676
   559.70         7.1831
   559.84         7.2125
   559.98         7.2548
   560.12         7.3082
   560.26         7.3697
   560.40         7.4352
   560.54         7.5001
   560.68         7.5597
   560.82         7.6100
   560.96         7.6479
   561.10         7.6715
   561.24         7.6802
   561.38         7.6744
   561.52         7.6544
   561.66         7.6206
   561.80         7.5748
   561.94         7.5220
   562.08         7.4699
   562.22         7.4258
   562.36         7.3956
   562.50         7.3820
   562.64         7.3848
   562.78         7.4013
   562.92         7.4274
   563.06         7.4578
   563.20         7.4872
   563.34         7.5108
   563.48         7.5253
   563.62         7.5295
   563.76         7.5238
   563.90         7.5093
   564.04         7.4874
   564.18         7.4600
   564.32         7.4313
   564.46         7.4058
   564.60         7.3865
   564.74         7.3738
   564.88         7.3656
   565.02         7.3592
   565.16         7.3519
   565.30         7.3414
   565.44         7.3258
   565.58         7.3053
   565.72         7.2814
   565.86         7.2562
   566.00         7.2326
   566.14         7.2143
   566.28         7.2055
   566.42         7.2095
   566.56         7.2279
   566.70         7.2612
   566.84         7.3084
   566.98         7.3664
   567.12         7.4302
   567.26         7.4941
   567.40         7.5534
   567.54         7.6038
   567.68         7.6416
   567.82         7.6641
   567.96         7.6699
   568.10         7.6602
   568.24         7.6382
   568.38         7.6075
   568.52         7.5718
   568.66         7.5354
   568.80         7.5029
   568.94         7.4784
   569.08         7.4635
   569.22         7.4570
   569.36         7.4555
   569.50         7.4553
   569.64         7.4535
   569.78         7.4478
   569.92         7.4357
   570.06         7.4150
   570.20         7.3848
   570.34         7.3466
   570.48         7.3048
   570.62         7.2654
   570.76         7.2344
   570.90         7.2166
   571.04         7.2159
   571.18         7.2341
   571.32         7.2709
   571.46         7.3238
   571.60         7.3890
   571.74         7.4618
   571.88         7.5371
   572.02         7.6109
   572.16         7.6791
   572.30         7.7375
   572.44         7.7828
   572.58         7.8136
   572.72         7.8306
   572.86         7.8358
   573.00         7.8324
   573.14         7.8242
   573.28         7.8139
   573.42         7.8031
   573.56         7.7930
   573.70         7.7834
   573.84         7.7735
   573.98         7.7623
   574.12         7.7491
   574.26         7.7331
   574.40         7.7124
   574.54         7.6857
   574.68         7.6536
   574.82         7.6188
   574.96         7.5846
   575.10         7.5536
   575.24         7.5279
   575.38         7.5095
   575.52         7.5004
   575.66         7.5020
   575.80         7.5150
   575.94         7.5386
   576.08         7.5719
   576.22         7.6125
   576.36         7.6571
   576.50         7.7023
   576.64         7.7453
   576.78         7.7836
   576.92         7.8148
   577.06         7.8360
   577.20         7.8447
   577.34         7.8385
   577.48         7.8155
   577.62         7.7745
   577.76         7.7171
   577.90         7.6484
   578.04         7.5750
   578.18         7.5037
   578.32         7.4405
   578.46         7.3909
   578.60         7.3579
   578.74         7.3427
   578.88         7.3446
   579.02         7.3628
   579.16         7.3949
   579.30         7.4370
   579.44         7.4832
   579.58         7.5263
   579.72         7.5608
   579.86         7.5840
   580.00         7.5964
   580.14         7.6004
   580.28         7.5993
   580.42         7.5959
   580.56         7.5930
   580.70         7.5929
   580.84         7.5973
   580.98         7.6079
   581.12         7.6255
   581.26         7.6503
   581.40         7.6815
   581.54         7.7168
   581.68         7.7527
   581.82         7.7857
   581.96         7.8136
   582.10         7.8350
   582.24         7.8494
   582.38         7.8569
   582.52         7.8586
   582.66         7.8559
   582.80         7.8502
   582.94         7.8436
   583.08         7.8382
   583.22         7.8361
   583.36         7.8388
   583.50         7.8458
   583.64         7.8550
   583.78         7.8634
   583.92         7.8683
   584.06         7.8680
   584.20         7.8614
   584.34         7.8486
   584.48         7.8301
   584.62         7.8064
   584.76         7.7779
   584.90         7.7454
   585.04         7.7104
   585.18         7.6752
   585.32         7.6430
   585.46         7.6163
   585.60         7.5969
   585.74         7.5851
   585.88         7.5810
   586.02         7.5849
   586.16         7.5967
   586.30         7.6155
   586.44         7.6406
   586.58         7.6715
   586.72         7.7071
   586.86         7.7443
   587.00         7.7793
   587.14         7.8083
   587.28         7.8285
   587.42         7.8380
   587.56         7.8362
   587.70         7.8213
   587.84         7.7892
   587.98         7.7344
   588.12         7.6548
   588.26         7.5523
   588.40         7.4307
   588.54         7.2945
   588.68         7.1505
   588.82         7.0086
   588.96         6.8806
   589.10         6.7784
   589.24         6.7113
   589.38         6.6845
   589.52         6.6998
   589.66         6.7566
   589.80         6.8507
   589.94         6.9744
   590.08         7.1169
   590.22         7.2652
   590.36         7.4054
   590.50         7.5250
   590.64         7.6181
   590.78         7.6843
   590.92         7.7256
   591.06         7.7447
   591.20         7.7474
   591.34         7.7419
   591.48         7.7358
   591.62         7.7338
   591.76         7.7385
   591.90         7.7505
   592.04         7.7681
   592.18         7.7898
   592.32         7.8135
   592.46         7.8362
   592.60         7.8548
   592.74         7.8673
   592.88         7.8720
   593.02         7.8680
   593.16         7.8561
   593.30         7.8388
   593.44         7.8188
   593.58         7.7980
   593.72         7.7768
   593.86         7.7557
   594.00         7.7356
   594.14         7.7169
   594.28         7.6995
   594.42         7.6836
   594.56         7.6687
   594.70         7.6549
   594.84         7.6431
   594.98         7.6343
   595.12         7.6285
   595.26         7.6258
   595.40         7.6251
   595.54         7.6251
   595.68         7.6251
   595.82         7.6252
   595.96         7.6261
   596.10         7.6286
   596.24         7.6329
   596.38         7.6385
   596.52         7.6448
   596.66         7.6512
   596.80         7.6567
   596.94         7.6613
   597.08         7.6654
   597.22         7.6695
   597.36         7.6733
   597.50         7.6769
   597.64         7.6801
   597.78         7.6826
   597.92         7.6838
   598.06         7.6832
   598.20         7.6808
   598.34         7.6774
   598.48         7.6743
   598.62         7.6720
   598.76         7.6693
   598.90         7.6642
   599.04         7.6558
   599.18         7.6443
   599.32         7.6315
   599.46         7.6191
   599.60         7.6068
   599.74         7.5935
   599.88         7.5789
   600.02         7.5641
   600.16         7.5498
   600.30         7.5358
   600.44         7.5218
   600.58         7.5077
   600.72         7.4936
   600.86         7.4796
   601.00         7.4658
   601.14         7.4517
   601.28         7.4364
   601.42         7.4197
   601.56         7.4029
   601.70         7.3880
   601.84         7.3774
   601.98         7.3737
   602.12         7.3788
   602.26         7.3934
   602.40         7.4180
   602.54         7.4528
   602.68         7.4967
   602.82         7.5471
   602.96         7.6007
   603.10         7.6534
   603.24         7.7008
   603.38         7.7391
   603.52         7.7660
   603.66         7.7809
   603.80         7.7849
   603.94         7.7801
   604.08         7.7691
   604.22         7.7535
   604.36         7.7350
   604.50         7.7157
   604.64         7.6980
   604.78         7.6835
   604.92         7.6728
   605.06         7.6662
   605.20         7.6634
   605.34         7.6637
   605.48         7.6655
   605.62         7.6671
   605.76         7.6679
   605.90         7.6689
   606.04         7.6720
   606.18         7.6780
   606.32         7.6865
   606.46         7.6961
   606.60         7.7052
   606.74         7.7118
   606.88         7.7144
   607.02         7.7118
   607.16         7.7037
   607.30         7.6900
   607.44         7.6711
   607.58         7.6470
   607.72         7.6176
   607.86         7.5834
   608.00         7.5463
   608.14         7.5093
   608.28         7.4759
   608.42         7.4482
   608.56         7.4275
   608.70         7.4143
   608.84         7.4084
   608.98         7.4083
   609.12         7.4111
   609.26         7.4140
   609.40         7.4154
   609.54         7.4146
   609.68         7.4119
   609.82         7.4083
   609.96         7.4054
   610.10         7.4044
   610.24         7.4061
   610.38         7.4110
   610.52         7.4192
   610.66         7.4306
   610.80         7.4444
   610.94         7.4584
   611.08         7.4692
   611.22         7.4744
   611.36         7.4731
   611.50         7.4654
   611.64         7.4516
   611.78         7.4327
   611.92         7.4106
   612.06         7.3878
   612.20         7.3663
   612.34         7.3469
   612.48         7.3283
   612.62         7.3077
   612.76         7.2828
   612.90         7.2532
   613.04         7.2199
   613.18         7.1848
   613.32         7.1513
   613.46         7.1229
   613.60         7.1030
   613.74         7.0941
   613.88         7.0981
   614.02         7.1158
   614.16         7.1458
   614.30         7.1852
   614.44         7.2302
   614.58         7.2766
   614.72         7.3205
   614.86         7.3575
   615.00         7.3819
   615.14         7.3890
   615.28         7.3773
   615.42         7.3489
   615.56         7.3081
   615.70         7.2596
   615.84         7.2073
   615.98         7.1542
   616.12         7.1034
   616.26         7.0582
   616.40         7.0211
   616.54         6.9941
   616.68         6.9790
   616.82         6.9766
   616.96         6.9860
   617.10         7.0055
   617.24         7.0331
   617.38         7.0663
   617.52         7.1016
   617.66         7.1355
   617.80         7.1652
   617.94         7.1895
   618.08         7.2075
   618.22         7.2181
   618.36         7.2211
   618.50         7.2170
   618.64         7.2088
   618.78         7.2009
   618.92         7.1970
   619.06         7.1995
   619.20         7.2104
   619.34         7.2314
   619.48         7.2628
   619.62         7.3033
   619.76         7.3512
   619.90         7.4035
   620.04         7.4557
   620.18         7.5033
   620.32         7.5414
   620.46         7.5662
   620.60         7.5757
   620.74         7.5700
   620.88         7.5513
   621.02         7.5223
   621.16         7.4862
   621.30         7.4468
   621.44         7.4080
   621.58         7.3733
   621.72         7.3459
   621.86         7.3276
   622.00         7.3172
   622.14         7.3119
   622.28         7.3097
   622.42         7.3083
   622.56         7.3059
   622.70         7.3007
   622.84         7.2914
   622.98         7.2771
   623.12         7.2583
   623.26         7.2357
   623.40         7.2105
   623.54         7.1839
   623.68         7.1574
   623.82         7.1331
   623.96         7.1128
   624.10         7.0966
   624.24         7.0827
   624.38         7.0688
   624.52         7.0520
   624.66         7.0306
   624.80         7.0062
   624.94         6.9817
   625.08         6.9588
   625.22         6.9376
   625.36         6.9173
   625.50         6.8982
   625.64         6.8819
   625.78         6.8705
   625.92         6.8659
   626.06         6.8695
   626.20         6.8817
   626.34         6.9018
   626.48         6.9284
   626.62         6.9586
   626.76         6.9885
   626.90         7.0149
   627.04         7.0352
   627.18         7.0474
   627.32         7.0508
   627.46         7.0470
   627.60         7.0387
   627.74         7.0292
   627.88         7.0223
   628.02         7.0216
   628.16         7.0298
   628.30         7.0477
   628.44         7.0746
   628.58         7.1083
   628.72         7.1463
   628.86         7.1854
   629.00         7.2220
   629.14         7.2524
   629.28         7.2735
   629.42         7.2848
   629.56         7.2872
   629.70         7.2830
   629.84         7.2752
   629.98         7.2673
   630.12         7.2618
   630.26         7.2595
   630.40         7.2589
   630.54         7.2573
   630.68         7.2519
   630.82         7.2415
   630.96         7.2259
   631.10         7.2058
   631.24         7.1829
   631.38         7.1599
   631.52         7.1408
   631.66         7.1288
   631.80         7.1265
   631.94         7.1353
   632.08         7.1559
   632.22         7.1869
   632.36         7.2250
   632.50         7.2650
   632.64         7.3015
   632.78         7.3296
   632.92         7.3463
   633.06         7.3499
   633.20         7.3407
   633.34         7.3203
   633.48         7.2918
   633.62         7.2593
   633.76         7.2270
   633.90         7.1982
   634.04         7.1760
   634.18         7.1621
   634.32         7.1560
   634.46         7.1560
   634.60         7.1601
   634.74         7.1664
   634.88         7.1721
   635.02         7.1742
   635.16         7.1700
   635.30         7.1583
   635.44         7.1393
   635.58         7.1145
   635.72         7.0867
   635.86         7.0592
   636.00         7.0359
   636.14         7.0206
   636.28         7.0164
   636.42         7.0250
   636.56         7.0467
   636.70         7.0802
   636.84         7.1224
   636.98         7.1680
   637.12         7.2117
   637.26         7.2500
   637.40         7.2803
   637.54         7.3006
   637.68         7.3103
   637.82         7.3103
   637.96         7.3035
   638.10         7.2927
   638.24         7.2804
   638.38         7.2683
   638.52         7.2582
   638.66         7.2519
   638.80         7.2508
   638.94         7.2542
   639.08         7.2599
   639.22         7.2657
   639.36         7.2704
   639.50         7.2728
   639.64         7.2724
   639.78         7.2688
   639.92         7.2624
   640.06         7.2540
   640.20         7.2440
   640.34         7.2330
   640.48         7.2213
   640.62         7.2090
   640.76         7.1959
   640.90         7.1823
   641.04         7.1689
   641.18         7.1571
   641.32         7.1474
   641.46         7.1404
   641.60         7.1367
   641.74         7.1379
   641.88         7.1450
   642.02         7.1571
   642.16         7.1720
   642.30         7.1881
   642.44         7.2045
   642.58         7.2210
   642.72         7.2362
   642.86         7.2487
   643.00         7.2576
   643.14         7.2633
   643.28         7.2670
   643.42         7.2702
   643.56         7.2739
   643.70         7.2783
   643.84         7.2828
   643.98         7.2861
   644.12         7.2869
   644.26         7.2841
   644.40         7.2765
   644.54         7.2630
   644.68         7.2436
   644.82         7.2208
   644.96         7.1979
   645.10         7.1772
   645.24         7.1595
   645.38         7.1464
   645.52         7.1406
   645.66         7.1451
   645.80         7.1607
   645.94         7.1857
   646.08         7.2170
   646.22         7.2504
   646.36         7.2819
   646.50         7.3088
   646.64         7.3304
   646.78         7.3471
   646.92         7.3590
   647.06         7.3650
   647.20         7.3646
   647.34         7.3591
   647.48         7.3508
   647.62         7.3417
   647.76         7.3334
   647.90         7.3271
   648.04         7.3232
   648.18         7.3200
   648.32         7.3137
   648.46         7.2996
   648.60         7.2750
   648.74         7.2395
   648.88         7.1946
   649.02         7.1439
   649.16         7.0925
   649.30         7.0462
   649.44         7.0106
   649.58         6.9901
   649.72         6.9881
   649.86         7.0063
   650.00         7.0450
   650.14         7.1021
   650.28         7.1728
   650.42         7.2496
   650.56         7.3246
   650.70         7.3901
   650.84         7.4408
   650.98         7.4747
   651.12         7.4925
   651.26         7.4974
   651.40         7.4938
   651.54         7.4859
   651.68         7.4773
   651.82         7.4705
   651.96         7.4667
   652.10         7.4656
   652.24         7.4663
   652.38         7.4679
   652.52         7.4700
   652.66         7.4729
   652.80         7.4768
   652.94         7.4816
   653.08         7.4868
   653.22         7.4923
   653.36         7.4981
   653.50         7.5041
   653.64         7.5098
   653.78         7.5144
   653.92         7.5168
   654.06         7.5159
   654.20         7.5105
   654.34         7.4994
   654.48         7.4821
   654.62         7.4584
   654.76         7.4291
   654.90         7.3938
   655.04         7.3503
   655.18         7.2946
   655.32         7.2245
   655.46         7.1415
   655.60         7.0500
   655.74         6.9561
   655.88         6.8667
   656.02         6.7889
   656.16         6.7286
   656.30         6.6903
   656.44         6.6762
   656.58         6.6872
   656.72         6.7220
   656.86         6.7777
   657.00         6.8496
   657.14         6.9321
   657.28         7.0195
   657.42         7.1054
   657.56         7.1845
   657.70         7.2534
   657.84         7.3124
   657.98         7.3635
   658.12         7.4076
   658.26         7.4427
   658.40         7.4662
   658.54         7.4767
   658.68         7.4740
   658.82         7.4598
   658.96         7.4375
   659.10         7.4123
   659.24         7.3897
   659.38         7.3732
   659.52         7.3641
   659.66         7.3621
   659.80         7.3662
   659.94         7.3751
   660.08         7.3873
   660.22         7.4010
   660.36         7.4136
   660.50         7.4225
   660.64         7.4252
   660.78         7.4216
   660.92         7.4141
   661.06         7.4063
   661.20         7.4013
   661.34         7.4004
   661.48         7.4037
   661.62         7.4103
   661.76         7.4193
   661.90         7.4285
   662.04         7.4350
   662.18         7.4360
   662.32         7.4300
   662.46         7.4170
   662.60         7.3977
   662.74         7.3731
   662.88         7.3447
   663.02         7.3142
   663.16         7.2838
   663.30         7.2556
   663.44         7.2309
   663.58         7.2111
   663.72         7.1969
   663.86         7.1888
   664.00         7.1870
   664.14         7.1916
   664.28         7.2024
   664.42         7.2186
   664.56         7.2388
   664.70         7.2613
   664.84         7.2850
   664.98         7.3089
   665.12         7.3312
   665.26         7.3490
   665.40         7.3594
   665.54         7.3604
   665.68         7.3507
   665.82         7.3311
   665.96         7.3040
   666.10         7.2732
   666.24         7.2429
   666.38         7.2167
   666.52         7.1963
   666.66         7.1820
   666.80         7.1735
   666.94         7.1701
   667.08         7.1714
   667.22         7.1766
   667.36         7.1851
   667.50         7.1963
   667.64         7.2090
   667.78         7.2217
   667.92         7.2336
   668.06         7.2449
   668.20         7.2559
   668.34         7.2669
   668.48         7.2773
   668.62         7.2856
   668.76         7.2898
   668.90         7.2890
   669.04         7.2826
   669.18         7.2703
   669.32         7.2528
   669.46         7.2316
   669.60         7.2089
   669.74         7.1868
   669.88         7.1669
   670.02         7.1501
   670.16         7.1356
   670.30         7.1219
   670.44         7.1076
   670.58         7.0919
   670.72         7.0751
   670.86         7.0582
   671.00         7.0427
   671.14         7.0305
   671.28         7.0237
   671.42         7.0239
   671.56         7.0320
   671.70         7.0474
   671.84         7.0683
   671.98         7.0931
   672.12         7.1201
   672.26         7.1482
   672.40         7.1760
   672.54         7.2016
   672.68         7.2233
   672.82         7.2398
   672.96         7.2498
   673.10         7.2528
   673.24         7.2496
   673.38         7.2416
   673.52         7.2307
   673.66         7.2178
   673.80         7.2030
   673.94         7.1865
   674.08         7.1691
   674.22         7.1520
   674.36         7.1360
   674.50         7.1218
   674.64         7.1104
   674.78         7.1027
   674.92         7.0990
   675.06         7.0989
   675.20         7.1022
   675.34         7.1089
   675.48         7.1186
   675.62         7.1303
   675.76         7.1430
   675.90         7.1556
   676.04         7.1670
   676.18         7.1760
   676.32         7.1814
   676.46         7.1829
   676.60         7.1811
   676.74         7.1768
   676.88         7.1703
   677.02         7.1620
   677.16         7.1525
   677.30         7.1419
   677.44         7.1301
   677.58         7.1169
   677.72         7.1031
   677.86         7.0899
   678.00         7.0785
   678.14         7.0692
   678.28         7.0621
   678.42         7.0568
   678.56         7.0540
   678.70         7.0540
   678.84         7.0566
   678.98         7.0610
   679.12         7.0667
   679.26         7.0731
   679.40         7.0797
   679.54         7.0859
   679.68         7.0909
   679.82         7.0945
   679.96         7.0966
   680.10         7.0981
   680.24         7.1005
   680.38         7.1050
   680.52         7.1116
   680.66         7.1194
   680.80         7.1270
   680.94         7.1328
   681.08         7.1365
   681.22         7.1384
   681.36         7.1395
   681.50         7.1410
   681.64         7.1441
   681.78         7.1491
   681.92         7.1561
   682.06         7.1643
   682.20         7.1729
   682.34         7.1805
   682.48         7.1857
   682.62         7.1867
   682.76         7.1823
   682.90         7.1708
   683.04         7.1508
   683.18         7.1221
   683.32         7.0863
   683.46         7.0462
   683.60         7.0046
   683.74         6.9653
   683.88         6.9317
   684.02         6.9064
   684.16         6.8904
   684.30         6.8833
   684.44         6.8837
   684.58         6.8899
   684.72         6.8997
   684.86         6.9106
   685.00         6.9201
   685.14         6.9253
   685.28         6.9241
   685.42         6.9147
   685.56         6.8948
   685.70         6.8614
   685.84         6.8116
   685.98         6.7435
   686.12         6.6564
   686.26         6.5509
   686.40         6.4297
   686.54         6.2976
   686.68         6.1619
   686.82         6.0312
   686.96         5.9152
   687.10         5.8224
   687.24         5.7598
   687.38         5.7310
   687.52         5.7368
   687.66         5.7735
   687.80         5.8348
   687.94         5.9129
   688.08         5.9989
   688.22         6.0838
   688.36         6.1601
   688.50         6.2236
   688.64         6.2736
   688.78         6.3114
   688.92         6.3394
   689.06         6.3605
   689.20         6.3781
   689.34         6.3947
   689.48         6.4116
   689.62         6.4300
   689.76         6.4496
   689.90         6.4698
   690.04         6.4902
   690.18         6.5095
   690.32         6.5265
   690.46         6.5409
   690.60         6.5529
   690.74         6.5630
   690.88         6.5719
   691.02         6.5810
   691.16         6.5918
   691.30         6.6050
   691.44         6.6200
   691.58         6.6351
   691.72         6.6488
   691.86         6.6605
   692.00         6.6701
   692.14         6.6784
   692.28         6.6857
   692.42         6.6914
   692.56         6.6953
   692.70         6.6977
   692.84         6.6998
   692.98         6.7033
   693.12         6.7102
   693.26         6.7217
   693.40         6.7376
   693.54         6.7569
   693.68         6.7785
   693.82         6.8001
   693.96         6.8193
   694.10         6.8342
   694.24         6.8440
   694.38         6.8488
   694.52         6.8495
   694.66         6.8478
   694.80         6.8455
   694.94         6.8440
   695.08         6.8448
   695.22         6.8493
   695.36         6.8585
   695.50         6.8724
   695.64         6.8905
   695.78         6.9115
   695.92         6.9342
   696.06         6.9569
   696.20         6.9789
   696.34         6.9994
   696.48         7.0163
   696.62         7.0270
   696.76         7.0291
   696.90         7.0210
   697.04         7.0029
   697.18         6.9764
   697.32         6.9441
   697.46         6.9089
   697.60         6.8739
   697.74         6.8418
   697.88         6.8152
   698.02         6.7965
   698.16         6.7875
   698.30         6.7893
   698.44         6.8016
   698.58         6.8233
   698.72         6.8522
   698.86         6.8847
   699.00         6.9163
   699.14         6.9426
   699.28         6.9598
   699.42         6.9659
   699.56         6.9606
   699.70         6.9454
   699.84         6.9228
   699.98         6.8948
   700.12         6.8639
   700.26         6.8329
   700.40         6.8044
   700.54         6.7800
   700.68         6.7609
   700.82         6.7473
   700.96         6.7389
   701.10         6.7348
   701.24         6.7336
   701.38         6.7330
   701.52         6.7309
   701.66         6.7267
   701.80         6.7207
   701.94         6.7137
   702.08         6.7066
   702.22         6.7009
   702.36         6.6980
   702.50         6.6990
   702.64         6.7044
   702.78         6.7137
   702.92         6.7260
   703.06         6.7402
   703.20         6.7558
   703.34         6.7732
   703.48         6.7921
   703.62         6.8123
   703.76         6.8328
   703.90         6.8530
   704.04         6.8721
   704.18         6.8890
   704.32         6.9020
   704.46         6.9098
   704.60         6.9116
   704.74         6.9069
   704.88         6.8957
   705.02         6.8787
   705.16         6.8568
   705.30         6.8317
   705.44         6.8055
   705.58         6.7807
   705.72         6.7589
   705.86         6.7405
   706.00         6.7254
   706.14         6.7137
   706.28         6.7065
   706.42         6.7049
   706.56         6.7084
   706.70         6.7159
   706.84         6.7268
   706.98         6.7412
   707.12         6.7599
   707.26         6.7824
   707.40         6.8060
   707.54         6.8285
   707.68         6.8477
   707.82         6.8622
   707.96         6.8708
   708.10         6.8722
   708.24         6.8651
   708.38         6.8494
   708.52         6.8273
   708.66         6.8024
   708.80         6.7789
   708.94         6.7600
   709.08         6.7478
   709.22         6.7435
   709.36         6.7479
   709.50         6.7602
   709.64         6.7777
   709.78         6.7959
   709.92         6.8100
   710.06         6.8173
   710.20         6.8171
   710.34         6.8105
   710.48         6.7994
   710.62         6.7857
   710.76         6.7721
   710.90         6.7612
   711.04         6.7552
   711.18         6.7552
   711.32         6.7613
   711.46         6.7722
   711.60         6.7857
   711.74         6.7996
   711.88         6.8116
   712.02         6.8189
   712.16         6.8199
   712.30         6.8154
   712.44         6.8085
   712.58         6.8026
   712.72         6.7996
   712.86         6.7999
   713.00         6.8030
   713.14         6.8074
   713.28         6.8116
   713.42         6.8142
   713.56         6.8130
   713.70         6.8061
   713.84         6.7933
   713.98         6.7757
   714.12         6.7555
   714.26         6.7355
   714.40         6.7180
   714.54         6.7057
   714.68         6.7015
   714.82         6.7079
   714.96         6.7245
   715.10         6.7477
   715.24         6.7712
   715.38         6.7893
   715.52         6.7981
   715.66         6.7966
   715.80         6.7850
   715.94         6.7641
   716.08         6.7358
   716.22         6.7027
   716.36         6.6684
   716.50         6.6363
   716.64         6.6092
   716.78         6.5887
   716.92         6.5739
   717.06         6.5628
   717.20         6.5522
   717.34         6.5385
   717.48         6.5174
   717.62         6.4858
   717.76         6.4439
   717.90         6.3940
   718.04         6.3397
   718.18         6.2857
   718.32         6.2367
   718.46         6.1963
   718.60         6.1677
   718.74         6.1529
   718.88         6.1520
   719.02         6.1638
   719.16         6.1859
   719.30         6.2156
   719.44         6.2490
   719.58         6.2823
   719.72         6.3132
   719.86         6.3416
   720.00         6.3688
   720.14         6.3963
   720.28         6.4254
   720.42         6.4567
   720.56         6.4905
   720.70         6.5274
   720.84         6.5675
   720.98         6.6098
   721.12         6.6525
   721.26         6.6927
   721.40         6.7277
   721.54         6.7559
   721.68         6.7762
   721.82         6.7887
   721.96         6.7939
   722.10         6.7923
   722.24         6.7849
   722.38         6.7741
   722.52         6.7623
   722.66         6.7513
   722.80         6.7405
   722.94         6.7289
   723.08         6.7165
   723.22         6.7034
   723.36         6.6883
   723.50         6.6697
   723.64         6.6475
   723.78         6.6227
   723.92         6.5967
   724.06         6.5706
   724.20         6.5455
   724.34         6.5228
   724.48         6.5040
   724.62         6.4900
   724.76         6.4810
   724.90         6.4769
   725.04         6.4769
   725.18         6.4788
   725.32         6.4805
   725.46         6.4809
   725.60         6.4810
   725.74         6.4825
   725.88         6.4862
   726.02         6.4920
   726.16         6.5002
   726.30         6.5108
   726.44         6.5232
   726.58         6.5367
   726.72         6.5504
   726.86         6.5632
   727.00         6.5731
   727.14         6.5781
   727.28         6.5764
   727.42         6.5668
   727.56         6.5491
   727.70         6.5239
   727.84         6.4921
   727.98         6.4540
   728.12         6.4104
   728.26         6.3619
   728.40         6.3105
   728.54         6.2590
   728.68         6.2111
   728.82         6.1701
   728.96         6.1382
   729.10         6.1167
   729.24         6.1056
   729.38         6.1049
   729.52         6.1139
   729.66         6.1313
   729.80         6.1558
   729.94         6.1854
   730.08         6.2177
   730.22         6.2508
   730.36         6.2828
   730.50         6.3124
   730.64         6.3398
   730.78         6.3662
   730.92         6.3927
   731.06         6.4194
   731.20         6.4459
   731.34         6.4710
   731.48         6.4929
   731.62         6.5101
   731.76         6.5225
   731.90         6.5310
   732.04         6.5371
   732.18         6.5414
   732.32         6.5442
   732.46         6.5464
   732.60         6.5489
   732.74         6.5529
   732.88         6.5598
   733.02         6.5699
   733.16         6.5827
   733.30         6.5966
   733.44         6.6097
   733.58         6.6203
   733.72         6.6274
   733.86         6.6306
   734.00         6.6289
   734.14         6.6218
   734.28         6.6093
   734.42         6.5921
   734.56         6.5703
   734.70         6.5443
   734.84         6.5154
   734.98         6.4857
   735.12         6.4579
   735.26         6.4345
   735.40         6.4173
   735.54         6.4069
   735.68         6.4029
   735.82         6.4050
   735.96         6.4129
   736.10         6.4267
   736.24         6.4466
   736.38         6.4719
   736.52         6.5023
   736.66         6.5362
   736.80         6.5713
   736.94         6.6048
   737.08         6.6345
   737.22         6.6584
   737.36         6.6741
   737.50         6.6793
   737.64         6.6712
   737.78         6.6476
   737.92         6.6075
   738.06         6.5518
   738.20         6.4836
   738.34         6.4073
   738.48         6.3280
   738.62         6.2508
   738.76         6.1806
   738.90         6.1222
   739.04         6.0791
   739.18         6.0531
   739.32         6.0434
   739.46         6.0485
   739.60         6.0664
   739.74         6.0947
   739.88         6.1296
   740.02         6.1670
   740.16         6.2029
   740.30         6.2341
   740.44         6.2584
   740.58         6.2747
   740.72         6.2826
   740.86         6.2826
   741.00         6.2755
   741.14         6.2633
   741.28         6.2483
   741.42         6.2325
   741.56         6.2180
   741.70         6.2061
   741.84         6.1977
   741.98         6.1931
   742.12         6.1927
   742.26         6.1963
   742.40         6.2028
   742.54         6.2102
   742.68         6.2164
   742.82         6.2198
   742.96         6.2198
   743.10         6.2164
   743.24         6.2102
   743.38         6.2028
   743.52         6.1963
   743.66         6.1927
   743.80         6.1931
   743.94         6.1977
   744.08         6.2061
   744.22         6.2180
