# File HD25361
# Wavelength [nm]    Normalized Amplitude
   349.70         40.7917
   349.84         40.8316
   349.98         40.9800
   350.12         41.2068
   350.26         41.4946
   350.40         41.8274
   350.54         42.1795
   350.68         42.5114
   350.82         42.7840
   350.96         42.9651
   351.10         43.0290
   351.24         42.9651
   351.38         42.7840
   351.52         42.5114
   351.66         42.1795
   351.80         41.8274
   351.94         41.4946
   352.08         41.2068
   352.22         40.9800
   352.36         40.8316
   352.50         40.7917
   352.64         40.9107
   352.78         41.2346
   352.92         41.7758
   353.06         42.5173
   353.20         43.4190
   353.34         44.4182
   353.48         45.4333
   353.62         46.3761
   353.76         47.1811
   353.90         47.8206
   354.04         48.2922
   354.18         48.6004
   354.32         48.7488
   354.46         48.7425
   354.60         48.5906
   354.74         48.3170
   354.88         47.9672
   355.02         47.5933
   355.16         47.2337
   355.30         46.9043
   355.44         46.5950
   355.58         46.2813
   355.72         45.9500
   355.86         45.6071
   356.00         45.2677
   356.14         44.9501
   356.28         44.6755
   356.42         44.4667
   356.56         44.3359
   356.70         44.2716
   356.84         44.2358
   356.98         44.1746
   357.12         44.0295
   357.26         43.7460
   357.40         43.2853
   357.54         42.6275
   357.68         41.7774
   357.82         40.7761
   357.96         39.7110
   358.10         38.7111
   358.24         37.9222
   358.38         37.4729
   358.52         37.4405
   358.66         37.8388
   358.80         38.6325
   358.94         39.7581
   359.08         41.1317
   359.22         42.6356
   359.36         44.1171
   359.50         45.4242
   359.64         46.4374
   359.78         47.0759
   359.92         47.3040
   360.06         47.1381
   360.20         46.6491
   360.34         45.9462
   360.48         45.1426
   360.62         44.3353
   360.76         43.6042
   360.90         43.0104
   361.04         42.6021
   361.18         42.4234
   361.32         42.5151
   361.46         42.8965
   361.60         43.5466
   361.74         44.3953
   361.88         45.3297
   362.02         46.2274
   362.16         46.9855
   362.30         47.5240
   362.44         47.8027
   362.58         47.8406
   362.72         47.7027
   362.86         47.4708
   363.00         47.2138
   363.14         46.9858
   363.28         46.8384
   363.42         46.8182
   363.56         46.9478
   363.70         47.2107
   363.84         47.5678
   363.98         47.9840
   364.12         48.4239
   364.26         48.8481
   364.40         49.2356
   364.54         49.6026
   364.68         49.9969
   364.82         50.4731
   364.96         51.0675
   365.10         51.7910
   365.24         52.6278
   365.38         53.5286
   365.52         54.4159
   365.66         55.2135
   365.80         55.8768
   365.94         56.3920
   366.08         56.7685
   366.22         57.0310
   366.36         57.2130
   366.50         57.3558
   366.64         57.4882
   366.78         57.6110
   366.92         57.7140
   367.06         57.7878
   367.20         57.8174
   367.34         57.7710
   367.48         57.6192
   367.62         57.3585
   367.76         57.0234
   367.90         56.6859
   368.04         56.4277
   368.18         56.3163
   368.32         56.4065
   368.46         56.7355
   368.60         57.3216
   368.74         58.1692
   368.88         59.2450
   369.02         60.4649
   369.16         61.7105
   369.30         62.8540
   369.44         63.7726
   369.58         64.3638
   369.72         64.5655
   369.86         64.3748
   370.00         63.8598
   370.14         63.1560
   370.28         62.4342
   370.42         61.8628
   370.56         61.5744
   370.70         61.6277
   370.84         62.0036
   370.98         62.6368
   371.12         63.4372
   371.26         64.3039
   371.40         65.1243
   371.54         65.7754
   371.68         66.1559
   371.82         66.2118
   371.96         65.9324
   372.10         65.3337
   372.24         64.4494
   372.38         63.3460
   372.52         62.1290
   372.66         60.9287
   372.80         59.8785
   372.94         59.0925
   373.08         58.6385
   373.22         58.5174
   373.36         58.6644
   373.50         58.9765
   373.64         59.3436
   373.78         59.6732
   373.92         59.9191
   374.06         60.0901
   374.20         60.2382
   374.34         60.4238
   374.48         60.6708
   374.62         60.9542
   374.76         61.2365
   374.90         61.5127
   375.04         61.8214
   375.18         62.2106
   375.32         62.6957
   375.46         63.2410
   375.60         63.7667
   375.74         64.1828
   375.88         64.4285
   376.02         64.5007
   376.16         64.4526
   376.30         64.3805
   376.44         64.4168
   376.58         64.7027
   376.72         65.3359
   376.86         66.3327
   377.00         67.6329
   377.14         69.1411
   377.28         70.7652
   377.42         72.4187
   377.56         73.9998
   377.70         75.3888
   377.84         76.4722
   377.98         77.1555
   378.12         77.3680
   378.26         77.0748
   378.40         76.2818
   378.54         75.0372
   378.68         73.4391
   378.82         71.6345
   378.96         69.8178
   379.10         68.2268
   379.24         67.0886
   379.38         66.5480
   379.52         66.6543
   379.66         67.3911
   379.80         68.6927
   379.94         70.4269
   380.08         72.3978
   380.22         74.3952
   380.36         76.2492
   380.50         77.8447
   380.64         79.0965
   380.78         79.9307
   380.92         80.3024
   381.06         80.2142
   381.20         79.7089
   381.34         78.8469
   381.48         77.6940
   381.62         76.3204
   381.76         74.7887
   381.90         73.1274
   382.04         71.3326
   382.18         69.4089
   382.32         67.3864
   382.46         65.3053
   382.60         63.2072
   382.74         61.1539
   382.88         59.2530
   383.02         57.6472
   383.16         56.4660
   383.30         55.7857
   383.44         55.6282
   383.58         55.9748
   383.72         56.7707
   383.86         57.9358
   384.00         59.3903
   384.14         61.0682
   384.28         62.8923
   384.42         64.7467
   384.56         66.4918
   384.70         67.9985
   384.84         69.1861
   384.98         70.0486
   385.12         70.6425
   385.26         71.0519
   385.40         71.3634
   385.54         71.6437
   385.68         71.9160
   385.82         72.1565
   385.96         72.3180
   386.10         72.3643
   386.24         72.2927
   386.38         72.1276
   386.52         71.8957
   386.66         71.6095
   386.80         71.2637
   386.94         70.8406
   387.08         70.3321
   387.22         69.7544
   387.36         69.1423
   387.50         68.5420
   387.64         67.9964
   387.78         67.5254
   387.92         67.1353
   388.06         66.8407
   388.20         66.6702
   388.34         66.6674
   388.48         66.8871
   388.62         67.3837
   388.76         68.1985
   388.90         69.3426
   389.04         70.7778
   389.18         72.4244
   389.32         74.1839
   389.46         75.9475
   389.60         77.6149
   389.74         79.1182
   389.88         80.4156
   390.02         81.4724
   390.16         82.2602
   390.30         82.7680
   390.44         82.9990
   390.58         82.9590
   390.72         82.6503
   390.86         82.0715
   391.00         81.2247
   391.14         80.1180
   391.28         78.7618
   391.42         77.1585
   391.56         75.2904
   391.70         73.1159
   391.84         70.5816
   391.98         67.6451
   392.12         64.3019
   392.26         60.6059
   392.40         56.6601
   392.54         52.6008
   392.68         48.6040
   392.82         44.8896
   392.96         41.6984
   393.10         39.2557
   393.24         37.7488
   393.38         37.3074
   393.52         37.9756
   393.66         39.6980
   393.80         42.3293
   393.94         45.6589
   394.08         49.4441
   394.22         53.4352
   394.36         57.3954
   394.50         61.1204
   394.64         64.4550
   394.78         67.2912
   394.92         69.5466
   395.06         71.1434
   395.20         72.0011
   395.34         72.0383
   395.48         71.1853
   395.62         69.4087
   395.76         66.7434
   395.90         63.3157
   396.04         59.3501
   396.18         55.1574
   396.32         51.1140
   396.46         47.6286
   396.60         45.0909
   396.74         43.8100
   396.88         43.9686
   397.02         45.6132
   397.16         48.6634
   397.30         52.9242
   397.44         58.0993
   397.58         63.8181
   397.72         69.6846
   397.86         75.3440
   398.00         80.5251
   398.14         85.0429
   398.28         88.7946
   398.42         91.7590
   398.56         93.9990
   398.70         95.6501
   398.84         96.8858
   398.98         97.8772
   399.12         98.7536
   399.26         99.5874
   399.40         100.4171
   399.54         101.2810
   399.68         102.2292
   399.82         103.3061
   399.96         104.5338
   400.10         105.9108
   400.24         107.4201
   400.38         109.0382
   400.52         110.7443
   400.66         112.5061
   400.80         114.2603
   400.94         115.9241
   401.08         117.4215
   401.22         118.7077
   401.36         119.7769
   401.50         120.6383
   401.64         121.2753
   401.78         121.6367
   401.92         121.6754
   402.06         121.3912
   402.20         120.8454
   402.34         120.1416
   402.48         119.4008
   402.62         118.7379
   402.76         118.2417
   402.90         117.9601
   403.04         117.8912
   403.18         117.9854
   403.32         118.1738
   403.46         118.4017
   403.60         118.6461
   403.74         118.9097
   403.88         119.1919
   404.02         119.4585
   404.16         119.6257
   404.30         119.5938
   404.44         119.3191
   404.58         118.8521
   404.72         118.3127
   404.86         117.8227
   405.00         117.4445
   405.14         117.1746
   405.28         116.9747
   405.42         116.8085
   405.56         116.6710
   405.70         116.5798
   405.84         116.5598
   405.98         116.6422
   406.12         116.8322
   406.26         117.0571
   406.40         117.1699
   406.54         117.0201
   406.68         116.5289
   406.82         115.7184
   406.96         114.6836
   407.10         113.5470
   407.24         112.4288
   407.38         111.4437
   407.52         110.7139
   407.66         110.3740
   407.80         110.5552
   407.94         111.3587
   408.08         112.8188
   408.22         114.8695
   408.36         117.3295
   408.50         119.9320
   408.64         122.3716
   408.78         124.3354
   408.92         125.5558
   409.06         125.8940
   409.20         125.3857
   409.34         124.1946
   409.48         122.5279
   409.62         120.5828
   409.76         118.5525
   409.90         116.6529
   410.04         115.1150
   410.18         114.1459
   410.32         113.8801
   410.46         114.3404
   410.60         115.4291
   410.74         116.9485
   410.88         118.6434
   411.02         120.2633
   411.16         121.6070
   411.30         122.5331
   411.44         122.9556
   411.58         122.8502
   411.72         122.2561
   411.86         121.2503
   412.00         119.9168
   412.14         118.3592
   412.28         116.7358
   412.42         115.2617
   412.56         114.1723
   412.70         113.6626
   412.84         113.8199
   412.98         114.5911
   413.12         115.8179
   413.26         117.3187
   413.40         118.9489
   413.54         120.5977
   413.68         122.1595
   413.82         123.5211
   413.96         124.5755
   414.10         125.2409
   414.24         125.4827
   414.38         125.3302
   414.52         124.8770
   414.66         124.2642
   414.80         123.6572
   414.94         123.2129
   415.08         123.0473
   415.22         123.2199
   415.36         123.7268
   415.50         124.5130
   415.64         125.5092
   415.78         126.6370
   415.92         127.7772
   416.06         128.7492
   416.20         129.3421
   416.34         129.3733
   416.48         128.7288
   416.62         127.3833
   416.76         125.4103
   416.90         122.9727
   417.04         120.3017
   417.18         117.6621
   417.32         115.3052
   417.46         113.4318
   417.60         112.1832
   417.74         111.6409
   417.88         111.8235
   418.02         112.6888
   418.16         114.1288
   418.30         115.9576
   418.44         117.9207
   418.58         119.7584
   418.72         121.2818
   418.86         122.3895
   419.00         123.0333
   419.14         123.1991
   419.28         122.9254
   419.42         122.3098
   419.56         121.4865
   419.70         120.6095
   419.84         119.8433
   419.98         119.3475
   420.12         119.2506
   420.26         119.6254
   420.40         120.4872
   420.54         121.8064
   420.68         123.5111
   420.82         125.4813
   420.96         127.5492
   421.10         129.5207
   421.24         131.2022
   421.38         132.4178
   421.52         133.0483
   421.66         133.0813
   421.80         132.6132
   421.94         131.7942
   422.08         130.7635
   422.22         129.6317
   422.36         128.4909
   422.50         127.4176
   422.64         126.4710
   422.78         125.7012
   422.92         125.1643
   423.06         124.9251
   423.20         125.0238
   423.34         125.4294
   423.48         126.0341
   423.62         126.6915
   423.76         127.2780
   423.90         127.7304
   424.04         128.0591
   424.18         128.3373
   424.32         128.6351
   424.46         128.9619
   424.60         129.2717
   424.74         129.5097
   424.88         129.6661
   425.02         129.7946
   425.16         129.9919
   425.30         130.3661
   425.44         130.9967
   425.58         131.8883
   425.72         132.9562
   425.86         134.0526
   426.00         135.0127
   426.14         135.7139
   426.28         136.1120
   426.42         136.2356
   426.56         136.1528
   426.70         135.9375
   426.84         135.6460
   426.98         135.3083
   427.12         134.9414
   427.26         134.5568
   427.40         134.1571
   427.54         133.7312
   427.68         133.2455
   427.82         132.6386
   427.96         131.8459
   428.10         130.8211
   428.24         129.5409
   428.38         128.0186
   428.52         126.2983
   428.66         124.4346
   428.80         122.4814
   428.94         120.4769
   429.08         118.4372
   429.22         116.3692
   429.36         114.2858
   429.50         112.2192
   429.64         110.2242
   429.78         108.3844
   429.92         106.8058
   430.06         105.5937
   430.20         104.8483
   430.34         104.6849
   430.48         105.2382
   430.62         106.6142
   430.76         108.8223
   430.90         111.7563
   431.04         115.2197
   431.18         118.9540
   431.32         122.6836
   431.46         126.1848
   431.60         129.3241
   431.74         132.0374
   431.88         134.2946
   432.02         136.0825
   432.16         137.4124
   432.30         138.3154
   432.44         138.8089
   432.58         138.8589
   432.72         138.3882
   432.86         137.3487
   433.00         135.7761
   433.14         133.7754
   433.28         131.4880
   433.42         129.0932
   433.56         126.8051
   433.70         124.8416
   433.84         123.3807
   433.98         122.5517
   434.12         122.4590
   434.26         123.1602
   434.40         124.6348
   434.54         126.7876
   434.68         129.4615
   434.82         132.4588
   434.96         135.5758
   435.10         138.6441
   435.24         141.5646
   435.38         144.3051
   435.52         146.8688
   435.66         149.2519
   435.80         151.4250
   435.94         153.3363
   436.08         154.8960
   436.22         155.9731
   436.36         156.4535
   436.50         156.3222
   436.64         155.6905
   436.78         154.7443
   436.92         153.6553
   437.06         152.5104
   437.20         151.3024
   437.34         149.9928
   437.48         148.5789
   437.62         147.0993
   437.76         145.5929
   437.90         144.0769
   438.04         142.5621
   438.18         141.0719
   438.32         139.6632
   438.46         138.4290
   438.60         137.4410
   438.74         136.7084
   438.88         136.2258
   439.02         136.0275
   439.16         136.1432
   439.30         136.5285
   439.44         137.0664
   439.58         137.6112
   439.72         138.0434
   439.86         138.3355
   440.00         138.5595
   440.14         138.8039
   440.28         139.0946
   440.42         139.3871
   440.56         139.6160
   440.70         139.7472
   440.84         139.7819
   440.98         139.7458
   441.12         139.6782
   441.26         139.6158
   441.40         139.5978
   441.54         139.6781
   441.68         139.8947
   441.82         140.2312
   441.96         140.6337
   442.10         141.0380
   442.24         141.3860
   442.38         141.6632
   442.52         141.9107
   442.66         142.1801
   442.80         142.4762
   442.94         142.7465
   443.08         142.9327
   443.22         143.0210
   443.36         143.0517
   443.50         143.0810
   443.64         143.1406
   443.78         143.2353
   443.92         143.3476
   444.06         143.4384
   444.20         143.4549
   444.34         143.3489
   444.48         143.0956
   444.62         142.6981
   444.76         142.1690
   444.90         141.5285
   445.04         140.8239
   445.18         140.1108
   445.32         139.4172
   445.46         138.7346
   445.60         138.0604
   445.74         137.4550
   445.88         137.0480
   446.02         137.0001
   446.16         137.4520
   446.30         138.4935
   446.44         140.1618
   446.58         142.4293
   446.72         145.1794
   446.86         148.2254
   447.00         151.3698
   447.14         154.4401
   447.28         157.2925
   447.42         159.8023
   447.56         161.8474
   447.70         163.3207
   447.84         164.1605
   447.98         164.3618
   448.12         163.9686
   448.26         163.0848
   448.40         161.8924
   448.54         160.6320
   448.68         159.5430
   448.82         158.7955
   448.96         158.4895
   449.10         158.6898
   449.24         159.4303
   449.38         160.7032
   449.52         162.4679
   449.66         164.6638
   449.80         167.1926
   449.94         169.8954
   450.08         172.5505
   450.22         174.9123
   450.36         176.7911
   450.50         178.0848
   450.64         178.7495
   450.78         178.7806
   450.92         178.2128
   451.06         177.1086
   451.20         175.5423
   451.34         173.5885
   451.48         171.3212
   451.62         168.8377
   451.76         166.2477
   451.90         163.6296
   452.04         161.0274
   452.18         158.4896
   452.32         156.1174
   452.46         154.0551
   452.60         152.4350
   452.74         151.3423
   452.88         150.8176
   453.02         150.8669
   453.16         151.4440
   453.30         152.4403
   453.44         153.6960
   453.58         155.0064
   453.72         156.1689
   453.86         157.0415
   454.00         157.5373
   454.14         157.6030
   454.28         157.2471
   454.42         156.5703
   454.56         155.7383
   454.70         154.9424
   454.84         154.3741
   454.98         154.1859
   455.12         154.4397
   455.26         155.1089
   455.40         156.1327
   455.54         157.4545
   455.68         159.0151
   455.82         160.7226
   455.96         162.4739
   456.10         164.1906
   456.24         165.8232
   456.38         167.3618
   456.52         168.8048
   456.66         170.1025
   456.80         171.1715
   456.94         171.9424
   457.08         172.3628
   457.22         172.3895
   457.36         172.0109
   457.50         171.2581
   457.64         170.1874
   457.78         168.8814
   457.92         167.4572
   458.06         166.0440
   458.20         164.7564
   458.34         163.6860
   458.48         162.9077
   458.62         162.4908
   458.76         162.4691
   458.90         162.8191
   459.04         163.4821
   459.18         164.3743
   459.32         165.4076
   459.46         166.5339
   459.60         167.7650
   459.74         169.1422
   459.88         170.7000
   460.02         172.4260
   460.16         174.2321
   460.30         175.9823
   460.44         177.5464
   460.58         178.8393
   460.72         179.8298
   460.86         180.5410
   461.00         181.0312
   461.14         181.3632
   461.28         181.5953
   461.42         181.7767
   461.56         181.9439
   461.70         182.1267
   461.84         182.3534
   461.98         182.6392
   462.12         182.9782
   462.26         183.3416
   462.40         183.6718
   462.54         183.8983
   462.68         183.9664
   462.82         183.8618
   462.96         183.6166
   463.10         183.2868
   463.24         182.9184
   463.38         182.5269
   463.52         182.1022
   463.66         181.6232
   463.80         181.0781
   463.94         180.4778
   464.08         179.8449
   464.22         179.1947
   464.36         178.5413
   464.50         177.9140
   464.64         177.3754
   464.78         177.0129
   464.92         176.8880
   465.06         177.0029
   465.20         177.2966
   465.34         177.6501
   465.48         177.8977
   465.62         177.8594
   465.76         177.3953
   465.90         176.4580
   466.04         175.1195
   466.18         173.5630
   466.32         172.0355
   466.46         170.7697
   466.60         169.9274
   466.74         169.5901
   466.88         169.7734
   467.02         170.4701
   467.16         171.6788
   467.30         173.3682
   467.44         175.4118
   467.58         177.6026
   467.72         179.7298
   467.86         181.6169
   468.00         183.1527
   468.14         184.3258
   468.28         185.2031
   468.42         185.8786
   468.56         186.4230
   468.70         186.8445
   468.84         187.0901
   468.98         187.0775
   469.12         186.7304
   469.26         186.0071
   469.40         184.9158
   469.54         183.5112
   469.68         181.8855
   469.82         180.1577
   469.96         178.4419
   470.10         176.8350
   470.24         175.4347
   470.38         174.3427
   470.52         173.6567
   470.66         173.4622
   470.80         173.8041
   470.94         174.6566
   471.08         175.9399
   471.22         177.5440
   471.36         179.3359
   471.50         181.1686
   471.64         182.8837
   471.78         184.3168
   471.92         185.3136
   472.06         185.7624
   472.20         185.6236
   472.34         184.9383
   472.48         183.8168
   472.62         182.4144
   472.76         180.9149
   472.90         179.5124
   473.04         178.3822
   473.18         177.6603
   473.32         177.4351
   473.46         177.7485
   473.60         178.5970
   473.74         179.9311
   473.88         181.6546
   474.02         183.6249
   474.16         185.6625
   474.30         187.5907
   474.44         189.2792
   474.58         190.6585
   474.72         191.7091
   474.86         192.4284
   475.00         192.7920
   475.14         192.7531
   475.28         192.2790
   475.42         191.3805
   475.56         190.1266
   475.70         188.6466
   475.84         187.1029
   475.98         185.6626
   476.12         184.4857
   476.26         183.7122
   476.40         183.4468
   476.54         183.7357
   476.68         184.5554
   476.82         185.8275
   476.96         187.4471
   477.10         189.2899
   477.24         191.2069
   477.38         193.0241
   477.52         194.5475
   477.66         195.6032
   477.80         196.1080
   477.94         196.1016
   478.08         195.7093
   478.22         195.0890
   478.36         194.3863
   478.50         193.7077
   478.64         193.1341
   478.78         192.7334
   478.92         192.5455
   479.06         192.5655
   479.20         192.7426
   479.34         192.9977
   479.48         193.2529
   479.62         193.4504
   479.76         193.5535
   479.90         193.5481
   480.04         193.4511
   480.18         193.3102
   480.32         193.2054
   480.46         193.2387
   480.60         193.4960
   480.74         194.0121
   480.88         194.7556
   481.02         195.6322
   481.16         196.5112
   481.30         197.2670
   481.44         197.8017
   481.58         198.0366
   481.72         197.9146
   481.86         197.4226
   482.00         196.6223
   482.14         195.6257
   482.28         194.5439
   482.42         193.4798
   482.56         192.5249
   482.70         191.7442
   482.84         191.1645
   482.98         190.7873
   483.12         190.6011
   483.26         190.5772
   483.40         190.6545
   483.54         190.7361
   483.68         190.7317
   483.82         190.6043
   483.96         190.3734
   484.10         190.0589
   484.24         189.6171
   484.38         188.9603
   484.52         188.0082
   484.66         186.6878
   484.80         184.8806
   484.94         182.4596
   485.08         179.3867
   485.22         175.7371
   485.36         171.6950
   485.50         167.5362
   485.64         163.5843
   485.78         160.1336
   485.92         157.3876
   486.06         155.4568
   486.20         154.3925
   486.34         154.2181
   486.48         154.9092
   486.62         156.3565
   486.76         158.3692
   486.90         160.7256
   487.04         163.2172
   487.18         165.6387
   487.32         167.7810
   487.46         169.4892
   487.60         170.7263
   487.74         171.5595
   487.88         172.0952
   488.02         172.4500
   488.16         172.7542
   488.30         173.1382
   488.44         173.7162
   488.58         174.5983
   488.72         175.8714
   488.86         177.5588
   489.00         179.6292
   489.14         182.0043
   489.28         184.5649
   489.42         187.1806
   489.56         189.7097
   489.70         191.9788
   489.84         193.8008
   489.98         195.0331
   490.12         195.6223
   490.26         195.6009
   490.40         195.0787
   490.54         194.2099
   490.68         193.1326
   490.82         191.9193
   490.96         190.5628
   491.10         189.0130
   491.24         187.2245
   491.38         185.1973
   491.52         183.0330
   491.66         180.9465
   491.80         179.1904
   491.94         177.9852
   492.08         177.4676
   492.22         177.6433
   492.36         178.4085
   492.50         179.6245
   492.64         181.1553
   492.78         182.8542
   492.92         184.5642
   493.06         186.1421
   493.20         187.4634
   493.34         188.4358
   493.48         189.0450
   493.62         189.3811
   493.76         189.6143
   493.90         189.9540
   494.04         190.6046
   494.18         191.6938
   494.32         193.2246
   494.46         195.0677
   494.60         196.9729
   494.74         198.6414
   494.88         199.8392
   495.02         200.4529
   495.16         200.4754
   495.30         199.9729
   495.44         199.0649
   495.58         197.9116
   495.72         196.6706
   495.86         195.4489
   496.00         194.3144
   496.14         193.3356
   496.28         192.5887
   496.42         192.1388
   496.56         192.0157
   496.70         192.1784
   496.84         192.5089
   496.98         192.8348
   497.12         192.9383
   497.26         192.6156
   497.40         191.7741
   497.54         190.4509
   497.68         188.7550
   497.82         186.8238
   497.96         184.8014
   498.10         182.8119
   498.24         180.9634
   498.38         179.3748
   498.52         178.1830
   498.66         177.5206
   498.80         177.4571
   498.94         177.9607
   499.08         178.9077
   499.22         180.1052
   499.36         181.3061
   499.50         182.2542
   499.64         182.7623
   499.78         182.7817
   499.92         182.4045
   500.06         181.7722
   500.20         180.9866
   500.34         180.0835
   500.48         179.0549
   500.62         177.8815
   500.76         176.5528
   500.90         175.1098
   501.04         173.6565
   501.18         172.3083
   501.32         171.1556
   501.46         170.2678
   501.60         169.7015
   501.74         169.5000
   501.88         169.6893
   502.02         170.2800
   502.16         171.2889
   502.30         172.7380
   502.44         174.5844
   502.58         176.6660
   502.72         178.7478
   502.86         180.5963
   503.00         182.0219
   503.14         182.9198
   503.28         183.3022
   503.42         183.2946
   503.56         183.0865
   503.70         182.8497
   503.84         182.6839
   503.98         182.6378
   504.12         182.7427
   504.26         183.0228
   504.40         183.5136
   504.54         184.2566
   504.68         185.2747
   504.82         186.5628
   504.96         188.0843
   505.10         189.7608
   505.24         191.4812
   505.38         193.1323
   505.52         194.6065
   505.66         195.8265
   505.80         196.7760
   505.94         197.4657
   506.08         197.8631
   506.22         197.8802
   506.36         197.4370
   506.50         196.5259
   506.64         195.2239
   506.78         193.6355
   506.92         191.8466
   507.06         189.9364
   507.20         187.9932
   507.34         186.1217
   507.48         184.4287
   507.62         182.9989
   507.76         181.8898
   507.90         181.1551
   508.04         180.8616
   508.18         181.0684
   508.32         181.8093
   508.46         183.0684
   508.60         184.7354
   508.74         186.6032
   508.88         188.4303
   509.02         190.0149
   509.16         191.2258
   509.30         191.9827
   509.44         192.2415
   509.58         192.0230
   509.72         191.4210
   509.86         190.5656
   510.00         189.5964
   510.14         188.6571
   510.28         187.8791
   510.42         187.3651
   510.56         187.1882
   510.70         187.3751
   510.84         187.8844
   510.98         188.6124
   511.12         189.4073
   511.26         190.0933
   511.40         190.5243
   511.54         190.6222
   511.68         190.3631
   511.82         189.7394
   511.96         188.7515
   512.10         187.4368
   512.24         185.8949
   512.38         184.2748
   512.52         182.7390
   512.66         181.4240
   512.80         180.4128
   512.94         179.7329
   513.08         179.3785
   513.22         179.3178
   513.36         179.4855
   513.50         179.7933
   513.64         180.1566
   513.78         180.5143
   513.92         180.8301
   514.06         181.0699
   514.20         181.1889
   514.34         181.1555
   514.48         180.9907
   514.62         180.7722
   514.76         180.5980
   514.90         180.5381
   515.04         180.6051
   515.18         180.7690
   515.32         180.9748
   515.46         181.1303
   515.60         181.1015
   515.74         180.7443
   515.88         179.9487
   516.02         178.6660
   516.16         176.9219
   516.30         174.8308
   516.44         172.5955
   516.58         170.4733
   516.72         168.7312
   516.86         167.6175
   517.00         167.3179
   517.14         167.8853
   517.28         169.2150
   517.42         171.0797
   517.56         173.1881
   517.70         175.2463
   517.84         176.9896
   517.98         178.1932
   518.12         178.6965
   518.26         178.4484
   518.40         177.5317
   518.54         176.1244
   518.68         174.4545
   518.82         172.7874
   518.96         171.3861
   519.10         170.4332
   519.24         169.9751
   519.38         169.9335
   519.52         170.1646
   519.66         170.5267
   519.80         170.9229
   519.94         171.3174
   520.08         171.7338
   520.22         172.2182
   520.36         172.7698
   520.50         173.3398
   520.64         173.8991
   520.78         174.4633
   520.92         175.0793
   521.06         175.8065
   521.20         176.6774
   521.34         177.6556
   521.48         178.6138
   521.62         179.3742
   521.76         179.7872
   521.90         179.7844
   522.04         179.3885
   522.18         178.6796
   522.32         177.7599
   522.46         176.7384
   522.60         175.7354
   522.74         174.8799
   522.88         174.2784
   523.02         174.0031
   523.16         174.1197
   523.30         174.6798
   523.44         175.6660
   523.58         176.9690
   523.72         178.4054
   523.86         179.7535
   524.00         180.8132
   524.14         181.4734
   524.28         181.7361
   524.42         181.6711
   524.56         181.3661
   524.70         180.9120
   524.84         180.3886
   524.98         179.8456
   525.12         179.2803
   525.26         178.6324
   525.40         177.8084
   525.54         176.7153
   525.68         175.2855
   525.82         173.4824
   525.96         171.3169
   526.10         168.8515
   526.24         166.1871
   526.38         163.4788
   526.52         160.9527
   526.66         158.8751
   526.80         157.4766
   526.94         156.8982
   527.08         157.1797
   527.22         158.2656
   527.36         160.0208
   527.50         162.2592
   527.64         164.7901
   527.78         167.4678
   527.92         170.2118
   528.06         172.9816
   528.20         175.7366
   528.34         178.4158
   528.48         180.9280
   528.62         183.1643
   528.76         185.0244
   528.90         186.4384
   529.04         187.3876
   529.18         187.8965
   529.32         188.0013
   529.46         187.7413
   529.60         187.1863
   529.74         186.4530
   529.88         185.7011
   530.02         185.1022
   530.16         184.7834
   530.30         184.7860
   530.44         185.0660
   530.58         185.5175
   530.72         186.0086
   530.86         186.4265
   531.00         186.6995
   531.14         186.7776
   531.28         186.6217
   531.42         186.2111
   531.56         185.5313
   531.70         184.5757
   531.84         183.3852
   531.98         182.0608
   532.12         180.7199
   532.26         179.4593
   532.40         178.3473
   532.54         177.4174
   532.68         176.6624
   532.82         176.0514
   532.96         175.5648
   533.10         175.2177
   533.24         175.0551
   533.38         175.1218
   533.52         175.4323
   533.66         175.9491
   533.80         176.5857
   533.94         177.2560
   534.08         177.9215
   534.22         178.6064
   534.36         179.3877
   534.50         180.3554
   534.64         181.5499
   534.78         182.9314
   534.92         184.4148
   535.06         185.9019
   535.20         187.2843
   535.34         188.4517
   535.48         189.3081
   535.62         189.7844
   535.76         189.8347
   535.90         189.4282
   536.04         188.5615
   536.18         187.2914
   536.32         185.7557
   536.46         184.1613
   536.60         182.7360
   536.74         181.6685
   536.88         181.0745
   537.02         180.9879
   537.16         181.3720
   537.30         182.1404
   537.44         183.1814
   537.58         184.3744
   537.72         185.5927
   537.86         186.7100
   538.00         187.6167
   538.14         188.2380
   538.28         188.5364
   538.42         188.4923
   538.56         188.0988
   538.70         187.3893
   538.84         186.4441
   538.98         185.3488
   539.12         184.1459
   539.26         182.8274
   539.40         181.3770
   539.54         179.8183
   539.68         178.2189
   539.82         176.6643
   539.96         175.2425
   540.10         174.0468
   540.24         173.1470
   540.38         172.5656
   540.52         172.3055
   540.66         172.3689
   540.80         172.7520
   540.94         173.4327
   541.08         174.3568
   541.22         175.4467
   541.36         176.6212
   541.50         177.7965
   541.64         178.8769
   541.78         179.7648
   541.92         180.3965
   542.06         180.7594
   542.20         180.8663
   542.34         180.7362
   542.48         180.4135
   542.62         179.9893
   542.76         179.5894
   542.90         179.3339
   543.04         179.3292
   543.18         179.6578
   543.32         180.3334
   543.46         181.2919
   543.60         182.4265
   543.74         183.6318
   543.88         184.8413
   544.02         186.0247
   544.16         187.1391
   544.30         188.0933
   544.44         188.7783
   544.58         189.1421
   544.72         189.2135
   544.86         189.0712
   545.00         188.8186
   545.14         188.5589
   545.28         188.3638
   545.42         188.2516
   545.56         188.1832
   545.70         188.0989
   545.84         187.9543
   545.98         187.7275
   546.12         187.4206
   546.26         187.0518
   546.40         186.6253
   546.54         186.1051
   546.68         185.4297
   546.82         184.5583
   546.96         183.5067
   547.10         182.3668
   547.24         181.2895
   547.38         180.4055
   547.52         179.7703
   547.66         179.3889
   547.80         179.2532
   547.94         179.3466
   548.08         179.6397
   548.22         180.1030
   548.36         180.7135
   548.50         181.4360
   548.64         182.2042
   548.78         182.9296
   548.92         183.5359
   549.06         183.9830
   549.20         184.2732
   549.34         184.4491
   549.48         184.5536
   549.62         184.5941
   549.76         184.5598
   549.90         184.4365
   550.04         184.1911
   550.18         183.7949
   550.32         183.2673
   550.46         182.6729
   550.60         182.0985
   550.74         181.6506
   550.88         181.4441
   551.02         181.5593
   551.16         182.0041
   551.30         182.7100
   551.44         183.5467
   551.58         184.3525
   551.72         184.9681
   551.86         185.2794
   552.00         185.2426
   552.14         184.8642
   552.28         184.1802
   552.42         183.2585
   552.56         182.2053
   552.70         181.1548
   552.84         180.2548
   552.98         179.6429
   553.12         179.4012
   553.26         179.5345
   553.40         179.9855
   553.54         180.6599
   553.68         181.4527
   553.82         182.2783
   553.96         183.0804
   554.10         183.8249
   554.24         184.5040
   554.38         185.1405
   554.52         185.7634
   554.66         186.3703
   554.80         186.9195
   554.94         187.3613
   555.08         187.6722
   555.22         187.8530
   555.36         187.9004
   555.50         187.8019
   555.64         187.5429
   555.78         187.1123
   555.92         186.5215
   556.06         185.8167
   556.20         185.0697
   556.34         184.3527
   556.48         183.7180
   556.62         183.1963
   556.76         182.8167
   556.90         182.6118
   557.04         182.6004
   557.18         182.7771
   557.32         183.1158
   557.46         183.5678
   557.60         184.0481
   557.74         184.4376
   557.88         184.6137
   558.02         184.4879
   558.16         184.0248
   558.30         183.2405
   558.44         182.2004
   558.58         181.0088
   558.72         179.7803
   558.86         178.6184
   559.00         177.6015
   559.14         176.7743
   559.28         176.1599
   559.42         175.7814
   559.56         175.6663
   559.70         175.8392
   559.84         176.3052
   559.98         177.0407
   560.12         177.9996
   560.26         179.1153
   560.40         180.3008
   560.54         181.4580
   560.68         182.5007
   560.82         183.3691
   560.96         184.0290
   561.10         184.4634
   561.24         184.6621
   561.38         184.6207
   561.52         184.3522
   561.66         183.9077
   561.80         183.3857
   561.94         182.9125
   562.08         182.6060
   562.22         182.5360
   562.36         182.7028
   562.50         183.0509
   562.64         183.5140
   562.78         184.0224
   562.92         184.4877
   563.06         184.8253
   563.20         184.9899
   563.34         184.9902
   563.48         184.8731
   563.62         184.6969
   563.76         184.5095
   563.90         184.3391
   564.04         184.2057
   564.18         184.1356
   564.32         184.1585
   564.46         184.2752
   564.60         184.4296
   564.74         184.5150
   564.88         184.4103
   565.02         184.0258
   565.16         183.3271
   565.30         182.3229
   565.44         181.0471
   565.58         179.5682
   565.72         177.9924
   565.86         176.4434
   566.00         175.0584
   566.14         173.9818
   566.28         173.3355
   566.42         173.1811
   566.56         173.5162
   566.70         174.2951
   566.84         175.4325
   566.98         176.8005
   567.12         178.2354
   567.26         179.5580
   567.40         180.6140
   567.54         181.3134
   567.68         181.6296
   567.82         181.5774
   567.96         181.2046
   568.10         180.5976
   568.24         179.8724
   568.38         179.1531
   568.52         178.5667
   568.66         178.2365
   568.80         178.2517
   568.94         178.6270
   569.08         179.2884
   569.22         180.1129
   569.36         180.9727
   569.50         181.7411
   569.64         182.2899
   569.78         182.4976
   569.92         182.2756
   570.06         181.6039
   570.20         180.5465
   570.34         179.2329
   570.48         177.8268
   570.62         176.4909
   570.76         175.3601
   570.90         174.5295
   571.04         174.0673
   571.18         174.0231
   571.32         174.4082
   571.46         175.1910
   571.60         176.3087
   571.74         177.6754
   571.88         179.1955
   572.02         180.7660
   572.16         182.2759
   572.30         183.6281
   572.44         184.7647
   572.58         185.6715
   572.72         186.3702
   572.86         186.8987
   573.00         187.2828
   573.14         187.5288
   573.28         187.6369
   573.42         187.6078
   573.56         187.4492
   573.70         187.1854
   573.84         186.8494
   573.98         186.4692
   574.12         186.0580
   574.26         185.6049
   574.40         185.0952
   574.54         184.5401
   574.68         183.9741
   574.82         183.4403
   574.96         182.9706
   575.10         182.5701
   575.24         182.2197
   575.38         181.9027
   575.52         181.6218
   575.66         181.3934
   575.80         181.2469
   575.94         181.2113
   576.08         181.2911
   576.22         181.4743
   576.36         181.7488
   576.50         182.0981
   576.64         182.4872
   576.78         182.8475
   576.92         183.0869
   577.06         183.1262
   577.20         182.9108
   577.34         182.4042
   577.48         181.6008
   577.62         180.5467
   577.76         179.3393
   577.90         178.1043
   578.04         176.9711
   578.18         176.0493
   578.32         175.4105
   578.46         175.0826
   578.60         175.0430
   578.74         175.2349
   578.88         175.6042
   579.02         176.1086
   579.16         176.7025
   579.30         177.3212
   579.44         177.8849
   579.58         178.3370
   579.72         178.6776
   579.86         178.9435
   580.00         179.1765
   580.14         179.4236
   580.28         179.7239
   580.42         180.0811
   580.56         180.4652
   580.70         180.8401
   580.84         181.1910
   580.98         181.5311
   581.12         181.8838
   581.26         182.2623
   581.40         182.6768
   581.54         183.1340
   581.68         183.6230
   581.82         184.1274
   581.96         184.6292
   582.10         185.1060
   582.24         185.5461
   582.38         185.9508
   582.52         186.3209
   582.66         186.6572
   582.80         186.9626
   582.94         187.2289
   583.08         187.4344
   583.22         187.5579
   583.36         187.5926
   583.50         187.5411
   583.64         187.4017
   583.78         187.1632
   583.92         186.8087
   584.06         186.3277
   584.20         185.7093
   584.34         184.9433
   584.48         184.0375
   584.62         183.0055
   584.76         181.8735
   584.90         180.7052
   585.04         179.5844
   585.18         178.5831
   585.32         177.7643
   585.46         177.1831
   585.60         176.8758
   585.74         176.8676
   585.88         177.1776
   586.02         177.8001
   586.16         178.6990
   586.30         179.8211
   586.44         181.0869
   586.58         182.3890
   586.72         183.6226
   586.86         184.7016
   587.00         185.5588
   587.14         186.1519
   587.28         186.4628
   587.42         186.4922
   587.56         186.2394
   587.70         185.6601
   587.84         184.6791
   587.98         183.2722
   588.12         181.4948
   588.26         179.4271
   588.40         177.1352
   588.54         174.6936
   588.68         172.2241
   588.82         169.9059
   588.96         167.9385
   589.10         166.4818
   589.24         165.6435
   589.38         165.4874
   589.52         166.0241
   589.66         167.2043
   589.80         168.9219
   589.94         171.0248
   590.08         173.3261
   590.22         175.6144
   590.36         177.6906
   590.50         179.4351
   590.64         180.8182
   590.78         181.8355
   590.92         182.4748
   591.06         182.7639
   591.20         182.7976
   591.34         182.6830
   591.48         182.4878
   591.62         182.2334
   591.76         181.9111
   591.90         181.5151
   592.04         181.0571
   592.18         180.5531
   592.32         180.0207
   592.46         179.4959
   592.60         179.0284
   592.74         178.6558
   592.88         178.4030
   593.02         178.2963
   593.16         178.3571
   593.30         178.5858
   593.44         178.9495
   593.58         179.3825
   593.72         179.7969
   593.86         180.0973
   594.00         180.2089
   594.14         180.1007
   594.28         179.7806
   594.42         179.2788
   594.56         178.6551
   594.70         177.9953
   594.84         177.3882
   594.98         176.9172
   595.12         176.6446
   595.26         176.5907
   595.40         176.7465
   595.54         177.0911
   595.68         177.5936
   595.82         178.2187
   595.96         178.9258
   596.10         179.6498
   596.24         180.3109
   596.38         180.8439
   596.52         181.2001
   596.66         181.3448
   596.80         181.2681
   596.94         180.9873
   597.08         180.5334
   597.22         179.9329
   597.36         179.2029
   597.50         178.3634
   597.64         177.4475
   597.78         176.5008
   597.92         175.5814
   598.06         174.7610
   598.20         174.1172
   598.34         173.7210
   598.48         173.6138
   598.62         173.7825
   598.76         174.1724
   598.90         174.7319
   599.04         175.4212
   599.18         176.1943
   599.32         177.0010
   599.46         177.7792
   599.60         178.4363
   599.74         178.8663
   599.88         178.9970
   600.02         178.8239
   600.16         178.3881
   600.30         177.7446
   600.44         176.9642
   600.58         176.1276
   600.72         175.3010
   600.86         174.5161
   601.00         173.7767
   601.14         173.0752
   601.28         172.4080
   601.42         171.7868
   601.56         171.2270
   601.70         170.7381
   601.84         170.3320
   601.98         170.0219
   602.12         169.8107
   602.26         169.7062
   602.40         169.7324
   602.54         169.9073
   602.68         170.2245
   602.82         170.6581
   602.96         171.1736
   603.10         171.7315
   603.24         172.2883
   603.38         172.7998
   603.52         173.2389
   603.66         173.6137
   603.80         173.9453
   603.94         174.2468
   604.08         174.5224
   604.22         174.7684
   604.36         174.9850
   604.50         175.1744
   604.64         175.3330
   604.78         175.4598
   604.92         175.5628
   605.06         175.6487
   605.20         175.7176
   605.34         175.7710
   605.48         175.8100
   605.62         175.8288
   605.76         175.8238
   605.90         175.8079
   606.04         175.7973
   606.18         175.7929
   606.32         175.7764
   606.46         175.7175
   606.60         175.5989
   606.74         175.4228
   606.88         175.1956
   607.02         174.9182
   607.16         174.5900
   607.30         174.2195
   607.44         173.8221
   607.58         173.4160
   607.72         173.0232
   607.86         172.6710
   608.00         172.3884
   608.14         172.2034
   608.28         172.1362
   608.42         172.1891
   608.56         172.3353
   608.70         172.5121
   608.84         172.6360
   608.98         172.6400
   609.12         172.4990
   609.26         172.2243
   609.40         171.8432
   609.54         171.3928
   609.68         170.9265
   609.82         170.5101
   609.96         170.1968
   610.10         170.0113
   610.24         169.9595
   610.38         170.0341
   610.52         170.2100
   610.66         170.4427
   610.80         170.6740
   610.94         170.8429
   611.08         170.9012
   611.22         170.8262
   611.36         170.6224
   611.50         170.3175
   611.64         169.9586
   611.78         169.6000
   611.92         169.2848
   612.06         169.0329
   612.20         168.8354
   612.34         168.6495
   612.48         168.4155
   612.62         168.0850
   612.76         167.6322
   612.90         167.0534
   613.04         166.3692
   613.18         165.6181
   613.32         164.8397
   613.46         164.0668
   613.60         163.3377
   613.74         162.7046
   613.88         162.2185
   614.02         161.9147
   614.16         161.8045
   614.30         161.8813
   614.44         162.1229
   614.58         162.4812
   614.72         162.8807
   614.86         163.2349
   615.00         163.4819
   615.14         163.6123
   615.28         163.6526
   615.42         163.6280
   615.56         163.5516
   615.70         163.4301
   615.84         163.2683
   615.98         163.0732
   616.12         162.8650
   616.26         162.6837
   616.40         162.5703
   616.54         162.5506
   616.68         162.6393
   616.82         162.8443
   616.96         163.1700
   617.10         163.6134
   617.24         164.1568
   617.38         164.7693
   617.52         165.4154
   617.66         166.0560
   617.80         166.6403
   617.94         167.1130
   618.08         167.4326
   618.22         167.5846
   618.36         167.5881
   618.50         167.4893
   618.64         167.3418
   618.78         167.1981
   618.92         167.1108
   619.06         167.1265
   619.20         167.2754
   619.34         167.5662
   619.48         167.9844
   619.62         168.4959
   619.76         169.0601
   619.90         169.6332
   620.04         170.1606
   620.18         170.5880
   620.32         170.8770
   620.46         171.0119
   620.60         170.9973
   620.74         170.8459
   620.88         170.5709
   621.02         170.1984
   621.16         169.7720
   621.30         169.3363
   621.44         168.9247
   621.58         168.5533
   621.72         168.2178
   621.86         167.9035
   622.00         167.5980
   622.14         167.2956
   622.28         166.9926
   622.42         166.6754
   622.56         166.3093
   622.70         165.8546
   622.84         165.3070
   622.98         164.7010
   623.12         164.0742
   623.26         163.4464
   623.40         162.8255
   623.54         162.2283
   623.68         161.6924
   623.82         161.2589
   623.96         160.9438
   624.10         160.7354
   624.24         160.6111
   624.38         160.5577
   624.52         160.5808
   624.66         160.6988
   624.80         160.9293
   624.94         161.2709
   625.08         161.6817
   625.22         162.0816
   625.36         162.3968
   625.50         162.5959
   625.64         162.6709
   625.78         162.6187
   625.92         162.4576
   626.06         162.2438
   626.20         162.0607
   626.34         161.9779
   626.48         162.0120
   626.62         162.1184
   626.76         162.2293
   626.90         162.2958
   627.04         162.2873
   627.18         162.1775
   627.32         161.9448
   627.46         161.5852
   627.60         161.1172
   627.74         160.5767
   627.88         160.0297
   628.02         159.5855
   628.16         159.3601
   628.30         159.4219
   628.44         159.7797
   628.58         160.3910
   628.72         161.1698
   628.86         161.9959
   629.00         162.7407
   629.14         163.3060
   629.28         163.6466
   629.42         163.7748
   629.56         163.7396
   629.70         163.5948
   629.84         163.3935
   629.98         163.1911
   630.12         163.0317
   630.26         162.9286
   630.40         162.8624
   630.54         162.7979
   630.68         162.7003
   630.82         162.5403
   630.96         162.3003
   631.10         161.9809
   631.24         161.6071
   631.38         161.2309
   631.52         160.9249
   631.66         160.7666
   631.80         160.8143
   631.94         161.0840
   632.08         161.5481
   632.22         162.1474
   632.36         162.8048
   632.50         163.4448
   632.64         164.0088
   632.78         164.4529
   632.92         164.7506
   633.06         164.8991
   633.20         164.9157
   633.34         164.8238
   633.48         164.6501
   633.62         164.4342
   633.76         164.2246
   633.90         164.0644
   634.04         163.9795
   634.18         163.9719
   634.32         164.0275
   634.46         164.1252
   634.60         164.2395
   634.74         164.3448
   634.88         164.4196
   635.02         164.4488
   635.16         164.4305
   635.30         164.3703
   635.44         164.2687
   635.58         164.1168
   635.72         163.8972
   635.86         163.5939
   636.00         163.2114
   636.14         162.7875
   636.28         162.3753
   636.42         162.0125
   636.56         161.7170
   636.70         161.4957
   636.84         161.3465
   636.98         161.2589
   637.12         161.2185
   637.26         161.2158
   637.40         161.2490
   637.54         161.3182
   637.68         161.4211
   637.82         161.5526
   637.96         161.6997
   638.10         161.8410
   638.24         161.9584
   638.38         162.0486
   638.52         162.1176
   638.66         162.1671
   638.80         162.1884
   638.94         162.1712
   639.08         162.1145
   639.22         162.0263
   639.36         161.9076
   639.50         161.7549
   639.64         161.5751
   639.78         161.3834
   639.92         161.1949
   640.06         161.0215
   640.20         160.8666
   640.34         160.7177
   640.48         160.5567
   640.62         160.3719
   640.76         160.1597
   640.90         159.9269
   641.04         159.6901
   641.18         159.4716
   641.32         159.3038
   641.46         159.2255
   641.60         159.2602
   641.74         159.3938
   641.88         159.5776
   642.02         159.7582
   642.16         159.9084
   642.30         160.0282
   642.44         160.1191
   642.58         160.1740
   642.72         160.1875
   642.86         160.1605
   643.00         160.1066
   643.14         160.0575
   643.28         160.0516
   643.42         160.1151
   643.56         160.2523
   643.70         160.4472
   643.84         160.6683
   643.98         160.8715
   644.12         160.9994
   644.26         160.9864
   644.40         160.7832
   644.54         160.3914
   644.68         159.8583
   644.82         159.2368
   644.96         158.5659
   645.10         157.8775
   645.24         157.2171
   645.38         156.6470
   645.52         156.2240
   645.66         155.9807
   645.80         155.9248
   645.94         156.0435
   646.08         156.3083
   646.22         156.6828
   646.36         157.1279
   646.50         157.6060
   646.64         158.0774
   646.78         158.5006
   646.92         158.8423
   647.06         159.0939
   647.20         159.2705
   647.34         159.3852
   647.48         159.4428
   647.62         159.4470
   647.76         159.3923
   647.90         159.2454
   648.04         158.9393
   648.18         158.4006
   648.32         157.5853
   648.46         156.5028
   648.60         155.2235
   648.74         153.8650
   648.88         152.5662
   649.02         151.4714
   649.16         150.7179
   649.30         150.4124
   649.44         150.6117
   649.58         151.3231
   649.72         152.5126
   649.86         154.0985
   650.00         155.9399
   650.14         157.8446
   650.28         159.5986
   650.42         161.0126
   650.56         161.9657
   650.70         162.4284
   650.84         162.4606
   650.98         162.1846
   651.12         161.7485
   651.26         161.2926
   651.40         160.9238
   651.54         160.7088
   651.68         160.6762
   651.82         160.8197
   651.96         161.1046
   652.10         161.4807
   652.24         161.8941
   652.38         162.2912
   652.52         162.6177
   652.66         162.8285
   652.80         162.9026
   652.94         162.8509
   653.08         162.7088
   653.22         162.5140
   653.36         162.2882
   653.50         162.0344
   653.64         161.7408
   653.78         161.3877
   653.92         160.9555
   654.06         160.4241
   654.20         159.7658
   654.34         158.9433
   654.48         157.9072
   654.62         156.5788
   654.76         154.8398
   654.90         152.5671
   655.04         149.7007
   655.18         146.3046
   655.32         142.5691
   655.46         138.7632
   655.60         135.1852
   655.74         132.1269
   655.88         129.8468
   656.02         128.5456
   656.16         128.3433
   656.30         129.2674
   656.44         131.2513
   656.58         134.1375
   656.72         137.6854
   656.86         141.5946
   657.00         145.5430
   657.14         149.2255
   657.28         152.3938
   657.42         154.9046
   657.56         156.7524
   657.70         158.0426
   657.84         158.9103
   657.98         159.4527
   658.12         159.7277
   658.26         159.7846
   658.40         159.6786
   658.54         159.4709
   658.68         159.2259
   658.82         159.0070
   658.96         158.8660
   659.10         158.8284
   659.24         158.8918
   659.38         159.0357
   659.52         159.2327
   659.66         159.4569
   659.80         159.6843
   659.94         159.8870
   660.08         160.0352
   660.22         160.1076
   660.36         160.0996
   660.50         160.0264
   660.64         159.9246
   660.78         159.8447
   660.92         159.8284
   661.06         159.9001
   661.20         160.0709
   661.34         160.3391
   661.48         160.6880
   661.62         161.0852
   661.76         161.4870
   661.90         161.8518
   662.04         162.1468
   662.18         162.3481
   662.32         162.4392
   662.46         162.4083
   662.60         162.2551
   662.74         161.9965
   662.88         161.6580
   663.02         161.2632
   663.16         160.8296
   663.30         160.3752
   663.44         159.9213
   663.58         159.4896
   663.72         159.1027
   663.86         158.7806
   664.00         158.5355
   664.14         158.3709
   664.28         158.2821
   664.42         158.2616
   664.56         158.3006
   664.70         158.3829
   664.84         158.4816
   664.98         158.5612
   665.12         158.5877
   665.26         158.5385
   665.40         158.4028
   665.54         158.1824
   665.68         157.8977
   665.82         157.5826
   665.96         157.2724
   666.10         156.9913
   666.24         156.7456
   666.38         156.5260
   666.52         156.3154
   666.66         156.1015
   666.80         155.8866
   666.94         155.6824
   667.08         155.5023
   667.22         155.3552
   667.36         155.2495
   667.50         155.1994
   667.64         155.2217
   667.78         155.3281
   667.92         155.5218
   668.06         155.7946
   668.20         156.1212
   668.34         156.4605
   668.48         156.7652
   668.62         156.9958
   668.76         157.1225
   668.90         157.1259
   669.04         157.0073
   669.18         156.7945
   669.32         156.5363
   669.46         156.2872
   669.60         156.0908
   669.74         155.9716
   669.88         155.9330
   670.02         155.9624
   670.16         156.0366
   670.30         156.1183
   670.44         156.1631
   670.58         156.1379
   670.72         156.0273
   670.86         155.8310
   671.00         155.5644
   671.14         155.2567
   671.28         154.9433
   671.42         154.6557
   671.56         154.4211
   671.70         154.2606
   671.84         154.1813
   671.98         154.1762
   672.12         154.2268
   672.26         154.3040
   672.40         154.3753
   672.54         154.4141
   672.68         154.4052
   672.82         154.3464
   672.96         154.2454
   673.10         154.1206
   673.24         153.9962
   673.38         153.8866
   673.52         153.7867
   673.66         153.6812
   673.80         153.5587
   673.94         153.4168
   674.08         153.2595
   674.22         153.0915
   674.36         152.9165
   674.50         152.7443
   674.64         152.5961
   674.78         152.4973
   674.92         152.4611
   675.06         152.4853
   675.20         152.5608
   675.34         152.6769
   675.48         152.8216
   675.62         152.9809
   675.76         153.1360
   675.90         153.2659
   676.04         153.3537
   676.18         153.3937
   676.32         153.3951
   676.46         153.3760
   676.60         153.3538
   676.74         153.3381
   676.88         153.3297
   677.02         153.3291
   677.16         153.3384
   677.30         153.3540
   677.44         153.3663
   677.58         153.3674
   677.72         153.3612
   677.86         153.3586
   678.00         153.3624
   678.14         153.3658
   678.28         153.3595
   678.42         153.3384
   678.56         153.3049
   678.70         153.2707
   678.84         153.2497
   678.98         153.2478
   679.12         153.2656
   679.26         153.3038
   679.40         153.3616
   679.54         153.4403
   679.68         153.5437
   679.82         153.6729
   679.96         153.8270
   680.10         154.0077
   680.24         154.2147
   680.38         154.4386
   680.52         154.6581
   680.66         154.8456
   680.80         154.9759
   680.94         155.0301
   681.08         154.9990
   681.22         154.8796
   681.36         154.6722
   681.50         154.3784
   681.64         154.0094
   681.78         153.5944
   681.92         153.1683
   682.06         152.7616
   682.20         152.4001
   682.34         152.0965
   682.48         151.8493
   682.62         151.6487
   682.76         151.4786
   682.90         151.3167
   683.04         151.1416
   683.18         150.9397
   683.32         150.7070
   683.46         150.4494
   683.60         150.1830
   683.74         149.9311
   683.88         149.7176
   684.02         149.5637
   684.16         149.4798
   684.30         149.4633
   684.44         149.5003
   684.58         149.5676
   684.72         149.6400
   684.86         149.6931
   685.00         149.7055
   685.14         149.6682
   685.28         149.5772
   685.42         149.4016
   685.56         149.0560
   685.70         148.4110
   685.84         147.3342
   685.98         145.7333
   686.12         143.5803
   686.26         140.9167
   686.40         137.8499
   686.54         134.5451
   686.68         131.2111
   686.82         128.0825
   686.96         125.4025
   687.10         123.3936
   687.24         122.2126
   687.38         121.9183
   687.52         122.4679
   687.66         123.7286
   687.80         125.4928
   687.94         127.5042
   688.08         129.4927
   688.22         131.2295
   688.36         132.5800
   688.50         133.5118
   688.64         134.0692
   688.78         134.3377
   688.92         134.4168
   689.06         134.4069
   689.20         134.3982
   689.34         134.4649
   689.48         134.6607
   689.62         135.0114
   689.76         135.5076
   689.90         136.1134
   690.04         136.7842
   690.18         137.4773
   690.32         138.1602
   690.46         138.8167
   690.60         139.4414
   690.74         140.0297
   690.88         140.5807
   691.02         141.0926
   691.16         141.5554
   691.30         141.9599
   691.44         142.3064
   691.58         142.5994
   691.72         142.8398
   691.86         143.0277
   692.00         143.1690
   692.14         143.2728
   692.28         143.3459
   692.42         143.3948
   692.56         143.4255
   692.70         143.4403
   692.84         143.4394
   692.98         143.4295
   693.12         143.4164
   693.26         143.3962
   693.40         143.3648
   693.54         143.3270
   693.68         143.2857
   693.82         143.2411
   693.96         143.2037
   694.10         143.1907
   694.24         143.2099
   694.38         143.2578
   694.52         143.3298
   694.66         143.4200
   694.80         143.5183
   694.94         143.6174
   695.08         143.7166
   695.22         143.8200
   695.36         143.9359
   695.50         144.0774
   695.64         144.2620
   695.78         144.5056
   695.92         144.8172
   696.06         145.1963
   696.20         145.6309
   696.34         146.0943
   696.48         146.5486
   696.62         146.9515
   696.76         147.2661
   696.90         147.4681
   697.04         147.5452
   697.18         147.4992
   697.32         147.3475
   697.46         147.1202
   697.60         146.8491
   697.74         146.5602
   697.88         146.2718
   698.02         145.9925
   698.16         145.7272
   698.30         145.4832
   698.44         145.2657
   698.58         145.0691
   698.72         144.8778
   698.86         144.6788
   699.00         144.4607
   699.14         144.2086
   699.28         143.9106
   699.42         143.5739
   699.56         143.2211
   699.70         142.8758
   699.84         142.5579
   699.98         142.2866
   700.12         142.0796
   700.26         141.9455
   700.40         141.8848
   700.54         141.8953
   700.68         141.9770
   700.82         142.1234
   700.96         142.3076
   701.10         142.4844
   701.24         142.6090
   701.38         142.6560
   701.52         142.6198
   701.66         142.5041
   701.80         142.3243
   701.94         142.1164
   702.08         141.9315
   702.22         141.8129
   702.36         141.7775
   702.50         141.8204
   702.64         141.9323
   702.78         142.1005
   702.92         142.3078
   703.06         142.5405
   703.20         142.7918
   703.34         143.0522
   703.48         143.2991
   703.62         143.5092
   703.76         143.6776
   703.90         143.8094
   704.04         143.9015
   704.18         143.9439
   704.32         143.9363
   704.46         143.8870
   704.60         143.8037
   704.74         143.6919
   704.88         143.5552
   705.02         143.3962
   705.16         143.2180
   705.30         143.0216
   705.44         142.8080
   705.58         142.5855
   705.72         142.3683
   705.86         142.1724
   706.00         142.0131
   706.14         141.9035
   706.28         141.8557
   706.42         141.8810
   706.56         141.9821
   706.70         142.1522
   706.84         142.3813
   706.98         142.6551
   707.12         142.9521
   707.26         143.2486
   707.40         143.5209
   707.54         143.7421
   707.68         143.8893
   707.82         143.9476
   707.96         143.9162
   708.10         143.8141
   708.24         143.6713
   708.38         143.5137
   708.52         143.3630
   708.66         143.2412
   708.80         143.1679
   708.94         143.1558
   709.08         143.2087
   709.22         143.3239
   709.36         143.4928
   709.50         143.6994
   709.64         143.9192
   709.78         144.1197
   709.92         144.2623
   710.06         144.3107
   710.20         144.2440
   710.34         144.0636
   710.48         143.7875
   710.62         143.4396
   710.76         143.0496
   710.90         142.6553
   711.04         142.2982
   711.18         142.0193
   711.32         141.8506
   711.46         141.8025
   711.60         141.8674
   711.74         142.0334
   711.88         142.2877
   712.02         142.6142
   712.16         142.9955
   712.30         143.4172
   712.44         143.8702
   712.58         144.3538
   712.72         144.8671
   712.86         145.3962
   713.00         145.9131
   713.14         146.3783
   713.28         146.7436
   713.42         146.9661
   713.56         147.0163
   713.70         146.8788
   713.84         146.5592
   713.98         146.0854
   714.12         145.5082
   714.26         144.8982
   714.40         144.3338
   714.54         143.8820
   714.68         143.5893
   714.82         143.4752
   714.96         143.5234
   715.10         143.6839
   715.24         143.8867
   715.38         144.0549
   715.52         144.1190
   715.66         144.0275
   715.80         143.7456
   715.94         143.2510
   716.08         142.5390
   716.22         141.6269
   716.36         140.5521
   716.50         139.3626
   716.64         138.1097
   716.78         136.8471
   716.92         135.6238
   717.06         134.4732
   717.20         133.4017
   717.34         132.3884
   717.48         131.3994
   717.62         130.4127
   717.76         129.4301
   717.90         128.4742
   718.04         127.5727
   718.18         126.7475
   718.32         126.0195
   718.46         125.4129
   718.60         124.9509
   718.74         124.6494
   718.88         124.5116
   719.02         124.5278
   719.16         124.6774
   719.30         124.9291
   719.44         125.2451
   719.58         125.5933
   719.72         125.9609
   719.86         126.3637
   720.00         126.8466
   720.14         127.4770
   720.28         128.3164
   720.42         129.3905
   720.56         130.6891
   720.70         132.1788
   720.84         133.8069
   720.98         135.4975
   721.12         137.1519
   721.26         138.6592
   721.40         139.9229
   721.54         140.8856
   721.68         141.5320
   721.82         141.8784
   721.96         141.9605
   722.10         141.8200
   722.24         141.4936
   722.38         141.0114
   722.52         140.4028
   722.66         139.7007
   722.80         138.9381
   722.94         138.1324
   723.08         137.2872
   723.22         136.4137
   723.36         135.5372
   723.50         134.6927
   723.64         133.9236
   723.78         133.2755
   723.92         132.7798
   724.06         132.4410
   724.20         132.2407
   724.34         132.1503
   724.48         132.1451
   724.62         132.2043
   724.76         132.3098
   724.90         132.4547
   725.04         132.6409
   725.18         132.8597
   725.32         133.0804
   725.46         133.2632
   725.60         133.3808
   725.74         133.4369
   725.88         133.4585
   726.02         133.4686
   726.16         133.4668
   726.30         133.4286
   726.44         133.3164
   726.58         133.0969
   726.72         132.7607
   726.86         132.3356
   727.00         131.8745
   727.14         131.4251
   727.28         131.0177
   727.42         130.6723
   727.56         130.3965
   727.70         130.1743
   727.84         129.9765
   727.98         129.7805
   728.12         129.5790
   728.26         129.3718
   728.40         129.1548
   728.54         128.9227
   728.68         128.6776
   728.82         128.4330
   728.96         128.2062
   729.10         128.0079
   729.24         127.8450
   729.38         127.7253
   729.52         127.6532
   729.66         127.6212
   729.80         127.6045
   729.94         127.5760
   730.08         127.5165
   730.22         127.4144
   730.36         127.2764
   730.50         127.1300
   730.64         127.0122
   730.78         126.9565
   730.92         126.9862
   731.06         127.1124
   731.20         127.3328
   731.34         127.6288
   731.48         127.9702
   731.62         128.3248
   731.76         128.6701
   731.90         129.0027
   732.04         129.3306
   732.18         129.6592
   732.32         129.9874
   732.46         130.3131
   732.60         130.6383
   732.74         130.9637
   732.88         131.2867
   733.02         131.6042
   733.16         131.9108
   733.30         132.1977
   733.44         132.4540
   733.58         132.6715
   733.72         132.8445
   733.86         132.9618
   734.00         133.0048
   734.14         132.9555
   734.28         132.8034
   734.42         132.5480
   734.56         132.2036
   734.70         131.8002
   734.84         131.3740
   734.98         130.9653
   735.12         130.6165
   735.26         130.3612
   735.40         130.2165
   735.54         130.1827
   735.68         130.2446
   735.82         130.3672
   735.96         130.5019
   736.10         130.6052
   736.24         130.6530
   736.38         130.6367
   736.52         130.5545
   736.66         130.4135
   736.80         130.2356
   736.94         130.0536
   737.08         129.8949
   737.22         129.7736
   737.36         129.6817
   737.50         129.5888
   737.64         129.4598
   737.78         129.2645
   737.92         128.9797
   738.06         128.5917
   738.20         128.1024
   738.34         127.5348
   738.48         126.9291
   738.62         126.3354
   738.76         125.8037
   738.90         125.3782
   739.04         125.0961
   739.18         124.9773
   739.32         125.0184
   739.46         125.1925
   739.60         125.4515
   739.74         125.7329
   739.88         125.9744
   740.02         126.1249
   740.16         126.1540
   740.30         126.0537
   740.44         125.8318
   740.58         125.5088
   740.72         125.1150
   740.86         124.6844
   741.00         124.2478
   741.14         123.8283
   741.28         123.4465
   741.42         123.1258
   741.56         122.8952
   741.70         122.7757
   741.84         122.7662
   741.98         122.8461
   742.12         122.9859
   742.26         123.1538
   742.40         123.3200
   742.54         123.4623
   742.68         123.5664
   742.82         123.6222
   742.96         123.6222
   743.10         123.5664
   743.24         123.4623
   743.38         123.3200
   743.52         123.1538
   743.66         122.9859
   743.80         122.8461
   743.94         122.7662
   744.08         122.7757
   744.22         122.8952
