# File HD260655
# Wavelength [nm]    Normalized Amplitude
   349.70         0.9452
   349.84         0.9080
   349.98         0.8863
   350.12         0.8773
   350.26         0.8782
   350.40         0.8857
   350.54         0.8966
   350.68         0.9089
   350.82         0.9212
   350.96         0.9305
   351.10         0.9340
   351.24         0.9305
   351.38         0.9212
   351.52         0.9089
   351.66         0.8966
   351.80         0.8857
   351.94         0.8782
   352.08         0.8773
   352.22         0.8863
   352.36         0.9080
   352.50         0.9452
   352.64         0.9978
   352.78         1.0628
   352.92         1.1374
   353.06         1.2180
   353.20         1.3001
   353.34         1.3789
   353.48         1.4503
   353.62         1.5098
   353.76         1.5539
   353.90         1.5805
   354.04         1.5883
   354.18         1.5775
   354.32         1.5505
   354.46         1.5110
   354.60         1.4637
   354.74         1.4132
   354.88         1.3631
   355.02         1.3157
   355.16         1.2727
   355.30         1.2342
   355.44         1.2001
   355.58         1.1714
   355.72         1.1482
   355.86         1.1287
   356.00         1.1103
   356.14         1.0907
   356.28         1.0684
   356.42         1.0428
   356.56         1.0132
   356.70         0.9796
   356.84         0.9434
   356.98         0.9057
   357.12         0.8667
   357.26         0.8272
   357.40         0.7886
   357.54         0.7526
   357.68         0.7214
   357.82         0.6978
   357.96         0.6839
   358.10         0.6804
   358.24         0.6866
   358.38         0.7019
   358.52         0.7268
   358.66         0.7614
   358.80         0.8045
   358.94         0.8537
   359.08         0.9052
   359.22         0.9549
   359.36         0.9999
   359.50         1.0381
   359.64         1.0674
   359.78         1.0868
   359.92         1.0960
   360.06         1.0959
   360.20         1.0891
   360.34         1.0793
   360.48         1.0684
   360.62         1.0562
   360.76         1.0431
   360.90         1.0315
   361.04         1.0244
   361.18         1.0232
   361.32         1.0270
   361.46         1.0347
   361.60         1.0444
   361.74         1.0534
   361.88         1.0591
   362.02         1.0595
   362.16         1.0546
   362.30         1.0464
   362.44         1.0376
   362.58         1.0314
   362.72         1.0310
   362.86         1.0394
   363.00         1.0565
   363.14         1.0794
   363.28         1.1055
   363.42         1.1327
   363.56         1.1594
   363.70         1.1832
   363.84         1.2017
   363.98         1.2125
   364.12         1.2143
   364.26         1.2065
   364.40         1.1905
   364.54         1.1699
   364.68         1.1491
   364.82         1.1326
   364.96         1.1232
   365.10         1.1223
   365.24         1.1308
   365.38         1.1487
   365.52         1.1742
   365.66         1.2044
   365.80         1.2361
   365.94         1.2663
   366.08         1.2924
   366.22         1.3127
   366.36         1.3267
   366.50         1.3341
   366.64         1.3352
   366.78         1.3302
   366.92         1.3198
   367.06         1.3047
   367.20         1.2864
   367.34         1.2656
   367.48         1.2427
   367.62         1.2190
   367.76         1.1967
   367.90         1.1791
   368.04         1.1687
   368.18         1.1674
   368.32         1.1751
   368.46         1.1903
   368.60         1.2114
   368.74         1.2378
   368.88         1.2687
   369.02         1.3021
   369.16         1.3342
   369.30         1.3600
   369.44         1.3749
   369.58         1.3762
   369.72         1.3637
   369.86         1.3388
   370.00         1.3050
   370.14         1.2672
   370.28         1.2311
   370.42         1.2015
   370.56         1.1808
   370.70         1.1680
   370.84         1.1602
   370.98         1.1540
   371.12         1.1462
   371.26         1.1352
   371.40         1.1204
   371.54         1.1011
   371.68         1.0767
   371.82         1.0479
   371.96         1.0169
   372.10         0.9868
   372.24         0.9604
   372.38         0.9393
   372.52         0.9240
   372.66         0.9136
   372.80         0.9062
   372.94         0.8993
   373.08         0.8912
   373.22         0.8803
   373.36         0.8657
   373.50         0.8476
   373.64         0.8272
   373.78         0.8067
   373.92         0.7893
   374.06         0.7781
   374.20         0.7758
   374.34         0.7838
   374.48         0.8008
   374.62         0.8242
   374.76         0.8514
   374.90         0.8802
   375.04         0.9100
   375.18         0.9403
   375.32         0.9704
   375.46         0.9996
   375.60         1.0282
   375.74         1.0561
   375.88         1.0833
   376.02         1.1101
   376.16         1.1375
   376.30         1.1672
   376.44         1.2002
   376.58         1.2371
   376.72         1.2771
   376.86         1.3187
   377.00         1.3596
   377.14         1.3978
   377.28         1.4323
   377.42         1.4625
   377.56         1.4876
   377.70         1.5060
   377.84         1.5166
   377.98         1.5189
   378.12         1.5138
   378.26         1.5024
   378.40         1.4851
   378.54         1.4624
   378.68         1.4352
   378.82         1.4062
   378.96         1.3785
   379.10         1.3551
   379.24         1.3387
   379.38         1.3309
   379.52         1.3327
   379.66         1.3438
   379.80         1.3629
   379.94         1.3883
   380.08         1.4172
   380.22         1.4464
   380.36         1.4720
   380.50         1.4899
   380.64         1.4969
   380.78         1.4907
   380.92         1.4703
   381.06         1.4366
   381.20         1.3923
   381.34         1.3414
   381.48         1.2875
   381.62         1.2335
   381.76         1.1818
   381.90         1.1345
   382.04         1.0931
   382.18         1.0594
   382.32         1.0350
   382.46         1.0205
   382.60         1.0154
   382.74         1.0184
   382.88         1.0277
   383.02         1.0420
   383.16         1.0611
   383.30         1.0853
   383.44         1.1150
   383.58         1.1492
   383.72         1.1860
   383.86         1.2229
   384.00         1.2569
   384.14         1.2853
   384.28         1.3061
   384.42         1.3176
   384.56         1.3183
   384.70         1.3076
   384.84         1.2867
   384.98         1.2583
   385.12         1.2256
   385.26         1.1922
   385.40         1.1621
   385.54         1.1400
   385.68         1.1296
   385.82         1.1318
   385.96         1.1448
   386.10         1.1650
   386.24         1.1890
   386.38         1.2144
   386.52         1.2386
   386.66         1.2593
   386.80         1.2752
   386.94         1.2861
   387.08         1.2925
   387.22         1.2953
   387.36         1.2956
   387.50         1.2942
   387.64         1.2927
   387.78         1.2930
   387.92         1.2961
   388.06         1.3026
   388.20         1.3118
   388.34         1.3215
   388.48         1.3300
   388.62         1.3368
   388.76         1.3424
   388.90         1.3478
   389.04         1.3528
   389.18         1.3572
   389.32         1.3612
   389.46         1.3657
   389.60         1.3716
   389.74         1.3788
   389.88         1.3870
   390.02         1.3965
   390.16         1.4088
   390.30         1.4260
   390.44         1.4495
   390.58         1.4785
   390.72         1.5109
   390.86         1.5436
   391.00         1.5735
   391.14         1.5979
   391.28         1.6146
   391.42         1.6224
   391.56         1.6208
   391.70         1.6086
   391.84         1.5852
   391.98         1.5503
   392.12         1.5047
   392.26         1.4506
   392.40         1.3907
   392.54         1.3285
   392.68         1.2680
   392.82         1.2133
   392.96         1.1675
   393.10         1.1316
   393.24         1.1052
   393.38         1.0880
   393.52         1.0802
   393.66         1.0824
   393.80         1.0958
   393.94         1.1208
   394.08         1.1569
   394.22         1.2015
   394.36         1.2504
   394.50         1.2994
   394.64         1.3439
   394.78         1.3796
   394.92         1.4026
   395.06         1.4100
   395.20         1.4007
   395.34         1.3757
   395.48         1.3371
   395.62         1.2884
   395.76         1.2350
   395.90         1.1835
   396.04         1.1407
   396.18         1.1121
   396.32         1.1022
   396.46         1.1136
   396.60         1.1459
   396.74         1.1964
   396.88         1.2605
   397.02         1.3341
   397.16         1.4134
   397.30         1.4953
   397.44         1.5769
   397.58         1.6559
   397.72         1.7308
   397.86         1.7999
   398.00         1.8622
   398.14         1.9169
   398.28         1.9634
   398.42         2.0014
   398.56         2.0306
   398.70         2.0518
   398.84         2.0667
   398.98         2.0778
   399.12         2.0874
   399.26         2.0969
   399.40         2.1076
   399.54         2.1201
   399.68         2.1352
   399.82         2.1533
   399.96         2.1749
   400.10         2.2001
   400.24         2.2285
   400.38         2.2593
   400.52         2.2907
   400.66         2.3207
   400.80         2.3463
   400.94         2.3653
   401.08         2.3763
   401.22         2.3801
   401.36         2.3783
   401.50         2.3730
   401.64         2.3652
   401.78         2.3544
   401.92         2.3391
   402.06         2.3184
   402.20         2.2935
   402.34         2.2683
   402.48         2.2480
   402.62         2.2372
   402.76         2.2391
   402.90         2.2546
   403.04         2.2821
   403.18         2.3182
   403.32         2.3583
   403.46         2.3982
   403.60         2.4347
   403.74         2.4661
   403.88         2.4916
   404.02         2.5113
   404.16         2.5249
   404.30         2.5320
   404.44         2.5328
   404.58         2.5303
   404.72         2.5285
   404.86         2.5307
   405.00         2.5383
   405.14         2.5496
   405.28         2.5614
   405.42         2.5698
   405.56         2.5717
   405.70         2.5655
   405.84         2.5516
   405.98         2.5322
   406.12         2.5110
   406.26         2.4916
   406.40         2.4762
   406.54         2.4655
   406.68         2.4589
   406.82         2.4555
   406.96         2.4545
   407.10         2.4561
   407.24         2.4609
   407.38         2.4694
   407.52         2.4821
   407.66         2.4999
   407.80         2.5235
   407.94         2.5530
   408.08         2.5873
   408.22         2.6240
   408.36         2.6598
   408.50         2.6910
   408.64         2.7139
   408.78         2.7261
   408.92         2.7257
   409.06         2.7118
   409.20         2.6865
   409.34         2.6537
   409.48         2.6185
   409.62         2.5860
   409.76         2.5604
   409.90         2.5440
   410.04         2.5376
   410.18         2.5404
   410.32         2.5506
   410.46         2.5658
   410.60         2.5835
   410.74         2.6014
   410.88         2.6183
   411.02         2.6334
   411.16         2.6469
   411.30         2.6592
   411.44         2.6706
   411.58         2.6813
   411.72         2.6916
   411.86         2.7013
   412.00         2.7094
   412.14         2.7142
   412.28         2.7143
   412.42         2.7089
   412.56         2.6991
   412.70         2.6871
   412.84         2.6748
   412.98         2.6633
   413.12         2.6528
   413.26         2.6429
   413.40         2.6343
   413.54         2.6278
   413.68         2.6239
   413.82         2.6227
   413.96         2.6247
   414.10         2.6300
   414.24         2.6390
   414.38         2.6524
   414.52         2.6707
   414.66         2.6950
   414.80         2.7267
   414.94         2.7666
   415.08         2.8133
   415.22         2.8638
   415.36         2.9135
   415.50         2.9575
   415.64         2.9924
   415.78         3.0167
   415.92         3.0296
   416.06         3.0308
   416.20         3.0206
   416.34         3.0004
   416.48         2.9731
   416.62         2.9429
   416.76         2.9144
   416.90         2.8914
   417.04         2.8759
   417.18         2.8692
   417.32         2.8713
   417.46         2.8802
   417.60         2.8932
   417.74         2.9075
   417.88         2.9207
   418.02         2.9311
   418.16         2.9378
   418.30         2.9400
   418.44         2.9370
   418.58         2.9280
   418.72         2.9131
   418.86         2.8935
   419.00         2.8709
   419.14         2.8472
   419.28         2.8237
   419.42         2.8010
   419.56         2.7793
   419.70         2.7592
   419.84         2.7421
   419.98         2.7289
   420.12         2.7195
   420.26         2.7132
   420.40         2.7086
   420.54         2.7030
   420.68         2.6935
   420.82         2.6762
   420.96         2.6471
   421.10         2.6013
   421.24         2.5347
   421.38         2.4449
   421.52         2.3321
   421.66         2.2000
   421.80         2.0548
   421.94         1.9046
   422.08         1.7589
   422.22         1.6278
   422.36         1.5209
   422.50         1.4462
   422.64         1.4090
   422.78         1.4107
   422.92         1.4498
   423.06         1.5218
   423.20         1.6200
   423.34         1.7361
   423.48         1.8596
   423.62         1.9801
   423.76         2.0893
   423.90         2.1811
   424.04         2.2520
   424.18         2.3003
   424.32         2.3270
   424.46         2.3353
   424.60         2.3297
   424.74         2.3155
   424.88         2.2983
   425.02         2.2832
   425.16         2.2749
   425.30         2.2772
   425.44         2.2923
   425.58         2.3213
   425.72         2.3632
   425.86         2.4135
   426.00         2.4650
   426.14         2.5098
   426.28         2.5417
   426.42         2.5574
   426.56         2.5568
   426.70         2.5422
   426.84         2.5186
   426.98         2.4921
   427.12         2.4691
   427.26         2.4543
   427.40         2.4504
   427.54         2.4570
   427.68         2.4712
   427.82         2.4889
   427.96         2.5060
   428.10         2.5198
   428.24         2.5287
   428.38         2.5321
   428.52         2.5300
   428.66         2.5235
   428.80         2.5154
   428.94         2.5092
   429.08         2.5080
   429.22         2.5135
   429.36         2.5248
   429.50         2.5392
   429.64         2.5542
   429.78         2.5694
   429.92         2.5854
   430.06         2.6037
   430.20         2.6259
   430.34         2.6545
   430.48         2.6920
   430.62         2.7403
   430.76         2.7999
   430.90         2.8688
   431.04         2.9428
   431.18         3.0166
   431.32         3.0850
   431.46         3.1441
   431.60         3.1917
   431.74         3.2286
   431.88         3.2568
   432.02         3.2798
   432.16         3.3021
   432.30         3.3281
   432.44         3.3610
   432.58         3.4003
   432.72         3.4435
   432.86         3.4869
   433.00         3.5274
   433.14         3.5626
   433.28         3.5905
   433.42         3.6103
   433.56         3.6225
   433.70         3.6275
   433.84         3.6259
   433.98         3.6179
   434.12         3.6046
   434.26         3.5879
   434.40         3.5703
   434.54         3.5539
   434.68         3.5398
   434.82         3.5282
   434.96         3.5193
   435.10         3.5136
   435.24         3.5124
   435.38         3.5172
   435.52         3.5295
   435.66         3.5503
   435.80         3.5798
   435.94         3.6168
   436.08         3.6594
   436.22         3.7038
   436.36         3.7450
   436.50         3.7786
   436.64         3.8019
   436.78         3.8135
   436.92         3.8125
   437.06         3.7982
   437.20         3.7697
   437.34         3.7279
   437.48         3.6759
   437.62         3.6187
   437.76         3.5624
   437.90         3.5132
   438.04         3.4772
   438.18         3.4590
   438.32         3.4607
   438.46         3.4829
   438.60         3.5248
   438.74         3.5841
   438.88         3.6570
   439.02         3.7370
   439.16         3.8155
   439.30         3.8834
   439.44         3.9327
   439.58         3.9589
   439.72         3.9622
   439.86         3.9468
   440.00         3.9193
   440.14         3.8859
   440.28         3.8523
   440.42         3.8245
   440.56         3.8084
   440.70         3.8086
   440.84         3.8276
   440.98         3.8653
   441.12         3.9188
   441.26         3.9821
   441.40         4.0468
   441.54         4.1050
   441.68         4.1511
   441.82         4.1831
   441.96         4.2015
   442.10         4.2073
   442.24         4.2014
   442.38         4.1852
   442.52         4.1618
   442.66         4.1360
   442.80         4.1137
   442.94         4.1006
   443.08         4.1017
   443.22         4.1196
   443.36         4.1548
   443.50         4.2052
   443.64         4.2668
   443.78         4.3351
   443.92         4.4052
   444.06         4.4709
   444.20         4.5251
   444.34         4.5602
   444.48         4.5698
   444.62         4.5500
   444.76         4.5007
   444.90         4.4276
   445.04         4.3416
   445.18         4.2563
   445.32         4.1842
   445.46         4.1351
   445.60         4.1156
   445.74         4.1301
   445.88         4.1805
   446.02         4.2655
   446.16         4.3796
   446.30         4.5146
   446.44         4.6614
   446.58         4.8100
   446.72         4.9498
   446.86         5.0733
   447.00         5.1773
   447.14         5.2614
   447.28         5.3267
   447.42         5.3752
   447.56         5.4090
   447.70         5.4303
   447.84         5.4418
   447.98         5.4457
   448.12         5.4441
   448.26         5.4384
   448.40         5.4307
   448.54         5.4234
   448.68         5.4191
   448.82         5.4204
   448.96         5.4292
   449.10         5.4473
   449.24         5.4748
   449.38         5.5118
   449.52         5.5577
   449.66         5.6104
   449.80         5.6662
   449.94         5.7201
   450.08         5.7676
   450.22         5.8049
   450.36         5.8295
   450.50         5.8405
   450.64         5.8378
   450.78         5.8225
   450.92         5.7971
   451.06         5.7655
   451.20         5.7315
   451.34         5.6978
   451.48         5.6645
   451.62         5.6308
   451.76         5.5961
   451.90         5.5587
   452.04         5.5148
   452.18         5.4596
   452.32         5.3917
   452.46         5.3150
   452.60         5.2371
   452.74         5.1665
   452.88         5.1107
   453.02         5.0756
   453.16         5.0649
   453.30         5.0794
   453.44         5.1171
   453.58         5.1736
   453.72         5.2436
   453.86         5.3208
   454.00         5.3980
   454.14         5.4694
   454.28         5.5322
   454.42         5.5860
   454.56         5.6318
   454.70         5.6726
   454.84         5.7142
   454.98         5.7631
   455.12         5.8236
   455.26         5.8968
   455.40         5.9805
   455.54         6.0711
   455.68         6.1636
   455.82         6.2524
   455.96         6.3329
   456.10         6.4022
   456.24         6.4585
   456.38         6.5004
   456.52         6.5263
   456.66         6.5356
   456.80         6.5296
   456.94         6.5113
   457.08         6.4840
   457.22         6.4499
   457.36         6.4108
   457.50         6.3695
   457.64         6.3303
   457.78         6.2974
   457.92         6.2738
   458.06         6.2608
   458.20         6.2587
   458.34         6.2676
   458.48         6.2875
   458.62         6.3177
   458.76         6.3555
   458.90         6.3975
   459.04         6.4402
   459.18         6.4795
   459.32         6.5119
   459.46         6.5370
   459.60         6.5566
   459.74         6.5729
   459.88         6.5877
   460.02         6.6036
   460.16         6.6226
   460.30         6.6451
   460.44         6.6698
   460.58         6.6955
   460.72         6.7219
   460.86         6.7492
   461.00         6.7762
   461.14         6.8002
   461.28         6.8183
   461.42         6.8292
   461.56         6.8332
   461.70         6.8314
   461.84         6.8252
   461.98         6.8166
   462.12         6.8071
   462.26         6.7973
   462.40         6.7857
   462.54         6.7700
   462.68         6.7483
   462.82         6.7205
   462.96         6.6886
   463.10         6.6553
   463.24         6.6234
   463.38         6.5964
   463.52         6.5797
   463.66         6.5783
   463.80         6.5928
   463.94         6.6204
   464.08         6.6556
   464.22         6.6922
   464.36         6.7252
   464.50         6.7523
   464.64         6.7743
   464.78         6.7939
   464.92         6.8145
   465.06         6.8391
   465.20         6.8691
   465.34         6.9044
   465.48         6.9419
   465.62         6.9778
   465.76         7.0085
   465.90         7.0317
   466.04         7.0466
   466.18         7.0518
   466.32         7.0449
   466.46         7.0237
   466.60         6.9902
   466.74         6.9496
   466.88         6.9084
   467.02         6.8728
   467.16         6.8473
   467.30         6.8324
   467.44         6.8254
   467.58         6.8217
   467.72         6.8166
   467.86         6.8063
   468.00         6.7892
   468.14         6.7663
   468.28         6.7414
   468.42         6.7188
   468.56         6.7016
   468.70         6.6913
   468.84         6.6876
   468.98         6.6881
   469.12         6.6896
   469.26         6.6901
   469.40         6.6893
   469.54         6.6874
   469.68         6.6848
   469.82         6.6820
   469.96         6.6799
   470.10         6.6806
   470.24         6.6863
   470.38         6.6981
   470.52         6.7169
   470.66         6.7433
   470.80         6.7762
   470.94         6.8128
   471.08         6.8496
   471.22         6.8827
   471.36         6.9081
   471.50         6.9216
   471.64         6.9217
   471.78         6.9095
   471.92         6.8874
   472.06         6.8577
   472.20         6.8219
   472.34         6.7820
   472.48         6.7409
   472.62         6.7019
   472.76         6.6682
   472.90         6.6417
   473.04         6.6233
   473.18         6.6131
   473.32         6.6110
   473.46         6.6160
   473.60         6.6264
   473.74         6.6396
   473.88         6.6522
   474.02         6.6606
   474.16         6.6625
   474.30         6.6580
   474.44         6.6473
   474.58         6.6301
   474.72         6.6058
   474.86         6.5737
   475.00         6.5336
   475.14         6.4859
   475.28         6.4317
   475.42         6.3716
   475.56         6.3069
   475.70         6.2386
   475.84         6.1677
   475.98         6.0948
   476.12         6.0199
   476.26         5.9420
   476.40         5.8605
   476.54         5.7756
   476.68         5.6888
   476.82         5.6021
   476.96         5.5171
   477.10         5.4346
   477.24         5.3557
   477.38         5.2820
   477.52         5.2160
   477.66         5.1607
   477.80         5.1192
   477.94         5.0951
   478.08         5.0913
   478.22         5.1097
   478.36         5.1491
   478.50         5.2057
   478.64         5.2747
   478.78         5.3512
   478.92         5.4307
   479.06         5.5099
   479.20         5.5866
   479.34         5.6597
   479.48         5.7281
   479.62         5.7907
   479.76         5.8467
   479.90         5.8955
   480.04         5.9365
   480.18         5.9700
   480.32         5.9971
   480.46         6.0192
   480.60         6.0369
   480.74         6.0491
   480.88         6.0539
   481.02         6.0496
   481.16         6.0353
   481.30         6.0123
   481.44         5.9835
   481.58         5.9530
   481.72         5.9239
   481.86         5.8979
   482.00         5.8759
   482.14         5.8587
   482.28         5.8469
   482.42         5.8414
   482.56         5.8435
   482.70         5.8537
   482.84         5.8715
   482.98         5.8952
   483.12         5.9228
   483.26         5.9525
   483.40         5.9832
   483.54         6.0147
   483.68         6.0472
   483.82         6.0806
   483.96         6.1155
   484.10         6.1519
   484.24         6.1890
   484.38         6.2257
   484.52         6.2611
   484.66         6.2944
   484.80         6.3248
   484.94         6.3510
   485.08         6.3721
   485.22         6.3869
   485.36         6.3954
   485.50         6.3984
   485.64         6.3973
   485.78         6.3930
   485.92         6.3858
   486.06         6.3760
   486.20         6.3641
   486.34         6.3505
   486.48         6.3357
   486.62         6.3206
   486.76         6.3067
   486.90         6.2948
   487.04         6.2852
   487.18         6.2784
   487.32         6.2753
   487.46         6.2762
   487.60         6.2805
   487.74         6.2877
   487.88         6.2978
   488.02         6.3122
   488.16         6.3322
   488.30         6.3586
   488.44         6.3919
   488.58         6.4333
   488.72         6.4829
   488.86         6.5390
   489.00         6.5997
   489.14         6.6629
   489.28         6.7271
   489.42         6.7906
   489.56         6.8516
   489.70         6.9084
   489.84         6.9598
   489.98         7.0048
   490.12         7.0427
   490.26         7.0740
   490.40         7.0999
   490.54         7.1219
   490.68         7.1398
   490.82         7.1508
   490.96         7.1523
   491.10         7.1439
   491.24         7.1271
   491.38         7.1047
   491.52         7.0821
   491.66         7.0656
   491.80         7.0600
   491.94         7.0673
   492.08         7.0869
   492.22         7.1163
   492.36         7.1519
   492.50         7.1901
   492.64         7.2264
   492.78         7.2565
   492.92         7.2765
   493.06         7.2842
   493.20         7.2794
   493.34         7.2637
   493.48         7.2411
   493.62         7.2183
   493.76         7.2015
   493.90         7.1953
   494.04         7.2017
   494.18         7.2196
   494.32         7.2430
   494.46         7.2611
   494.60         7.2630
   494.74         7.2422
   494.88         7.1968
   495.02         7.1270
   495.16         7.0344
   495.30         6.9239
   495.44         6.8034
   495.58         6.6818
   495.72         6.5675
   495.86         6.4678
   496.00         6.3889
   496.14         6.3359
   496.28         6.3116
   496.42         6.3148
   496.56         6.3401
   496.70         6.3793
   496.84         6.4224
   496.98         6.4584
   497.12         6.4790
   497.26         6.4808
   497.40         6.4652
   497.54         6.4356
   497.68         6.3949
   497.82         6.3461
   497.96         6.2931
   498.10         6.2402
   498.24         6.1921
   498.38         6.1529
   498.52         6.1266
   498.66         6.1141
   498.80         6.1124
   498.94         6.1158
   499.08         6.1184
   499.22         6.1155
   499.36         6.1037
   499.50         6.0812
   499.64         6.0478
   499.78         6.0064
   499.92         5.9615
   500.06         5.9161
   500.20         5.8702
   500.34         5.8227
   500.48         5.7749
   500.62         5.7311
   500.76         5.6966
   500.90         5.6739
   501.04         5.6623
   501.18         5.6596
   501.32         5.6631
   501.46         5.6714
   501.60         5.6848
   501.74         5.7040
   501.88         5.7286
   502.02         5.7579
   502.16         5.7898
   502.30         5.8218
   502.44         5.8508
   502.58         5.8732
   502.72         5.8850
   502.86         5.8842
   503.00         5.8717
   503.14         5.8498
   503.28         5.8218
   503.42         5.7908
   503.56         5.7600
   503.70         5.7324
   503.84         5.7106
   503.98         5.6963
   504.12         5.6906
   504.26         5.6923
   504.40         5.6989
   504.54         5.7079
   504.68         5.7175
   504.82         5.7264
   504.96         5.7332
   505.10         5.7362
   505.24         5.7335
   505.38         5.7240
   505.52         5.7092
   505.66         5.6916
   505.80         5.6733
   505.94         5.6554
   506.08         5.6383
   506.22         5.6222
   506.36         5.6070
   506.50         5.5923
   506.64         5.5780
   506.78         5.5640
   506.92         5.5501
   507.06         5.5372
   507.20         5.5268
   507.34         5.5202
   507.48         5.5174
   507.62         5.5171
   507.76         5.5182
   507.90         5.5210
   508.04         5.5274
   508.18         5.5389
   508.32         5.5552
   508.46         5.5749
   508.60         5.5966
   508.74         5.6186
   508.88         5.6372
   509.02         5.6469
   509.16         5.6435
   509.30         5.6256
   509.44         5.5938
   509.58         5.5501
   509.72         5.4986
   509.86         5.4443
   510.00         5.3916
   510.14         5.3445
   510.28         5.3074
   510.42         5.2843
   510.56         5.2783
   510.70         5.2898
   510.84         5.3166
   510.98         5.3538
   511.12         5.3954
   511.26         5.4345
   511.40         5.4642
   511.54         5.4798
   511.68         5.4795
   511.82         5.4648
   511.96         5.4398
   512.10         5.4097
   512.24         5.3809
   512.38         5.3594
   512.52         5.3500
   512.66         5.3558
   512.80         5.3785
   512.94         5.4182
   513.08         5.4717
   513.22         5.5325
   513.36         5.5927
   513.50         5.6460
   513.64         5.6877
   513.78         5.7146
   513.92         5.7246
   514.06         5.7170
   514.20         5.6924
   514.34         5.6543
   514.48         5.6096
   514.62         5.5666
   514.76         5.5330
   514.90         5.5146
   515.04         5.5149
   515.18         5.5342
   515.32         5.5683
   515.46         5.6089
   515.60         5.6454
   515.74         5.6665
   515.88         5.6615
   516.02         5.6233
   516.16         5.5490
   516.30         5.4404
   516.44         5.3034
   516.58         5.1475
   516.72         4.9850
   516.86         4.8290
   517.00         4.6914
   517.14         4.5817
   517.28         4.5065
   517.42         4.4702
   517.56         4.4750
   517.70         4.5196
   517.84         4.5991
   517.98         4.7056
   518.12         4.8312
   518.26         4.9700
   518.40         5.1177
   518.54         5.2700
   518.68         5.4232
   518.82         5.5729
   518.96         5.7128
   519.10         5.8329
   519.24         5.9209
   519.38         5.9658
   519.52         5.9603
   519.66         5.9042
   519.80         5.8053
   519.94         5.6799
   520.08         5.5484
   520.22         5.4309
   520.36         5.3451
   520.50         5.3055
   520.64         5.3240
   520.78         5.4077
   520.92         5.5572
   521.06         5.7644
   521.20         6.0128
   521.34         6.2804
   521.48         6.5443
   521.62         6.7840
   521.76         6.9845
   521.90         7.1381
   522.04         7.2456
   522.18         7.3144
   522.32         7.3571
   522.46         7.3885
   522.60         7.4219
   522.74         7.4652
   522.88         7.5212
   523.02         7.5896
   523.16         7.6681
   523.30         7.7507
   523.44         7.8289
   523.58         7.8935
   523.72         7.9377
   523.86         7.9573
   524.00         7.9531
   524.14         7.9302
   524.28         7.8957
   524.42         7.8574
   524.56         7.8213
   524.70         7.7914
   524.84         7.7686
   524.98         7.7500
   525.12         7.7295
   525.26         7.6996
   525.40         7.6537
   525.54         7.5868
   525.68         7.4961
   525.82         7.3816
   525.96         7.2485
   526.10         7.1078
   526.24         6.9740
   526.38         6.8622
   526.52         6.7859
   526.66         6.7554
   526.80         6.7753
   526.94         6.8438
   527.08         6.9533
   527.22         7.0925
   527.36         7.2492
   527.50         7.4117
   527.64         7.5698
   527.78         7.7154
   527.92         7.8435
   528.06         7.9514
   528.20         8.0377
   528.34         8.1008
   528.48         8.1396
   528.62         8.1547
   528.76         8.1478
   528.90         8.1232
   529.04         8.0873
   529.18         8.0475
   529.32         8.0098
   529.46         7.9785
   529.60         7.9584
   529.74         7.9543
   529.88         7.9700
   530.02         8.0070
   530.16         8.0633
   530.30         8.1341
   530.44         8.2130
   530.58         8.2927
   530.72         8.3665
   530.86         8.4275
   531.00         8.4707
   531.14         8.4935
   531.28         8.4966
   531.42         8.4799
   531.56         8.4410
   531.70         8.3778
   531.84         8.2908
   531.98         8.1849
   532.12         8.0691
   532.26         7.9545
   532.40         7.8517
   532.54         7.7684
   532.68         7.7094
   532.82         7.6768
   532.96         7.6711
   533.10         7.6901
   533.24         7.7293
   533.38         7.7819
   533.52         7.8402
   533.66         7.8971
   533.80         7.9481
   533.94         7.9917
   534.08         8.0290
   534.22         8.0643
   534.36         8.1053
   534.50         8.1593
   534.64         8.2302
   534.78         8.3167
   534.92         8.4139
   535.06         8.5149
   535.20         8.6126
   535.34         8.7017
   535.48         8.7774
   535.62         8.8349
   535.76         8.8680
   535.90         8.8714
   536.04         8.8450
   536.18         8.7946
   536.32         8.7309
   536.46         8.6653
   536.60         8.6085
   536.74         8.5694
   536.88         8.5544
   537.02         8.5659
   537.16         8.6027
   537.30         8.6611
   537.44         8.7362
   537.58         8.8225
   537.72         8.9130
   537.86         8.9997
   538.00         9.0743
   538.14         9.1290
   538.28         9.1571
   538.42         9.1552
   538.56         9.1263
   538.70         9.0785
   538.84         9.0215
   538.98         8.9624
   539.12         8.9047
   539.26         8.8489
   539.40         8.7944
   539.54         8.7406
   539.68         8.6871
   539.82         8.6350
   539.96         8.5878
   540.10         8.5503
   540.24         8.5266
   540.38         8.5198
   540.52         8.5323
   540.66         8.5656
   540.80         8.6191
   540.94         8.6909
   541.08         8.7785
   541.22         8.8793
   541.36         8.9885
   541.50         9.0975
   541.64         9.1934
   541.78         9.2639
   541.92         9.3013
   542.06         9.3037
   542.20         9.2732
   542.34         9.2156
   542.48         9.1408
   542.62         9.0613
   542.76         8.9886
   542.90         8.9315
   543.04         8.8960
   543.18         8.8838
   543.32         8.8913
   543.46         8.9106
   543.60         8.9329
   543.74         8.9504
   543.88         8.9560
   544.02         8.9428
   544.16         8.9048
   544.30         8.8395
   544.44         8.7508
   544.58         8.6476
   544.72         8.5411
   544.86         8.4423
   545.00         8.3606
   545.14         8.3031
   545.28         8.2740
   545.42         8.2747
   545.56         8.3030
   545.70         8.3527
   545.84         8.4160
   545.98         8.4851
   546.12         8.5547
   546.26         8.6212
   546.40         8.6817
   546.54         8.7330
   546.68         8.7729
   546.82         8.8011
   546.96         8.8194
   547.10         8.8312
   547.24         8.8407
   547.38         8.8508
   547.52         8.8631
   547.66         8.8794
   547.80         8.9021
   547.94         8.9339
   548.08         8.9757
   548.22         9.0251
   548.36         9.0778
   548.50         9.1283
   548.64         9.1708
   548.78         9.2001
   548.92         9.2122
   549.06         9.2056
   549.20         9.1810
   549.34         9.1406
   549.48         9.0886
   549.62         9.0309
   549.76         8.9734
   549.90         8.9200
   550.04         8.8722
   550.18         8.8302
   550.32         8.7947
   550.46         8.7676
   550.60         8.7502
   550.74         8.7431
   550.88         8.7465
   551.02         8.7613
   551.16         8.7886
   551.30         8.8294
   551.44         8.8827
   551.58         8.9463
   551.72         9.0172
   551.86         9.0918
   552.00         9.1666
   552.14         9.2381
   552.28         9.3023
   552.42         9.3556
   552.56         9.3951
   552.70         9.4213
   552.84         9.4375
   552.98         9.4493
   553.12         9.4617
   553.26         9.4773
   553.40         9.4966
   553.54         9.5193
   553.68         9.5445
   553.82         9.5712
   553.96         9.5983
   554.10         9.6251
   554.24         9.6508
   554.38         9.6747
   554.52         9.6961
   554.66         9.7149
   554.80         9.7313
   554.94         9.7449
   555.08         9.7545
   555.22         9.7580
   555.36         9.7538
   555.50         9.7405
   555.64         9.7168
   555.78         9.6826
   555.92         9.6393
   556.06         9.5898
   556.20         9.5383
   556.34         9.4893
   556.48         9.4476
   556.62         9.4171
   556.76         9.4010
   556.90         9.4000
   557.04         9.4126
   557.18         9.4364
   557.32         9.4674
   557.46         9.4987
   557.60         9.5205
   557.74         9.5241
   557.88         9.5044
   558.02         9.4604
   558.16         9.3937
   558.30         9.3081
   558.44         9.2088
   558.58         9.1011
   558.72         8.9906
   558.86         8.8829
   559.00         8.7845
   559.14         8.7010
   559.28         8.6370
   559.42         8.5951
   559.56         8.5761
   559.70         8.5805
   559.84         8.6092
   559.98         8.6612
   560.12         8.7327
   560.26         8.8180
   560.40         8.9103
   560.54         9.0028
   560.68         9.0879
   560.82         9.1580
   560.96         9.2084
   561.10         9.2378
   561.24         9.2484
   561.38         9.2453
   561.52         9.2352
   561.66         9.2243
   561.80         9.2174
   561.94         9.2175
   562.08         9.2273
   562.22         9.2486
   562.36         9.2815
   562.50         9.3234
   562.64         9.3694
   562.78         9.4139
   562.92         9.4528
   563.06         9.4842
   563.20         9.5084
   563.34         9.5268
   563.48         9.5419
   563.62         9.5565
   563.76         9.5718
   563.90         9.5881
   564.04         9.6052
   564.18         9.6233
   564.32         9.6432
   564.46         9.6651
   564.60         9.6888
   564.74         9.7138
   564.88         9.7384
   565.02         9.7596
   565.16         9.7742
   565.30         9.7815
   565.44         9.7827
   565.58         9.7788
   565.72         9.7702
   565.86         9.7578
   566.00         9.7432
   566.14         9.7288
   566.28         9.7167
   566.42         9.7090
   566.56         9.7085
   566.70         9.7180
   566.84         9.7382
   566.98         9.7666
   567.12         9.7985
   567.26         9.8306
   567.40         9.8615
   567.54         9.8891
   567.68         9.9105
   567.82         9.9242
   567.96         9.9311
   568.10         9.9329
   568.24         9.9319
   568.38         9.9307
   568.52         9.9315
   568.66         9.9361
   568.80         9.9459
   568.94         9.9609
   569.08         9.9798
   569.22         10.0004
   569.36         10.0193
   569.50         10.0339
   569.64         10.0425
   569.78         10.0446
   569.92         10.0404
   570.06         10.0302
   570.20         10.0151
   570.34         9.9983
   570.48         9.9845
   570.62         9.9776
   570.76         9.9804
   570.90         9.9940
   571.04         10.0185
   571.18         10.0524
   571.32         10.0939
   571.46         10.1398
   571.60         10.1866
   571.74         10.2313
   571.88         10.2718
   572.02         10.3068
   572.16         10.3364
   572.30         10.3609
   572.44         10.3809
   572.58         10.3979
   572.72         10.4133
   572.86         10.4277
   573.00         10.4412
   573.14         10.4543
   573.28         10.4679
   573.42         10.4831
   573.56         10.4997
   573.70         10.5169
   573.84         10.5346
   573.98         10.5535
   574.12         10.5739
   574.26         10.5966
   574.40         10.6227
   574.54         10.6529
   574.68         10.6868
   574.82         10.7224
   574.96         10.7549
   575.10         10.7788
   575.24         10.7906
   575.38         10.7908
   575.52         10.7822
   575.66         10.7689
   575.80         10.7545
   575.94         10.7418
   576.08         10.7321
   576.22         10.7264
   576.36         10.7248
   576.50         10.7267
   576.64         10.7309
   576.78         10.7360
   576.92         10.7415
   577.06         10.7465
   577.20         10.7492
   577.34         10.7473
   577.48         10.7395
   577.62         10.7267
   577.76         10.7106
   577.90         10.6937
   578.04         10.6783
   578.18         10.6658
   578.32         10.6573
   578.46         10.6538
   578.60         10.6562
   578.74         10.6654
   578.88         10.6829
   579.02         10.7100
   579.16         10.7473
   579.30         10.7934
   579.44         10.8453
   579.58         10.8993
   579.72         10.9517
   579.86         10.9993
   580.00         11.0400
   580.14         11.0711
   580.28         11.0902
   580.42         11.0963
   580.56         11.0903
   580.70         11.0746
   580.84         11.0519
   580.98         11.0246
   581.12         10.9949
   581.26         10.9663
   581.40         10.9421
   581.54         10.9246
   581.68         10.9144
   581.82         10.9114
   581.96         10.9149
   582.10         10.9244
   582.24         10.9393
   582.38         10.9581
   582.52         10.9785
   582.66         10.9972
   582.80         11.0122
   582.94         11.0229
   583.08         11.0292
   583.22         11.0308
   583.36         11.0281
   583.50         11.0213
   583.64         11.0105
   583.78         10.9951
   583.92         10.9744
   584.06         10.9475
   584.20         10.9132
   584.34         10.8696
   584.48         10.8147
   584.62         10.7486
   584.76         10.6743
   584.90         10.5960
   585.04         10.5179
   585.18         10.4434
   585.32         10.3751
   585.46         10.3151
   585.60         10.2647
   585.74         10.2237
   585.88         10.1911
   586.02         10.1651
   586.16         10.1439
   586.30         10.1247
   586.44         10.1043
   586.58         10.0781
   586.72         10.0415
   586.86         9.9889
   587.00         9.9149
   587.14         9.8146
   587.28         9.6825
   587.42         9.5099
   587.56         9.2846
   587.70         8.9960
   587.84         8.6404
   587.98         8.2232
   588.12         7.7567
   588.26         7.2571
   588.40         6.7454
   588.54         6.2480
   588.68         5.7956
   588.82         5.4193
   588.96         5.1458
   589.10         4.9946
   589.24         4.9759
   589.38         5.0896
   589.52         5.3250
   589.66         5.6626
   589.80         6.0756
   589.94         6.5329
   590.08         7.0039
   590.22         7.4624
   590.36         7.8897
   590.50         8.2736
   590.64         8.6055
   590.78         8.8803
   590.92         9.0984
   591.06         9.2675
   591.20         9.3985
   591.34         9.5006
   591.48         9.5811
   591.62         9.6460
   591.76         9.6999
   591.90         9.7460
   592.04         9.7873
   592.18         9.8269
   592.32         9.8682
   592.46         9.9129
   592.60         9.9610
   592.74         10.0114
   592.88         10.0628
   593.02         10.1139
   593.16         10.1624
   593.30         10.2062
   593.44         10.2445
   593.58         10.2770
   593.72         10.3034
   593.86         10.3227
   594.00         10.3343
   594.14         10.3396
   594.28         10.3417
   594.42         10.3429
   594.56         10.3445
   594.70         10.3488
   594.84         10.3574
   594.98         10.3698
   595.12         10.3835
   595.26         10.3957
   595.40         10.4051
   595.54         10.4112
   595.68         10.4138
   595.82         10.4126
   595.96         10.4082
   596.10         10.4012
   596.24         10.3915
   596.38         10.3787
   596.52         10.3634
   596.66         10.3477
   596.80         10.3339
   596.94         10.3239
   597.08         10.3187
   597.22         10.3188
   597.36         10.3247
   597.50         10.3354
   597.64         10.3495
   597.78         10.3669
   597.92         10.3900
   598.06         10.4213
   598.20         10.4617
   598.34         10.5102
   598.48         10.5650
   598.62         10.6236
   598.76         10.6827
   598.90         10.7379
   599.04         10.7852
   599.18         10.8222
   599.32         10.8471
   599.46         10.8586
   599.60         10.8572
   599.74         10.8452
   599.88         10.8260
   600.02         10.8033
   600.16         10.7806
   600.30         10.7614
   600.44         10.7487
   600.58         10.7435
   600.72         10.7435
   600.86         10.7449
   601.00         10.7456
   601.14         10.7449
   601.28         10.7435
   601.42         10.7424
   601.56         10.7427
   601.70         10.7456
   601.84         10.7526
   601.98         10.7657
   602.12         10.7869
   602.26         10.8172
   602.40         10.8557
   602.54         10.8991
   602.68         10.9432
   602.82         10.9845
   602.96         11.0206
   603.10         11.0506
   603.24         11.0748
   603.38         11.0947
   603.52         11.1133
   603.66         11.1339
   603.80         11.1596
   603.94         11.1923
   604.08         11.2311
   604.22         11.2735
   604.36         11.3164
   604.50         11.3579
   604.64         11.3969
   604.78         11.4319
   604.92         11.4610
   605.06         11.4831
   605.20         11.4991
   605.34         11.5104
   605.48         11.5188
   605.62         11.5256
   605.76         11.5320
   605.90         11.5394
   606.04         11.5489
   606.18         11.5616
   606.32         11.5778
   606.46         11.5968
   606.60         11.6163
   606.74         11.6329
   606.88         11.6440
   607.02         11.6483
   607.16         11.6450
   607.30         11.6342
   607.44         11.6173
   607.58         11.5964
   607.72         11.5736
   607.86         11.5508
   608.00         11.5307
   608.14         11.5173
   608.28         11.5143
   608.42         11.5221
   608.56         11.5381
   608.70         11.5557
   608.84         11.5652
   608.98         11.5566
   609.12         11.5235
   609.26         11.4649
   609.40         11.3848
   609.54         11.2908
   609.68         11.1933
   609.82         11.1029
   609.96         11.0300
   610.10         10.9834
   610.24         10.9694
   610.38         10.9902
   610.52         11.0428
   610.66         11.1183
   610.80         11.2008
   610.94         11.2699
   611.08         11.3079
   611.22         11.3050
   611.36         11.2610
   611.50         11.1841
   611.64         11.0889
   611.78         10.9932
   611.92         10.9119
   612.06         10.8559
   612.20         10.8314
   612.34         10.8392
   612.48         10.8748
   612.62         10.9312
   612.76         11.0006
   612.90         11.0747
   613.04         11.1440
   613.18         11.1991
   613.32         11.2336
   613.46         11.2465
   613.60         11.2421
   613.74         11.2287
   613.88         11.2158
   614.02         11.2102
   614.16         11.2147
   614.30         11.2278
   614.44         11.2435
   614.58         11.2525
   614.72         11.2422
   614.86         11.1977
   615.00         11.1053
   615.14         10.9600
   615.28         10.7661
   615.42         10.5335
   615.56         10.2743
   615.70         10.0020
   615.84         9.7326
   615.98         9.4842
   616.12         9.2739
   616.26         9.1169
   616.40         9.0246
   616.54         9.0034
   616.68         9.0524
   616.82         9.1630
   616.96         9.3201
   617.10         9.5043
   617.24         9.6942
   617.38         9.8698
   617.52         10.0166
   617.66         10.1274
   617.80         10.1998
   617.94         10.2333
   618.08         10.2291
   618.22         10.1923
   618.36         10.1311
   618.50         10.0555
   618.64         9.9755
   618.78         9.9013
   618.92         9.8421
   619.06         9.8048
   619.20         9.7923
   619.34         9.8043
   619.48         9.8373
   619.62         9.8852
   619.76         9.9408
   619.90         9.9964
   620.04         10.0450
   620.18         10.0791
   620.32         10.0922
   620.46         10.0810
   620.60         10.0447
   620.74         9.9848
   620.88         9.9039
   621.02         9.8057
   621.16         9.6946
   621.30         9.5763
   621.44         9.4576
   621.58         9.3445
   621.72         9.2407
   621.86         9.1484
   622.00         9.0693
   622.14         9.0055
   622.28         8.9586
   622.42         8.9275
   622.56         8.9093
   622.70         8.9007
   622.84         8.8992
   622.98         8.9041
   623.12         8.9161
   623.26         8.9358
   623.40         8.9642
   623.54         9.0017
   623.68         9.0483
   623.82         9.1026
   623.96         9.1630
   624.10         9.2273
   624.24         9.2918
   624.38         9.3514
   624.52         9.4011
   624.66         9.4381
   624.80         9.4623
   624.94         9.4763
   625.08         9.4831
   625.22         9.4856
   625.36         9.4865
   625.50         9.4894
   625.64         9.4973
   625.78         9.5132
   625.92         9.5385
   626.06         9.5720
   626.20         9.6102
   626.34         9.6489
   626.48         9.6851
   626.62         9.7162
   626.76         9.7408
   626.90         9.7572
   627.04         9.7647
   627.18         9.7658
   627.32         9.7665
   627.46         9.7742
   627.60         9.7943
   627.74         9.8283
   627.88         9.8745
   628.02         9.9311
   628.16         9.9955
   628.30         10.0635
   628.44         10.1309
   628.58         10.1937
   628.72         10.2488
   628.86         10.2945
   629.00         10.3308
   629.14         10.3586
   629.28         10.3794
   629.42         10.3956
   629.56         10.4105
   629.70         10.4293
   629.84         10.4568
   629.98         10.4965
   630.12         10.5489
   630.26         10.6111
   630.40         10.6775
   630.54         10.7426
   630.68         10.8034
   630.82         10.8591
   630.96         10.9100
   631.10         10.9566
   631.24         10.9992
   631.38         11.0373
   631.52         11.0713
   631.66         11.1017
   631.80         11.1301
   631.94         11.1586
   632.08         11.1880
   632.22         11.2179
   632.36         11.2470
   632.50         11.2743
   632.64         11.2998
   632.78         11.3244
   632.92         11.3486
   633.06         11.3729
   633.20         11.3986
   633.34         11.4277
   633.48         11.4612
   633.62         11.5001
   633.76         11.5452
   633.90         11.5958
   634.04         11.6504
   634.18         11.7059
   634.32         11.7574
   634.46         11.7984
   634.60         11.8224
   634.74         11.8240
   634.88         11.8003
   635.02         11.7520
   635.16         11.6833
   635.30         11.6003
   635.44         11.5084
   635.58         11.4132
   635.72         11.3201
   635.86         11.2354
   636.00         11.1641
   636.14         11.1088
   636.28         11.0684
   636.42         11.0383
   636.56         11.0111
   636.70         10.9788
   636.84         10.9333
   636.98         10.8691
   637.12         10.7842
   637.26         10.6809
   637.40         10.5634
   637.54         10.4382
   637.68         10.3138
   637.82         10.1991
   637.96         10.1020
   638.10         10.0288
   638.24         9.9858
   638.38         9.9777
   638.52         10.0060
   638.66         10.0679
   638.80         10.1577
   638.94         10.2679
   639.08         10.3905
   639.22         10.5177
   639.36         10.6436
   639.50         10.7647
   639.64         10.8793
   639.78         10.9858
   639.92         11.0831
   640.06         11.1711
   640.20         11.2518
   640.34         11.3271
   640.48         11.3972
   640.62         11.4612
   640.76         11.5181
   640.90         11.5669
   641.04         11.6067
   641.18         11.6370
   641.32         11.6583
   641.46         11.6724
   641.60         11.6803
   641.74         11.6825
   641.88         11.6803
   642.02         11.6762
   642.16         11.6730
   642.30         11.6723
   642.44         11.6726
   642.58         11.6704
   642.72         11.6624
   642.86         11.6480
   643.00         11.6298
   643.14         11.6128
   643.28         11.6032
   643.42         11.6063
   643.56         11.6240
   643.70         11.6549
   643.84         11.6962
   643.98         11.7446
   644.12         11.7971
   644.26         11.8510
   644.40         11.9039
   644.54         11.9545
   644.68         11.9993
   644.82         12.0317
   644.96         12.0441
   645.10         12.0324
   645.24         11.9995
   645.38         11.9549
   645.52         11.9109
   645.66         11.8775
   645.80         11.8599
   645.94         11.8599
   646.08         11.8776
   646.22         11.9126
   646.36         11.9643
   646.50         12.0327
   646.64         12.1163
   646.78         12.2114
   646.92         12.3122
   647.06         12.4122
   647.20         12.5035
   647.34         12.5791
   647.48         12.6342
   647.62         12.6687
   647.76         12.6849
   647.90         12.6833
   648.04         12.6607
   648.18         12.6126
   648.32         12.5355
   648.46         12.4301
   648.60         12.3025
   648.74         12.1630
   648.88         12.0247
   649.02         11.9016
   649.16         11.8066
   649.30         11.7493
   649.44         11.7347
   649.58         11.7642
   649.72         11.8349
   649.86         11.9397
   650.00         12.0691
   650.14         12.2121
   650.28         12.3576
   650.42         12.4943
   650.56         12.6131
   650.70         12.7098
   650.84         12.7860
   650.98         12.8471
   651.12         12.8996
   651.26         12.9491
   651.40         13.0004
   651.54         13.0561
   651.68         13.1153
   651.82         13.1749
   651.96         13.2318
   652.10         13.2830
   652.24         13.3268
   652.38         13.3616
   652.52         13.3864
   652.66         13.4011
   652.80         13.4074
   652.94         13.4083
   653.08         13.4065
   653.22         13.4041
   653.36         13.4034
   653.50         13.4066
   653.64         13.4146
   653.78         13.4270
   653.92         13.4419
   654.06         13.4554
   654.20         13.4629
   654.34         13.4609
   654.48         13.4473
   654.62         13.4210
   654.76         13.3825
   654.90         13.3324
   655.04         13.2716
   655.18         13.2035
   655.32         13.1333
   655.46         13.0677
   655.60         13.0112
   655.74         12.9656
   655.88         12.9301
   656.02         12.9028
   656.16         12.8824
   656.30         12.8678
   656.44         12.8588
   656.58         12.8563
   656.72         12.8610
   656.86         12.8732
   657.00         12.8937
   657.14         12.9229
   657.28         12.9599
   657.42         13.0027
   657.56         13.0493
   657.70         13.0980
   657.84         13.1458
   657.98         13.1875
   658.12         13.2175
   658.26         13.2315
   658.40         13.2282
   658.54         13.2093
   658.68         13.1804
   658.82         13.1500
   658.96         13.1255
   659.10         13.1109
   659.24         13.1075
   659.38         13.1139
   659.52         13.1276
   659.66         13.1459
   659.80         13.1655
   659.94         13.1831
   660.08         13.1958
   660.22         13.2020
   660.36         13.2004
   660.50         13.1909
   660.64         13.1755
   660.78         13.1571
   660.92         13.1385
   661.06         13.1218
   661.20         13.1072
   661.34         13.0953
   661.48         13.0845
   661.62         13.0714
   661.76         13.0533
   661.90         13.0298
   662.04         13.0014
   662.18         12.9686
   662.32         12.9319
   662.46         12.8932
   662.60         12.8550
   662.74         12.8191
   662.88         12.7869
   663.02         12.7592
   663.16         12.7364
   663.30         12.7180
   663.44         12.7016
   663.58         12.6845
   663.72         12.6642
   663.86         12.6392
   664.00         12.6088
   664.14         12.5725
   664.28         12.5317
   664.42         12.4881
   664.56         12.4424
   664.70         12.3942
   664.84         12.3428
   664.98         12.2889
   665.12         12.2341
   665.26         12.1799
   665.40         12.1281
   665.54         12.0811
   665.68         12.0407
   665.82         12.0086
   665.96         11.9855
   666.10         11.9720
   666.24         11.9685
   666.38         11.9734
   666.52         11.9828
   666.66         11.9913
   666.80         11.9937
   666.94         11.9859
   667.08         11.9651
   667.22         11.9300
   667.36         11.8821
   667.50         11.8252
   667.64         11.7640
   667.78         11.7034
   667.92         11.6491
   668.06         11.6058
   668.20         11.5753
   668.34         11.5577
   668.48         11.5523
   668.62         11.5569
   668.76         11.5682
   668.90         11.5837
   669.04         11.6016
   669.18         11.6223
   669.32         11.6466
   669.46         11.6747
   669.60         11.7063
   669.74         11.7390
   669.88         11.7688
   670.02         11.7916
   670.16         11.8016
   670.30         11.7925
   670.44         11.7585
   670.58         11.6975
   670.72         11.6104
   670.86         11.5011
   671.00         11.3773
   671.14         11.2489
   671.28         11.1261
   671.42         11.0198
   671.56         10.9385
   671.70         10.8857
   671.84         10.8604
   671.98         10.8588
   672.12         10.8762
   672.26         10.9071
   672.40         10.9451
   672.54         10.9844
   672.68         11.0199
   672.82         11.0477
   672.96         11.0648
   673.10         11.0707
   673.24         11.0670
   673.38         11.0559
   673.52         11.0395
   673.66         11.0196
   673.80         10.9965
   673.94         10.9698
   674.08         10.9399
   674.22         10.9074
   674.36         10.8741
   674.50         10.8435
   674.64         10.8191
   674.78         10.8037
   674.92         10.7989
   675.06         10.8051
   675.20         10.8214
   675.34         10.8452
   675.48         10.8717
   675.62         10.8956
   675.76         10.9130
   675.90         10.9214
   676.04         10.9199
   676.18         10.9096
   676.32         10.8923
   676.46         10.8699
   676.60         10.8453
   676.74         10.8214
   676.88         10.7987
   677.02         10.7761
   677.16         10.7519
   677.30         10.7242
   677.44         10.6917
   677.58         10.6539
   677.72         10.6112
   677.86         10.5650
   678.00         10.5170
   678.14         10.4696
   678.28         10.4255
   678.42         10.3872
   678.56         10.3572
   678.70         10.3378
   678.84         10.3300
   678.98         10.3325
   679.12         10.3416
   679.26         10.3528
   679.40         10.3619
   679.54         10.3660
   679.68         10.3641
   679.82         10.3568
   679.96         10.3456
   680.10         10.3325
   680.24         10.3191
   680.38         10.3067
   680.52         10.2952
   680.66         10.2835
   680.80         10.2708
   680.94         10.2566
   681.08         10.2414
   681.22         10.2259
   681.36         10.2106
   681.50         10.1953
   681.64         10.1789
   681.78         10.1607
   681.92         10.1415
   682.06         10.1225
   682.20         10.1047
   682.34         10.0881
   682.48         10.0728
   682.62         10.0589
   682.76         10.0467
   682.90         10.0355
   683.04         10.0249
   683.18         10.0144
   683.32         10.0027
   683.46         9.9883
   683.60         9.9692
   683.74         9.9438
   683.88         9.9116
   684.02         9.8730
   684.16         9.8294
   684.30         9.7826
   684.44         9.7340
   684.58         9.6856
   684.72         9.6393
   684.86         9.5976
   685.00         9.5637
   685.14         9.5400
   685.28         9.5263
   685.42         9.5186
   685.56         9.5082
   685.70         9.4827
   685.84         9.4289
   685.98         9.3367
   686.12         9.2027
   686.26         9.0304
   686.40         8.8288
   686.54         8.6114
   686.68         8.3951
   686.82         8.1973
   686.96         8.0340
   687.10         7.9183
   687.24         7.8588
   687.38         7.8576
   687.52         7.9101
   687.66         8.0058
   687.80         8.1299
   687.94         8.2655
   688.08         8.3964
   688.22         8.5094
   688.36         8.5972
   688.50         8.6600
   688.64         8.7028
   688.78         8.7320
   688.92         8.7541
   689.06         8.7756
   689.20         8.8027
   689.34         8.8406
   689.48         8.8925
   689.62         8.9584
   689.76         9.0360
   689.90         9.1224
   690.04         9.2146
   690.18         9.3097
   690.32         9.4039
   690.46         9.4931
   690.60         9.5734
   690.74         9.6421
   690.88         9.6995
   691.02         9.7482
   691.16         9.7919
   691.30         9.8350
   691.44         9.8832
   691.58         9.9429
   691.72         10.0185
   691.86         10.1112
   692.00         10.2194
   692.14         10.3391
   692.28         10.4642
   692.42         10.5885
   692.56         10.7068
   692.70         10.8143
   692.84         10.9075
   692.98         10.9848
   693.12         11.0476
   693.26         11.1007
   693.40         11.1510
   693.54         11.2045
   693.68         11.2643
   693.82         11.3311
   693.96         11.4041
   694.10         11.4809
   694.24         11.5584
   694.38         11.6324
   694.52         11.6992
   694.66         11.7563
   694.80         11.8024
   694.94         11.8371
   695.08         11.8612
   695.22         11.8756
   695.36         11.8808
   695.50         11.8779
   695.64         11.8693
   695.78         11.8581
   695.92         11.8472
   696.06         11.8390
   696.20         11.8339
   696.34         11.8308
   696.48         11.8282
   696.62         11.8252
   696.76         11.8216
   696.90         11.8184
   697.04         11.8174
   697.18         11.8208
   697.32         11.8309
   697.46         11.8490
   697.60         11.8751
   697.74         11.9069
   697.88         11.9421
   698.02         11.9785
   698.16         12.0150
   698.30         12.0505
   698.44         12.0839
   698.58         12.1140
   698.72         12.1393
   698.86         12.1579
   699.00         12.1700
   699.14         12.1780
   699.28         12.1852
   699.42         12.1930
   699.56         12.2010
   699.70         12.2082
   699.84         12.2146
   699.98         12.2209
   700.12         12.2289
   700.26         12.2396
   700.40         12.2543
   700.54         12.2750
   700.68         12.3035
   700.82         12.3413
   700.96         12.3878
   701.10         12.4403
   701.24         12.4951
   701.38         12.5485
   701.52         12.5980
   701.66         12.6412
   701.80         12.6753
   701.94         12.6972
   702.08         12.7051
   702.22         12.7010
   702.36         12.6909
   702.50         12.6820
   702.64         12.6812
   702.78         12.6936
   702.92         12.7215
   703.06         12.7652
   703.20         12.8234
   703.34         12.8940
   703.48         12.9740
   703.62         13.0590
   703.76         13.1441
   703.90         13.2252
   704.04         13.2972
   704.18         13.3528
   704.32         13.3845
   704.46         13.3883
   704.60         13.3628
   704.74         13.3094
   704.88         13.2315
   705.02         13.1331
   705.16         13.0188
   705.30         12.8935
   705.44         12.7612
   705.58         12.6263
   705.72         12.4936
   705.86         12.3690
   706.00         12.2588
   706.14         12.1688
   706.28         12.1033
   706.42         12.0646
   706.56         12.0539
   706.70         12.0691
   706.84         12.1061
   706.98         12.1609
   707.12         12.2296
   707.26         12.3059
   707.40         12.3809
   707.54         12.4439
   707.68         12.4852
   707.82         12.4985
   707.96         12.4816
   708.10         12.4353
   708.24         12.3629
   708.38         12.2706
   708.52         12.1672
   708.66         12.0621
   708.80         11.9642
   708.94         11.8809
   709.08         11.8177
   709.22         11.7770
   709.36         11.7593
   709.50         11.7638
   709.64         11.7883
   709.78         11.8280
   709.92         11.8767
   710.06         11.9279
   710.20         11.9774
   710.34         12.0237
   710.48         12.0674
   710.62         12.1090
   710.76         12.1475
   710.90         12.1820
   711.04         12.2119
   711.18         12.2341
   711.32         12.2427
   711.46         12.2331
   711.60         12.2031
   711.74         12.1515
   711.88         12.0793
   712.02         11.9891
   712.16         11.8847
   712.30         11.7716
   712.44         11.6579
   712.58         11.5527
   712.72         11.4639
   712.86         11.3966
   713.00         11.3534
   713.14         11.3340
   713.28         11.3328
   713.42         11.3413
   713.56         11.3511
   713.70         11.3558
   713.84         11.3518
   713.98         11.3395
   714.12         11.3237
   714.26         11.3101
   714.40         11.3030
   714.54         11.3058
   714.68         11.3207
   714.82         11.3489
   714.96         11.3920
   715.10         11.4497
   715.24         11.5198
   715.38         11.5983
   715.52         11.6797
   715.66         11.7583
   715.80         11.8284
   715.94         11.8845
   716.08         11.9239
   716.22         11.9473
   716.36         11.9573
   716.50         11.9554
   716.64         11.9419
   716.78         11.9182
   716.92         11.8866
   717.06         11.8496
   717.20         11.8097
   717.34         11.7682
   717.48         11.7251
   717.62         11.6818
   717.76         11.6418
   717.90         11.6086
   718.04         11.5831
   718.18         11.5652
   718.32         11.5543
   718.46         11.5492
   718.60         11.5488
   718.74         11.5515
   718.88         11.5547
   719.02         11.5560
   719.16         11.5545
   719.30         11.5497
   719.44         11.5390
   719.58         11.5205
   719.72         11.4948
   719.86         11.4657
   720.00         11.4395
   720.14         11.4247
   720.28         11.4313
   720.42         11.4668
   720.56         11.5342
   720.70         11.6325
   720.84         11.7592
   720.98         11.9099
   721.12         12.0793
   721.26         12.2594
   721.40         12.4399
   721.54         12.6115
   721.68         12.7677
   721.82         12.9015
   721.96         13.0053
   722.10         13.0736
   722.24         13.1055
   722.38         13.1041
   722.52         13.0752
   722.66         13.0261
   722.80         12.9629
   722.94         12.8899
   723.08         12.8117
   723.22         12.7332
   723.36         12.6598
   723.50         12.5966
   723.64         12.5475
   723.78         12.5141
   723.92         12.4961
   724.06         12.4911
   724.20         12.4964
   724.34         12.5094
   724.48         12.5290
   724.62         12.5549
   724.76         12.5874
   724.90         12.6291
   725.04         12.6826
   725.18         12.7486
   725.32         12.8245
   725.46         12.9066
   725.60         12.9923
   725.74         13.0807
   725.88         13.1711
   726.02         13.2618
   726.16         13.3487
   726.30         13.4254
   726.44         13.4854
   726.58         13.5235
   726.72         13.5368
   726.86         13.5268
   727.00         13.4999
   727.14         13.4631
   727.28         13.4218
   727.42         13.3811
   727.56         13.3455
   727.70         13.3158
   727.84         13.2896
   727.98         13.2655
   728.12         13.2431
   728.26         13.2229
   728.40         13.2062
   728.54         13.1941
   728.68         13.1867
   728.82         13.1828
   728.96         13.1809
   729.10         13.1800
   729.24         13.1808
   729.38         13.1867
   729.52         13.2002
   729.66         13.2209
   729.80         13.2457
   729.94         13.2706
   730.08         13.2924
   730.22         13.3078
   730.36         13.3143
   730.50         13.3129
   730.64         13.3086
   730.78         13.3056
   730.92         13.3061
   731.06         13.3086
   731.20         13.3100
   731.34         13.3083
   731.48         13.3035
   731.62         13.2964
   731.76         13.2891
   731.90         13.2845
   732.04         13.2851
   732.18         13.2914
   732.32         13.3032
   732.46         13.3211
   732.60         13.3462
   732.74         13.3793
   732.88         13.4184
   733.02         13.4598
   733.16         13.4997
   733.30         13.5340
   733.44         13.5586
   733.58         13.5701
   733.72         13.5667
   733.86         13.5488
   734.00         13.5179
   734.14         13.4754
   734.28         13.4222
   734.42         13.3615
   734.56         13.2991
   734.70         13.2404
   734.84         13.1884
   734.98         13.1446
   735.12         13.1106
   735.26         13.0896
   735.40         13.0832
   735.54         13.0907
   735.68         13.1102
   735.82         13.1404
   735.96         13.1791
   736.10         13.2222
   736.24         13.2653
   736.38         13.3046
   736.52         13.3371
   736.66         13.3616
   736.80         13.3781
   736.94         13.3882
   737.08         13.3937
   737.22         13.3950
   737.36         13.3902
   737.50         13.3774
   737.64         13.3574
   737.78         13.3331
   737.92         13.3077
   738.06         13.2825
   738.20         13.2578
   738.34         13.2344
   738.48         13.2140
   738.62         13.1979
   738.76         13.1872
   738.90         13.1828
   739.04         13.1841
   739.18         13.1901
   739.32         13.2001
   739.46         13.2125
   739.60         13.2253
   739.74         13.2366
   739.88         13.2449
   740.02         13.2492
   740.16         13.2491
   740.30         13.2455
   740.44         13.2394
   740.58         13.2311
   740.72         13.2202
   740.86         13.2065
   741.00         13.1906
   741.14         13.1744
   741.28         13.1598
   741.42         13.1491
   741.56         13.1432
   741.70         13.1429
   741.84         13.1494
   741.98         13.1628
   742.12         13.1821
   742.26         13.2054
   742.40         13.2300
   742.54         13.2523
   742.68         13.2689
   742.82         13.2777
   742.96         13.2777
   743.10         13.2689
   743.24         13.2523
   743.38         13.2300
   743.52         13.2054
   743.66         13.1821
   743.80         13.1628
   743.94         13.1494
   744.08         13.1429
   744.22         13.1432
