# File HD26946
# Wavelength [nm]    Normalized Amplitude
   349.70         5.7177
   349.84         5.6395
   349.98         5.6265
   350.12         5.6648
   350.26         5.7372
   350.40         5.8303
   350.54         5.9351
   350.68         6.0400
   350.82         6.1277
   350.96         6.1838
   351.10         6.2028
   351.24         6.1838
   351.38         6.1277
   351.52         6.0400
   351.66         5.9351
   351.80         5.8303
   351.94         5.7372
   352.08         5.6648
   352.22         5.6265
   352.36         5.6395
   352.50         5.7177
   352.64         5.8713
   352.78         6.1042
   352.92         6.4107
   353.06         6.7745
   353.20         7.1659
   353.34         7.5479
   353.48         7.8871
   353.62         8.1600
   353.76         8.3512
   353.90         8.4532
   354.04         8.4683
   354.18         8.4070
   354.32         8.2833
   354.46         8.1104
   354.60         7.9021
   354.74         7.6761
   354.88         7.4517
   355.02         7.2445
   355.16         7.0640
   355.30         6.9114
   355.44         6.7785
   355.58         6.6519
   355.72         6.5186
   355.86         6.3695
   356.00         6.2018
   356.14         6.0181
   356.28         5.8223
   356.42         5.6187
   356.56         5.4121
   356.70         5.2060
   356.84         5.0032
   356.98         4.8088
   357.12         4.6286
   357.26         4.4663
   357.40         4.3227
   357.54         4.1978
   357.68         4.0927
   357.82         4.0104
   357.96         3.9552
   358.10         3.9315
   358.24         3.9435
   358.38         3.9952
   358.52         4.0945
   358.66         4.2521
   358.80         4.4726
   358.94         4.7487
   359.08         5.0628
   359.22         5.3924
   359.36         5.7120
   359.50         5.9975
   359.64         6.2288
   359.78         6.3902
   359.92         6.4730
   360.06         6.4791
   360.20         6.4196
   360.34         6.3114
   360.48         6.1744
   360.62         6.0287
   360.76         5.8930
   360.90         5.7876
   361.04         5.7362
   361.18         5.7626
   361.32         5.8817
   361.46         6.0958
   361.60         6.3955
   361.74         6.7594
   361.88         7.1557
   362.02         7.5448
   362.16         7.8894
   362.30         8.1623
   362.44         8.3498
   362.58         8.4521
   362.72         8.4804
   362.86         8.4539
   363.00         8.3957
   363.14         8.3284
   363.28         8.2706
   363.42         8.2359
   363.56         8.2321
   363.70         8.2581
   363.84         8.3035
   363.98         8.3540
   364.12         8.3974
   364.26         8.4264
   364.40         8.4401
   364.54         8.4482
   364.68         8.4734
   364.82         8.5457
   364.96         8.6915
   365.10         8.9252
   365.24         9.2452
   365.38         9.6330
   365.52         10.0565
   365.66         10.4771
   365.80         10.8572
   365.94         11.1686
   366.08         11.3968
   366.22         11.5420
   366.36         11.6175
   366.50         11.6431
   366.64         11.6375
   366.78         11.6124
   366.92         11.5716
   367.06         11.5155
   367.20         11.4450
   367.34         11.3583
   367.48         11.2457
   367.62         11.0937
   367.76         10.8962
   367.90         10.6612
   368.04         10.4091
   368.18         10.1662
   368.32         9.9597
   368.46         9.8142
   368.60         9.7491
   368.74         9.7762
   368.88         9.8975
   369.02         10.1010
   369.16         10.3580
   369.30         10.6271
   369.44         10.8651
   369.58         11.0359
   369.72         11.1148
   369.86         11.0882
   370.00         10.9553
   370.14         10.7339
   370.28         10.4590
   370.42         10.1703
   370.56         9.8986
   370.70         9.6556
   370.84         9.4370
   370.98         9.2327
   371.12         9.0327
   371.26         8.8291
   371.40         8.6166
   371.54         8.3874
   371.68         8.1308
   371.82         7.8414
   371.96         7.5243
   372.10         7.1935
   372.24         6.8649
   372.38         6.5520
   372.52         6.2660
   372.66         6.0158
   372.80         5.8057
   372.94         5.6314
   373.08         5.4807
   373.22         5.3397
   373.36         5.2000
   373.50         5.0617
   373.64         4.9321
   373.78         4.8194
   373.92         4.7336
   374.06         4.6866
   374.20         4.6895
   374.34         4.7501
   374.48         4.8700
   374.62         5.0411
   374.76         5.2486
   374.90         5.4767
   375.04         5.7132
   375.18         5.9483
   375.32         6.1739
   375.46         6.3806
   375.60         6.5586
   375.74         6.7034
   375.88         6.8216
   376.02         6.9304
   376.16         7.0527
   376.30         7.2103
   376.44         7.4197
   376.58         7.6931
   376.72         8.0357
   376.86         8.4383
   377.00         8.8791
   377.14         9.3307
   377.28         9.7645
   377.42         10.1514
   377.56         10.4633
   377.70         10.6769
   377.84         10.7789
   377.98         10.7686
   378.12         10.6555
   378.26         10.4551
   378.40         10.1853
   378.54         9.8615
   378.68         9.4982
   378.82         9.1131
   378.96         8.7296
   379.10         8.3778
   379.24         8.0917
   379.38         7.8963
   379.52         7.8007
   379.66         7.8005
   379.80         7.8826
   379.94         8.0278
   380.08         8.2129
   380.22         8.4125
   380.36         8.6010
   380.50         8.7538
   380.64         8.8471
   380.78         8.8593
   380.92         8.7730
   381.06         8.5817
   381.20         8.2918
   381.34         7.9198
   381.48         7.4907
   381.62         7.0348
   381.76         6.5819
   381.90         6.1560
   382.04         5.7728
   382.18         5.4443
   382.32         5.1830
   382.46         5.0000
   382.60         4.8988
   382.74         4.8707
   382.88         4.8988
   383.02         4.9678
   383.16         5.0689
   383.30         5.1964
   383.44         5.3455
   383.58         5.5115
   383.72         5.6902
   383.86         5.8762
   384.00         6.0652
   384.14         6.2564
   384.28         6.4471
   384.42         6.6279
   384.56         6.7845
   384.70         6.9016
   384.84         6.9673
   384.98         6.9788
   385.12         6.9416
   385.26         6.8646
   385.40         6.7591
   385.54         6.6414
   385.68         6.5317
   385.82         6.4474
   385.96         6.3980
   386.10         6.3876
   386.24         6.4183
   386.38         6.4888
   386.52         6.5897
   386.66         6.7060
   386.80         6.8203
   386.94         6.9177
   387.08         6.9901
   387.22         7.0382
   387.36         7.0671
   387.50         7.0830
   387.64         7.0939
   387.78         7.1087
   387.92         7.1364
   388.06         7.1883
   388.20         7.2770
   388.34         7.4113
   388.48         7.5930
   388.62         7.8179
   388.76         8.0768
   388.90         8.3555
   389.04         8.6363
   389.18         8.9034
   389.32         9.1465
   389.46         9.3596
   389.60         9.5399
   389.74         9.6892
   389.88         9.8126
   390.02         9.9164
   390.16         10.0086
   390.30         10.1001
   390.44         10.1999
   390.58         10.3102
   390.72         10.4229
   390.86         10.5193
   391.00         10.5748
   391.14         10.5676
   391.28         10.4831
   391.42         10.3144
   391.56         10.0599
   391.70         9.7216
   391.84         9.3041
   391.98         8.8142
   392.12         8.2643
   392.26         7.6748
   392.40         7.0728
   392.54         6.4856
   392.68         5.9372
   392.82         5.4502
   392.96         5.0456
   393.10         4.7410
   393.24         4.5497
   393.38         4.4813
   393.52         4.5411
   393.66         4.7304
   393.80         5.0456
   393.94         5.4752
   394.08         5.9988
   394.22         6.5891
   394.36         7.2156
   394.50         7.8470
   394.64         8.4514
   394.78         8.9972
   394.92         9.4543
   395.06         9.7959
   395.20         10.0000
   395.34         10.0516
   395.48         9.9439
   395.62         9.6804
   395.76         9.2757
   395.90         8.7579
   396.04         8.1681
   396.18         7.5569
   396.32         6.9809
   396.46         6.4978
   396.60         6.1610
   396.74         6.0136
   396.88         6.0821
   397.02         6.3739
   397.16         6.8779
   397.30         7.5689
   397.44         8.4119
   397.58         9.3643
   397.72         10.3794
   397.86         11.4103
   398.00         12.4142
   398.14         13.3574
   398.28         14.2170
   398.42         14.9797
   398.56         15.6409
   398.70         16.2077
   398.84         16.6985
   398.98         17.1385
   399.12         17.5503
   399.26         17.9455
   399.40         18.3260
   399.54         18.6916
   399.68         19.0482
   399.82         19.4050
   399.96         19.7704
   400.10         20.1491
   400.24         20.5428
   400.38         20.9516
   400.52         21.3746
   400.66         21.8111
   400.80         22.2565
   400.94         22.6997
   401.08         23.1249
   401.22         23.5160
   401.36         23.8603
   401.50         24.1487
   401.64         24.3725
   401.78         24.5166
   401.92         24.5598
   402.06         24.4841
   402.20         24.2864
   402.34         23.9822
   402.48         23.6033
   402.62         23.1944
   402.76         22.8056
   402.90         22.4793
   403.04         22.2383
   403.18         22.0811
   403.32         21.9869
   403.46         21.9283
   403.60         21.8889
   403.74         21.8694
   403.88         21.8812
   404.02         21.9365
   404.16         22.0397
   404.30         22.1803
   404.44         22.3361
   404.58         22.4865
   404.72         22.6260
   404.86         22.7630
   405.00         22.9005
   405.14         23.0229
   405.28         23.1019
   405.42         23.1100
   405.56         23.0326
   405.70         22.8742
   405.84         22.6566
   405.98         22.4161
   406.12         22.2004
   406.26         22.0530
   406.40         21.9918
   406.54         22.0092
   406.68         22.0881
   406.82         22.2193
   406.96         22.4041
   407.10         22.6495
   407.24         22.9635
   407.38         23.3511
   407.52         23.8150
   407.66         24.3590
   407.80         24.9897
   407.94         25.7115
   408.08         26.5126
   408.22         27.3562
   408.36         28.1779
   408.50         28.8984
   408.64         29.4446
   408.78         29.7615
   408.92         29.8135
   409.06         29.5944
   409.20         29.1384
   409.34         28.5147
   409.48         27.8087
   409.62         27.1015
   409.76         26.4570
   409.90         25.9202
   410.04         25.5210
   410.18         25.2780
   410.32         25.1936
   410.46         25.2465
   410.60         25.3947
   410.74         25.5872
   410.88         25.7731
   411.02         25.9124
   411.16         25.9869
   411.30         26.0029
   411.44         25.9816
   411.58         25.9472
   411.72         25.9193
   411.86         25.9045
   412.00         25.8917
   412.14         25.8586
   412.28         25.7826
   412.42         25.6496
   412.56         25.4613
   412.70         25.2363
   412.84         24.9967
   412.98         24.7518
   413.12         24.4946
   413.26         24.2149
   413.40         23.9162
   413.54         23.6169
   413.68         23.3399
   413.82         23.1042
   413.96         22.9214
   414.10         22.7926
   414.24         22.7097
   414.38         22.6660
   414.52         22.6658
   414.66         22.7260
   414.80         22.8707
   414.94         23.1212
   415.08         23.4835
   415.22         23.9427
   415.36         24.4640
   415.50         24.9985
   415.64         25.4976
   415.78         25.9265
   415.92         26.2645
   416.06         26.4944
   416.20         26.5950
   416.34         26.5501
   416.48         26.3606
   416.62         26.0479
   416.76         25.6502
   416.90         25.2163
   417.04         24.8012
   417.18         24.4607
   417.32         24.2415
   417.46         24.1696
   417.60         24.2469
   417.74         24.4548
   417.88         24.7617
   418.02         25.1320
   418.16         25.5315
   418.30         25.9256
   418.44         26.2750
   418.58         26.5368
   418.72         26.6762
   418.86         26.6780
   419.00         26.5474
   419.14         26.3032
   419.28         25.9755
   419.42         25.6058
   419.56         25.2430
   419.70         24.9380
   419.84         24.7360
   419.98         24.6672
   420.12         24.7421
   420.26         24.9518
   420.40         25.2756
   420.54         25.6909
   420.68         26.1772
   420.82         26.7125
   420.96         27.2639
   421.10         27.7799
   421.24         28.1931
   421.38         28.4289
   421.52         28.4227
   421.66         28.1418
   421.80         27.5985
   421.94         26.8490
   422.08         25.9768
   422.22         25.0737
   422.36         24.2276
   422.50         23.5156
   422.64         23.0026
   422.78         22.7423
   422.92         22.7779
   423.06         23.1428
   423.20         23.8546
   423.34         24.8956
   423.48         26.1952
   423.62         27.6347
   423.76         29.0710
   423.90         30.3685
   424.04         31.4240
   424.18         32.1801
   424.32         32.6230
   424.46         32.7734
   424.60         32.6702
   424.74         32.3551
   424.88         31.8736
   425.02         31.2893
   425.16         30.6916
   425.30         30.1868
   425.44         29.8750
   425.58         29.8214
   425.72         30.0367
   425.86         30.4697
   426.00         31.0123
   426.14         31.5299
   426.28         31.9025
   426.42         32.0536
   426.56         31.9637
   426.70         31.6664
   426.84         31.2272
   426.98         30.7231
   427.12         30.2322
   427.26         29.8205
   427.40         29.5378
   427.54         29.4185
   427.68         29.4733
   427.82         29.6758
   427.96         29.9626
   428.10         30.2541
   428.24         30.4747
   428.38         30.5705
   428.52         30.5169
   428.66         30.3168
   428.80         29.9973
   428.94         29.6005
   429.08         29.1742
   429.22         28.7587
   429.36         28.3692
   429.50         27.9919
   429.64         27.6012
   429.78         27.1848
   429.92         26.7565
   430.06         26.3532
   430.20         26.0262
   430.34         25.8427
   430.48         25.8901
   430.62         26.2621
   430.76         27.0274
   430.90         28.2001
   431.04         29.7290
   431.18         31.5003
   431.32         33.3567
   431.46         35.1363
   431.60         36.7140
   431.74         38.0176
   431.88         39.0172
   432.02         39.7188
   432.16         40.1724
   432.30         40.4675
   432.44         40.7090
   432.58         40.9811
   432.72         41.3236
   432.86         41.7395
   433.00         42.2123
   433.14         42.7141
   433.28         43.2040
   433.42         43.6369
   433.56         43.9778
   433.70         44.2136
   433.84         44.3512
   433.98         44.4123
   434.12         44.4374
   434.26         44.4826
   434.40         44.5979
   434.54         44.8125
   434.68         45.1296
   434.82         45.5259
   434.96         45.9630
   435.10         46.4031
   435.24         46.8265
   435.38         47.2357
   435.52         47.6469
   435.66         48.0743
   435.80         48.5206
   435.94         48.9729
   436.08         49.3967
   436.22         49.7377
   436.36         49.9352
   436.50         49.9449
   436.64         49.7576
   436.78         49.3965
   436.92         48.8926
   437.06         48.2525
   437.20         47.4540
   437.34         46.4749
   437.48         45.3300
   437.62         44.0795
   437.76         42.8006
   437.90         41.5642
   438.04         40.4302
   438.18         39.4522
   438.32         38.6867
   438.46         38.1968
   438.60         38.0360
   438.74         38.2238
   438.88         38.7428
   439.02         39.5452
   439.16         40.5454
   439.30         41.6073
   439.44         42.5639
   439.58         43.2674
   439.72         43.6312
   439.86         43.6572
   440.00         43.4278
   440.14         43.0545
   440.28         42.6314
   440.42         42.2286
   440.56         41.9146
   440.70         41.7639
   440.84         41.8378
   440.98         42.1637
   441.12         42.7295
   441.26         43.4845
   441.40         44.3488
   441.54         45.2321
   441.68         46.0494
   441.82         46.7314
   441.96         47.2400
   442.10         47.5763
   442.24         47.7635
   442.38         47.8328
   442.52         47.8238
   442.66         47.7839
   442.80         47.7558
   442.94         47.7676
   443.08         47.8445
   443.22         48.0134
   443.36         48.2963
   443.50         48.7011
   443.64         49.2189
   443.78         49.8310
   443.92         50.5100
   444.06         51.2130
   444.20         51.8809
   444.34         52.4486
   444.48         52.8569
   444.62         53.0603
   444.76         53.0254
   444.90         52.7376
   445.04         52.2187
   445.18         51.5287
   445.32         50.7432
   445.46         49.9287
   445.60         49.1445
   445.74         48.4608
   445.88         47.9574
   446.02         47.7067
   446.16         47.7577
   446.30         48.1304
   446.44         48.8223
   446.58         49.8075
   446.72         51.0236
   446.86         52.3738
   447.00         53.7545
   447.14         55.0823
   447.28         56.3044
   447.42         57.3932
   447.56         58.3333
   447.70         59.1150
   447.84         59.7311
   447.98         60.1762
   448.12         60.4459
   448.26         60.5373
   448.40         60.4597
   448.54         60.2491
   448.68         59.9664
   448.82         59.6808
   448.96         59.4596
   449.10         59.3703
   449.24         59.4695
   449.38         59.7860
   449.52         60.3258
   449.66         61.0890
   449.80         62.0628
   449.94         63.1984
   450.08         64.4012
   450.22         65.5530
   450.36         66.5472
   450.50         67.3062
   450.64         67.7846
   450.78         67.9757
   450.92         67.9086
   451.06         67.6374
   451.20         67.2223
   451.34         66.7051
   451.48         66.0942
   451.62         65.3794
   451.76         64.5502
   451.90         63.5977
   452.04         62.5193
   452.18         61.3309
   452.32         60.0778
   452.46         58.8337
   452.60         57.6849
   452.74         56.7091
   452.88         55.9693
   453.02         55.5134
   453.16         55.3641
   453.30         55.5117
   453.44         55.9187
   453.58         56.5205
   453.72         57.2323
   453.86         57.9707
   454.00         58.6655
   454.14         59.2634
   454.28         59.7425
   454.42         60.1232
   454.56         60.4550
   454.70         60.7948
   454.84         61.1937
   454.98         61.6910
   455.12         62.2974
   455.26         62.9847
   455.40         63.7097
   455.54         64.4483
   455.68         65.1961
   455.82         65.9372
   455.96         66.6435
   456.10         67.2958
   456.24         67.8842
   456.38         68.4011
   456.52         68.8347
   456.66         69.1634
   456.80         69.3674
   456.94         69.4492
   457.08         69.4275
   457.22         69.3150
   457.36         69.1162
   457.50         68.8449
   457.64         68.5324
   457.78         68.2218
   457.92         67.9579
   458.06         67.7733
   458.20         67.6735
   458.34         67.6335
   458.48         67.6159
   458.62         67.5982
   458.76         67.5740
   458.90         67.5365
   459.04         67.4731
   459.18         67.3690
   459.32         67.2241
   459.46         67.0732
   459.60         66.9859
   459.74         67.0388
   459.88         67.2929
   460.02         67.7814
   460.16         68.5025
   460.30         69.4217
   460.44         70.4800
   460.58         71.6053
   460.72         72.7331
   460.86         73.8195
   461.00         74.8361
   461.14         75.7639
   461.28         76.5887
   461.42         77.2954
   461.56         77.8707
   461.70         78.3102
   461.84         78.6242
   461.98         78.8330
   462.12         78.9497
   462.26         78.9665
   462.40         78.8516
   462.54         78.5626
   462.68         78.0649
   462.82         77.3526
   462.96         76.4577
   463.10         75.4349
   463.24         74.3365
   463.38         73.2030
   463.52         72.0663
   463.66         70.9597
   463.80         69.9257
   463.94         69.0177
   464.08         68.2858
   464.22         67.7606
   464.36         67.4505
   464.50         67.3533
   464.64         67.4705
   464.78         67.8092
   464.92         68.3692
   465.06         69.1292
   465.20         70.0401
   465.34         71.0230
   465.48         71.9758
   465.62         72.7874
   465.76         73.3589
   465.90         73.6265
   466.04         73.5792
   466.18         73.2636
   466.32         72.7693
   466.46         72.2050
   466.60         71.6713
   466.74         71.2350
   466.88         70.9257
   467.02         70.7586
   467.16         70.7519
   467.30         70.9108
   467.44         71.1969
   467.58         71.5296
   467.72         71.8248
   467.86         72.0197
   468.00         72.0790
   468.14         72.0088
   468.28         71.8627
   468.42         71.7200
   468.56         71.6443
   468.70         71.6549
   468.84         71.7368
   468.98         71.8624
   469.12         71.9981
   469.26         72.1024
   469.40         72.1330
   469.54         72.0628
   469.68         71.8885
   469.82         71.6287
   469.96         71.3121
   470.10         70.9712
   470.24         70.6396
   470.38         70.3544
   470.52         70.1550
   470.66         70.0814
   470.80         70.1743
   470.94         70.4592
   471.08         70.9298
   471.22         71.5543
   471.36         72.2880
   471.50         73.0744
   471.64         73.8341
   471.78         74.4712
   471.92         74.9025
   472.06         75.0801
   472.20         74.9990
   472.34         74.6929
   472.48         74.2237
   472.62         73.6664
   472.76         73.0925
   472.90         72.5651
   473.04         72.1439
   473.18         71.8852
   473.32         71.8294
   473.46         71.9930
   473.60         72.3659
   473.74         72.9141
   473.88         73.5844
   474.02         74.3065
   474.16         75.0030
   474.30         75.6122
   474.44         76.1071
   474.58         76.4876
   474.72         76.7610
   474.86         76.9316
   475.00         76.9935
   475.14         76.9282
   475.28         76.7122
   475.42         76.3277
   475.56         75.7782
   475.70         75.1026
   475.84         74.3682
   475.98         73.6475
   476.12         73.0051
   476.26         72.4942
   476.40         72.1537
   476.54         72.0043
   476.68         72.0479
   476.82         72.2704
   476.96         72.6423
   477.10         73.1131
   477.24         73.6127
   477.38         74.0682
   477.52         74.4114
   477.66         74.5845
   477.80         74.5567
   477.94         74.3395
   478.08         73.9903
   478.22         73.6009
   478.36         73.2692
   478.50         73.0682
   478.64         73.0361
   478.78         73.1843
   478.92         73.5078
   479.06         73.9860
   479.20         74.5795
   479.34         75.2308
   479.48         75.8713
   479.62         76.4349
   479.76         76.8720
   479.90         77.1615
   480.04         77.3120
   480.18         77.3509
   480.32         77.3194
   480.46         77.2705
   480.60         77.2599
   480.74         77.3350
   480.88         77.5152
   481.02         77.7841
   481.16         78.1057
   481.30         78.4391
   481.44         78.7460
   481.58         78.9912
   481.72         79.1419
   481.86         79.1699
   482.00         79.0582
   482.14         78.8100
   482.28         78.4535
   482.42         78.0312
   482.56         77.5856
   482.70         77.1529
   482.84         76.7593
   482.98         76.4274
   483.12         76.1793
   483.26         76.0285
   483.40         75.9732
   483.54         75.9952
   483.68         76.0704
   483.82         76.1813
   483.96         76.3217
   484.10         76.4899
   484.24         76.6737
   484.38         76.8500
   484.52         77.0034
   484.66         77.1303
   484.80         77.2155
   484.94         77.2216
   485.08         77.1070
   485.22         76.8455
   485.36         76.4368
   485.50         75.9079
   485.64         75.3050
   485.78         74.6730
   485.92         74.0370
   486.06         73.4054
   486.20         72.7872
   486.34         72.2082
   486.48         71.7075
   486.62         71.3226
   486.76         71.0756
   486.90         70.9706
   487.04         71.0054
   487.18         71.1709
   487.32         71.4326
   487.46         71.7310
   487.60         72.0168
   487.74         72.2728
   487.88         72.4915
   488.02         72.6609
   488.16         72.7799
   488.30         72.8679
   488.44         72.9597
   488.58         73.1057
   488.72         73.3738
   488.86         73.8337
   489.00         74.5264
   489.14         75.4439
   489.28         76.5448
   489.42         77.7771
   489.56         79.0758
   489.70         80.3534
   489.84         81.5111
   489.98         82.4653
   490.12         83.1615
   490.26         83.5768
   490.40         83.7240
   490.54         83.6476
   490.68         83.4064
   490.82         83.0475
   490.96         82.5884
   491.10         82.0296
   491.24         81.3804
   491.38         80.6678
   491.52         79.9290
   491.66         79.2137
   491.80         78.5920
   491.94         78.1492
   492.08         77.9541
   492.22         78.0245
   492.36         78.3313
   492.50         78.8334
   492.64         79.4817
   492.78         80.2017
   492.92         80.9045
   493.06         81.5143
   493.20         81.9739
   493.34         82.2374
   493.48         82.2881
   493.62         82.1642
   493.76         81.9525
   493.90         81.7596
   494.04         81.6864
   494.18         81.8021
   494.32         82.1319
   494.46         82.6541
   494.60         83.2887
   494.74         83.9107
   494.88         84.4043
   495.02         84.6993
   495.16         84.7675
   495.30         84.6042
   495.44         84.2266
   495.58         83.6742
   495.72         82.9983
   495.86         82.2529
   496.00         81.4948
   496.14         80.7899
   496.28         80.2120
   496.42         79.8270
   496.56         79.6730
   496.70         79.7435
   496.84         79.9880
   496.98         80.3285
   497.12         80.6705
   497.26         80.9163
   497.40         81.0006
   497.54         80.9044
   497.68         80.6290
   497.82         80.1861
   497.96         79.6090
   498.10         78.9525
   498.24         78.2825
   498.38         77.6704
   498.52         77.1882
   498.66         76.8995
   498.80         76.8405
   498.94         77.0000
   499.08         77.3171
   499.22         77.7006
   499.36         78.0496
   499.50         78.2692
   499.64         78.2878
   499.78         78.0756
   499.92         77.6518
   500.06         77.0714
   500.20         76.3947
   500.34         75.6629
   500.48         74.9016
   500.62         74.1380
   500.76         73.4059
   500.90         72.7410
   501.04         72.1744
   501.18         71.7298
   501.32         71.4253
   501.46         71.2693
   501.60         71.2579
   501.74         71.3848
   501.88         71.6483
   502.02         72.0465
   502.16         72.5805
   502.30         73.2554
   502.44         74.0612
   502.58         74.9472
   502.72         75.8263
   502.86         76.5912
   503.00         77.1372
   503.14         77.4001
   503.28         77.3779
   503.42         77.1165
   503.56         76.6893
   503.70         76.1796
   503.84         75.6633
   503.98         75.2065
   504.12         74.8615
   504.26         74.6649
   504.40         74.6475
   504.54         74.8289
   504.68         75.2109
   504.82         75.7809
   504.96         76.5091
   505.10         77.3393
   505.24         78.1920
   505.38         78.9799
   505.52         79.6251
   505.66         80.0824
   505.80         80.3518
   505.94         80.4569
   506.08         80.4147
   506.22         80.2274
   506.36         79.8922
   506.50         79.4160
   506.64         78.8326
   506.78         78.1944
   506.92         77.5446
   507.06         76.9059
   507.20         76.2852
   507.34         75.6888
   507.48         75.1277
   507.62         74.6063
   507.76         74.1190
   507.90         73.6636
   508.04         73.2590
   508.18         72.9492
   508.32         72.7874
   508.46         72.8089
   508.60         73.0150
   508.74         73.3747
   508.88         73.8336
   509.02         74.3249
   509.16         74.7808
   509.30         75.1369
   509.44         75.3370
   509.58         75.3457
   509.72         75.1619
   509.86         74.8125
   510.00         74.3357
   510.14         73.7779
   510.28         73.1953
   510.42         72.6537
   510.56         72.2236
   510.70         71.9638
   510.84         71.9005
   510.98         72.0203
   511.12         72.2770
   511.26         72.6020
   511.40         72.9165
   511.54         73.1468
   511.68         73.2324
   511.82         73.1298
   511.96         72.8233
   512.10         72.3386
   512.24         71.7395
   512.38         71.1080
   512.52         70.5277
   512.66         70.0728
   512.80         69.7980
   512.94         69.7353
   513.08         69.8838
   513.22         70.1997
   513.36         70.6017
   513.50         70.9964
   513.64         71.3003
   513.78         71.4536
   513.92         71.4245
   514.06         71.2036
   514.20         70.7969
   514.34         70.2348
   514.48         69.5875
   514.62         68.9550
   514.76         68.4325
   514.90         68.0884
   515.04         67.9631
   515.18         68.0662
   515.32         68.3624
   515.46         68.7627
   515.60         69.1375
   515.74         69.3453
   515.88         69.2666
   516.02         68.8183
   516.16         67.9523
   516.30         66.6669
   516.44         65.0290
   516.58         63.1736
   516.72         61.2736
   516.86         59.5095
   517.00         58.0414
   517.14         56.9721
   517.28         56.3333
   517.42         56.1093
   517.56         56.2717
   517.70         56.7860
   517.84         57.5920
   517.98         58.5988
   518.12         59.7062
   518.26         60.8352
   518.40         61.9508
   518.54         63.0560
   518.68         64.1650
   518.82         65.2951
   518.96         66.4697
   519.10         67.6923
   519.24         68.9041
   519.38         69.9776
   519.52         70.7591
   519.66         71.1266
   519.80         71.0295
   519.94         70.5095
   520.08         69.6976
   520.22         68.7704
   520.36         67.8890
   520.50         67.1771
   520.64         66.7407
   520.78         66.6780
   520.92         67.0736
   521.06         67.9744
   521.20         69.3483
   521.34         71.0648
   521.48         72.9195
   521.62         74.6905
   521.76         76.1893
   521.90         77.2920
   522.04         77.9544
   522.18         78.2080
   522.32         78.1489
   522.46         77.9251
   522.60         77.7135
   522.74         77.6750
   522.88         77.9103
   523.02         78.4558
   523.16         79.3094
   523.30         80.4348
   523.44         81.7380
   523.58         83.0652
   523.72         84.2352
   523.86         85.0834
   524.00         85.4983
   524.14         85.4453
   524.28         84.9697
   524.42         84.1705
   524.56         83.1750
   524.70         82.1237
   524.84         81.1512
   524.98         80.3621
   525.12         79.8092
   525.26         79.4799
   525.40         79.3020
   525.54         79.1739
   525.68         78.9900
   525.82         78.6423
   525.96         78.0364
   526.10         77.1280
   526.24         75.9484
   526.38         74.6060
   526.52         73.2637
   526.66         72.1124
   526.80         71.3391
   526.94         71.0855
   527.08         71.4207
   527.22         72.3378
   527.36         73.7617
   527.50         75.5588
   527.64         77.5629
   527.78         79.6171
   527.92         81.6006
   528.06         83.4272
   528.20         85.0385
   528.34         86.3928
   528.48         87.4544
   528.62         88.2020
   528.76         88.6372
   528.90         88.7792
   529.04         88.6705
   529.18         88.3819
   529.32         88.0046
   529.46         87.6292
   529.60         87.3360
   529.74         87.1971
   529.88         87.2771
   530.02         87.6197
   530.16         88.2254
   530.30         89.0507
   530.44         90.0288
   530.58         91.0705
   530.72         92.0599
   530.86         92.8750
   531.00         93.4158
   531.14         93.6191
   531.28         93.4727
   531.42         93.0140
   531.56         92.2933
   531.70         91.3424
   531.84         90.1915
   531.98         88.8970
   532.12         87.5377
   532.26         86.2069
   532.40         85.0093
   532.54         84.0432
   532.68         83.3729
   532.82         83.0190
   532.96         82.9726
   533.10         83.2053
   533.24         83.6672
   533.38         84.2928
   533.52         85.0090
   533.66         85.7377
   533.80         86.4020
   533.94         86.9449
   534.08         87.3427
   534.22         87.6156
   534.36         87.8371
   534.50         88.1241
   534.64         88.5888
   534.78         89.2931
   534.92         90.2420
   535.06         91.3871
   535.20         92.6340
   535.34         93.8670
   535.48         94.9815
   535.62         95.8986
   535.76         96.5541
   535.90         96.8853
   536.04         96.8440
   536.18         96.4270
   536.32         95.6923
   536.46         94.7499
   536.60         93.7388
   536.74         92.8048
   536.88         92.0752
   537.02         91.6348
   537.16         91.5159
   537.30         91.7012
   537.44         92.1394
   537.58         92.7580
   537.72         93.4647
   537.86         94.1527
   538.00         94.7156
   538.14         95.0623
   538.28         95.1249
   538.42         94.8603
   538.56         94.2606
   538.70         93.3757
   538.84         92.3104
   538.98         91.1840
   539.12         90.0978
   539.26         89.1163
   539.40         88.2600
   539.54         87.5153
   539.68         86.8538
   539.82         86.2487
   539.96         85.6901
   540.10         85.2041
   540.24         84.8388
   540.38         84.6379
   540.52         84.6430
   540.66         84.8987
   540.80         85.4389
   540.94         86.2696
   541.08         87.3662
   541.22         88.6857
   541.36         90.1708
   541.50         91.7425
   541.64         93.2918
   541.78         94.6799
   541.92         95.7638
   542.06         96.4391
   542.20         96.6631
   542.34         96.4475
   542.48         95.8486
   542.62         94.9638
   542.76         93.9238
   542.90         92.8704
   543.04         91.9406
   543.18         91.2495
   543.32         90.8610
   543.46         90.7708
   543.60         90.9178
   543.74         91.2190
   543.88         91.6079
   544.02         92.0369
   544.16         92.4530
   544.30         92.7805
   544.44         92.9362
   544.58         92.8750
   544.72         92.6107
   544.86         92.2000
   545.00         91.7219
   545.14         91.2654
   545.28         90.9156
   545.42         90.7340
   545.56         90.7384
   545.70         90.9009
   545.84         91.1613
   545.98         91.4469
   546.12         91.6938
   546.26         91.8656
   546.40         91.9527
   546.54         91.9491
   546.68         91.8318
   546.82         91.5733
   546.96         91.1642
   547.10         90.6298
   547.24         90.0331
   547.38         89.4550
   547.52         88.9635
   547.66         88.5999
   547.80         88.3822
   547.94         88.3126
   548.08         88.3811
   548.22         88.5661
   548.36         88.8407
   548.50         89.1763
   548.64         89.5438
   548.78         89.9171
   548.92         90.2846
   549.06         90.6500
   549.20         91.0203
   549.34         91.3974
   549.48         91.7679
   549.62         92.1017
   549.76         92.3759
   549.90         92.5862
   550.04         92.7241
   550.18         92.7608
   550.32         92.6611
   550.46         92.4040
   550.60         91.9965
   550.74         91.4786
   550.88         90.9208
   551.02         90.4068
   551.16         90.0133
   551.30         89.7969
   551.44         89.7904
   551.58         89.9988
   551.72         90.3895
   551.86         90.9019
   552.00         91.4764
   552.14         92.0662
   552.28         92.6314
   552.42         93.1321
   552.56         93.5282
   552.70         93.7887
   552.84         93.9085
   552.98         93.9205
   553.12         93.8851
   553.26         93.8664
   553.40         93.9124
   553.54         94.0433
   553.68         94.2562
   553.82         94.5459
   553.96         94.9111
   554.10         95.3445
   554.24         95.8279
   554.38         96.3397
   554.52         96.8578
   554.66         97.3517
   554.80         97.7780
   554.94         98.0926
   555.08         98.2702
   555.22         98.3109
   555.36         98.2316
   555.50         98.0531
   555.64         97.7887
   555.78         97.4443
   555.92         97.0368
   556.06         96.6026
   556.20         96.1908
   556.34         95.8511
   556.48         95.6234
   556.62         95.5284
   556.76         95.5641
   556.90         95.7107
   557.04         95.9402
   557.18         96.2201
   557.32         96.5160
   557.46         96.7920
   557.60         97.0038
   557.74         97.1017
   557.88         97.0401
   558.02         96.7857
   558.16         96.3228
   558.30         95.6618
   558.44         94.8529
   558.58         93.9810
   558.72         93.1364
   558.86         92.3917
   559.00         91.7970
   559.14         91.3770
   559.28         91.1316
   559.42         91.0486
   559.56         91.1250
   559.70         91.3712
   559.84         91.7874
   559.98         92.3527
   560.12         93.0354
   560.26         93.7977
   560.40         94.5895
   560.54         95.3460
   560.68         96.0002
   560.82         96.4965
   560.96         96.8003
   561.10         96.8986
   561.24         96.7884
   561.38         96.4629
   561.52         95.9173
   561.66         95.1742
   561.80         94.3040
   561.94         93.4204
   562.08         92.6559
   562.22         92.1213
   562.36         91.8733
   562.50         91.9110
   562.64         92.1995
   562.78         92.6823
   562.92         93.2792
   563.06         93.9027
   563.20         94.4817
   563.34         94.9690
   563.48         95.3375
   563.62         95.5743
   563.76         95.6688
   563.90         95.6107
   564.04         95.4058
   564.18         95.0927
   564.32         94.7385
   564.46         94.4115
   564.60         94.1524
   564.74         93.9606
   564.88         93.7991
   565.02         93.6254
   565.16         93.4162
   565.30         93.1654
   565.44         92.8767
   565.58         92.5670
   565.72         92.2612
   565.86         91.9775
   566.00         91.7308
   566.14         91.5454
   566.28         91.4545
   566.42         91.4930
   566.56         91.6968
   566.70         92.0978
   566.84         92.7014
   566.98         93.4748
   567.12         94.3589
   567.26         95.2807
   567.40         96.1639
   567.54         96.9418
   567.68         97.5629
   567.82         97.9891
   567.96         98.2032
   568.10         98.2204
   568.24         98.0840
   568.38         97.8447
   568.52         97.5537
   568.66         97.2631
   568.80         97.0147
   568.94         96.8260
   569.08         96.6814
   569.22         96.5399
   569.36         96.3532
   569.50         96.0778
   569.64         95.6795
   569.78         95.1343
   569.92         94.4329
   570.06         93.5901
   570.20         92.6452
   570.34         91.6648
   570.48         90.7424
   570.62         89.9808
   570.76         89.4629
   570.90         89.2374
   571.04         89.3270
   571.18         89.7395
   571.32         90.4611
   571.46         91.4532
   571.60         92.6510
   571.74         93.9682
   571.88         95.3153
   572.02         96.6092
   572.16         97.7682
   572.30         98.7209
   572.44         99.4262
   572.58         99.8808
   572.72         100.1074
   572.86         100.1453
   573.00         100.0456
   573.14         99.8615
   573.28         99.6376
   573.42         99.4080
   573.56         99.2000
   573.70         99.0330
   573.84         98.9057
   573.98         98.7992
   574.12         98.6911
   574.26         98.5577
   574.40         98.3861
   574.54         98.1844
   574.68         97.9730
   574.82         97.7734
   574.96         97.6001
   575.10         97.4509
   575.24         97.3118
   575.38         97.1776
   575.52         97.0642
   575.66         97.0001
   575.80         97.0159
   575.94         97.1374
   576.08         97.3751
   576.22         97.7201
   576.36         98.1523
   576.50         98.6423
   576.64         99.1521
   576.78         99.6311
   576.92         100.0128
   577.06         100.2226
   577.20         100.1897
   577.34         99.8582
   577.48         99.2000
   577.62         98.2313
   577.76         97.0240
   577.90         95.6985
   578.04         94.3984
   578.18         93.2620
   578.32         92.4035
   578.46         91.9016
   578.60         91.7886
   578.74         92.0468
   578.88         92.6319
   579.02         93.4941
   579.16         94.5683
   579.30         95.7633
   579.44         96.9668
   579.58         98.0682
   579.72         98.9906
   579.86         99.7058
   580.00         100.2280
   580.14         100.6015
   580.28         100.8779
   580.42         101.0917
   580.56         101.2573
   580.70         101.3867
   580.84         101.5043
   580.98         101.6382
   581.12         101.8024
   581.26         101.9935
   581.40         102.2107
   581.54         102.4692
   581.68         102.7810
   581.82         103.1403
   581.96         103.5300
   582.10         103.9320
   582.24         104.3288
   582.38         104.7019
   582.52         105.0331
   582.66         105.3016
   582.80         105.4847
   582.94         105.5684
   583.08         105.5627
   583.22         105.5021
   583.36         105.4286
   583.50         105.3671
   583.64         105.3161
   583.78         105.2655
   583.92         105.2072
   584.06         105.1331
   584.20         105.0256
   584.34         104.8563
   584.48         104.5963
   584.62         104.2179
   584.76         103.7022
   584.90         103.0601
   585.04         102.3403
   585.18         101.6063
   585.32         100.9155
   585.46         100.3189
   585.60         99.8600
   585.74         99.5747
   585.88         99.4867
   586.02         99.6000
   586.16         99.9049
   586.30         100.3883
   586.44         101.0200
   586.58         101.7381
   586.72         102.4611
   586.86         103.1028
   587.00         103.5864
   587.14         103.8594
   587.28         103.8932
   587.42         103.6775
   587.56         103.2052
   587.70         102.4296
   587.84         101.2603
   587.98         99.6389
   588.12         97.5932
   588.26         95.2127
   588.40         92.6043
   588.54         89.8801
   588.68         87.1775
   588.82         84.6703
   588.96         82.5416
   589.10         80.9420
   589.24         79.9786
   589.38         79.7171
   589.52         80.1792
   589.66         81.3385
   589.80         83.1105
   589.94         85.3479
   590.08         87.8548
   590.22         90.4057
   590.36         92.7816
   590.50         94.8319
   590.64         96.4960
   590.78         97.7571
   590.92         98.6051
   591.06         99.0581
   591.20         99.1882
   591.34         99.1033
   591.48         98.9020
   591.62         98.6532
   591.76         98.4018
   591.90         98.1813
   592.04         98.0210
   592.18         97.9379
   592.32         97.9282
   592.46         97.9761
   592.60         98.0668
   592.74         98.1811
   592.88         98.2901
   593.02         98.3644
   593.16         98.3864
   593.30         98.3584
   593.44         98.3024
   593.58         98.2470
   593.72         98.2080
   593.86         98.1839
   594.00         98.1684
   594.14         98.1560
   594.28         98.1394
   594.42         98.1013
   594.56         98.0287
   594.70         97.9346
   594.84         97.8522
   594.98         97.8220
   595.12         97.8777
   595.26         98.0301
   595.40         98.2629
   595.54         98.5518
   595.68         98.8860
   595.82         99.2736
   595.96         99.7220
   596.10         100.2120
   596.24         100.6989
   596.38         101.1331
   596.52         101.4704
   596.66         101.6711
   596.80         101.7092
   596.94         101.5853
   597.08         101.3191
   597.22         100.9370
   597.36         100.4688
   597.50         99.9476
   597.64         99.4045
   597.78         98.8659
   597.92         98.3648
   598.06         97.9516
   598.20         97.6867
   598.34         97.6199
   598.48         97.7685
   598.62         98.1096
   598.76         98.5956
   598.90         99.1769
   599.04         99.8017
   599.18         100.4067
   599.32         100.9324
   599.46         101.3356
   599.60         101.5798
   599.74         101.6342
   599.88         101.4963
   600.02         101.2042
   600.16         100.8094
   600.30         100.3508
   600.44         99.8611
   600.58         99.3768
   600.72         98.9343
   600.86         98.5578
   601.00         98.2561
   601.14         98.0304
   601.28         97.8830
   601.42         97.8214
   601.56         97.8503
   601.70         97.9665
   601.84         98.1598
   601.98         98.4168
   602.12         98.7239
   602.26         99.0737
   602.40         99.4690
   602.54         99.9071
   602.68         100.3686
   602.82         100.8244
   602.96         101.2501
   603.10         101.6346
   603.24         101.9804
   603.38         102.2985
   603.52         102.6061
   603.66         102.9188
   603.80         103.2483
   603.94         103.6005
   604.08         103.9677
   604.22         104.3272
   604.36         104.6469
   604.50         104.8903
   604.64         105.0294
   604.78         105.0553
   604.92         104.9712
   605.06         104.7814
   605.20         104.4918
   605.34         104.1242
   605.48         103.7192
   605.62         103.3290
   605.76         103.0109
   605.90         102.8187
   606.04         102.7903
   606.18         102.9366
   606.32         103.2375
   606.46         103.6504
   606.60         104.1176
   606.74         104.5692
   606.88         104.9340
   607.02         105.1518
   607.16         105.1844
   607.30         105.0204
   607.44         104.6711
   607.58         104.1611
   607.72         103.5233
   607.86         102.8034
   608.00         102.0582
   608.14         101.3479
   608.28         100.7249
   608.42         100.2272
   608.56         99.8770
   608.70         99.6734
   608.84         99.5863
   608.98         99.5654
   609.12         99.5643
   609.26         99.5555
   609.40         99.5267
   609.54         99.4792
   609.68         99.4291
   609.82         99.4037
   609.96         99.4309
   610.10         99.5301
   610.24         99.7090
   610.38         99.9630
   610.52         100.2764
   610.66         100.6189
   610.80         100.9441
   610.94         101.1956
   611.08         101.3245
   611.22         101.3009
   611.36         101.1105
   611.50         100.7529
   611.64         100.2546
   611.78         99.6779
   611.92         99.0997
   612.06         98.5812
   612.20         98.1552
   612.34         97.8138
   612.48         97.5168
   612.62         97.2291
   612.76         96.9393
   612.90         96.6428
   613.04         96.3394
   613.18         96.0443
   613.32         95.7867
   613.46         95.5995
   613.60         95.5169
   613.74         95.5634
   613.88         95.7451
   614.02         96.0557
   614.16         96.4822
   614.30         97.0037
   614.44         97.5837
   614.58         98.1628
   614.72         98.6622
   614.86         98.9938
   615.00         99.0796
   615.14         98.8915
   615.28         98.4641
   615.42         97.8538
   615.56         97.1092
   615.70         96.2747
   615.84         95.3958
   615.98         94.5181
   616.12         93.6920
   616.26         92.9740
   616.40         92.4198
   616.54         92.0804
   616.68         91.9926
   616.82         92.1657
   616.96         92.5784
   617.10         93.1884
   617.24         93.9377
   617.38         94.7496
   617.52         95.5345
   617.66         96.2114
   617.80         96.7210
   617.94         97.0182
   618.08         97.0710
   618.22         96.8782
   618.36         96.4795
   618.50         95.9505
   618.64         95.3829
   618.78         94.8588
   618.92         94.4440
   619.06         94.1956
   619.20         94.1573
   619.34         94.3481
   619.48         94.7569
   619.62         95.3446
   619.76         96.0494
   619.90         96.7909
   620.04         97.4734
   620.18         97.9989
   620.32         98.2852
   620.46         98.2866
   620.60         98.0079
   620.74         97.4927
   620.88         96.7940
   621.02         95.9583
   621.16         95.0290
   621.30         94.0539
   621.44         93.0917
   621.58         92.2133
   621.72         91.4797
   621.86         90.9133
   622.00         90.5004
   622.14         90.2161
   622.28         90.0452
   622.42         89.9819
   622.56         90.0118
   622.70         90.1004
   622.84         90.2031
   622.98         90.2832
   623.12         90.3188
   623.26         90.2953
   623.40         90.2018
   623.54         90.0444
   623.68         89.8549
   623.82         89.6757
   623.96         89.5370
   624.10         89.4474
   624.24         89.3961
   624.38         89.3569
   624.52         89.2951
   624.66         89.1787
   624.80         88.9926
   624.94         88.7402
   625.08         88.4186
   625.22         88.0035
   625.36         87.4741
   625.50         86.8485
   625.64         86.1893
   625.78         85.5833
   625.92         85.1227
   626.06         84.8906
   626.20         84.9424
   626.34         85.2889
   626.48         85.8945
   626.62         86.6927
   626.76         87.6044
   626.90         88.5513
   627.04         89.4594
   627.18         90.2678
   627.32         90.9449
   627.46         91.4959
   627.60         91.9517
   627.74         92.3484
   627.88         92.7211
   628.02         93.1086
   628.16         93.5443
   628.30         94.0404
   628.44         94.5778
   628.58         95.1099
   628.72         95.5814
   628.86         95.9424
   629.00         96.1525
   629.14         96.1879
   629.28         96.0484
   629.42         95.7585
   629.56         95.3669
   629.70         94.9434
   629.84         94.5671
   629.98         94.3069
   630.12         94.2050
   630.26         94.2715
   630.40         94.4801
   630.54         94.7710
   630.68         95.0700
   630.82         95.3096
   630.96         95.4458
   631.10         95.4630
   631.24         95.3770
   631.38         95.2324
   631.52         95.0855
   631.66         94.9906
   631.80         94.9970
   631.94         95.1447
   632.08         95.4592
   632.22         95.9491
   632.36         96.5897
   632.50         97.3161
   632.64         98.0474
   632.78         98.7130
   632.92         99.2625
   633.06         99.6639
   633.20         99.9005
   633.34         99.9731
   633.48         99.9087
   633.62         99.7582
   633.76         99.5786
   633.90         99.4175
   634.04         99.3105
   634.18         99.2747
   634.32         99.3042
   634.46         99.3748
   634.60         99.4479
   634.74         99.4732
   634.88         99.3932
   635.02         99.1540
   635.16         98.7270
   635.30         98.1244
   635.44         97.3888
   635.58         96.5842
   635.72         95.7919
   635.86         95.1010
   636.00         94.6011
   636.14         94.3707
   636.28         94.4586
   636.42         94.8709
   636.56         95.5713
   636.70         96.4871
   636.84         97.5171
   636.98         98.5518
   637.12         99.4952
   637.26         100.2764
   637.40         100.8552
   637.54         101.2262
   637.68         101.4122
   637.82         101.4520
   637.96         101.3902
   638.10         101.2641
   638.24         101.0973
   638.38         100.9053
   638.52         100.7011
   638.66         100.4972
   638.80         100.2930
   638.94         100.0775
   639.08         99.8485
   639.22         99.6208
   639.36         99.4165
   639.50         99.2559
   639.64         99.1581
   639.78         99.1389
   639.92         99.2031
   640.06         99.3384
   640.20         99.5190
   640.34         99.7135
   640.48         99.8918
   640.62         100.0282
   640.76         100.1009
   640.90         100.0972
   641.04         100.0256
   641.18         99.9119
   641.32         99.7840
   641.46         99.6679
   641.60         99.5963
   641.74         99.5965
   641.88         99.6634
   642.02         99.7641
   642.16         99.8669
   642.30         99.9611
   642.44         100.0481
   642.58         100.1291
   642.72         100.2024
   642.86         100.2719
   643.00         100.3521
   643.14         100.4623
   643.28         100.6202
   643.42         100.8377
   643.56         101.1158
   643.70         101.4327
   643.84         101.7340
   643.98         101.9534
   644.12         102.0415
   644.26         101.9764
   644.40         101.7609
   644.54         101.4283
   644.68         101.0450
   644.82         100.6873
   644.96         100.4075
   645.10         100.2208
   645.24         100.1228
   645.38         100.1106
   645.52         100.1845
   645.66         100.3366
   645.80         100.5410
   645.94         100.7552
   646.08         100.9326
   646.22         101.0354
   646.36         101.0435
   646.50         100.9695
   646.64         100.8631
   646.78         100.7832
   646.92         100.7614
   647.06         100.7957
   647.20         100.8707
   647.34         100.9698
   647.48         101.0733
   647.62         101.1620
   647.76         101.2259
   647.90         101.2624
   648.04         101.2551
   648.18         101.1596
   648.32         100.9158
   648.46         100.4729
   648.60         99.8114
   648.74         98.9533
   648.88         97.9566
   649.02         96.9037
   649.16         95.8955
   649.30         95.0389
   649.44         94.4235
   649.58         94.1090
   649.72         94.1350
   649.86         94.5246
   650.00         95.2670
   650.14         96.3042
   650.28         97.5395
   650.42         98.8537
   650.56         100.1244
   650.70         101.2504
   650.84         102.1766
   650.98         102.9004
   651.12         103.4561
   651.26         103.8925
   651.40         104.2546
   651.54         104.5743
   651.68         104.8684
   651.82         105.1394
   651.96         105.3763
   652.10         105.5601
   652.24         105.6798
   652.38         105.7386
   652.52         105.7435
   652.66         105.6993
   652.80         105.6178
   652.94         105.5195
   653.08         105.4267
   653.22         105.3575
   653.36         105.3238
   653.50         105.3266
   653.64         105.3516
   653.78         105.3715
   653.92         105.3562
   654.06         105.2785
   654.20         105.1140
   654.34         104.8460
   654.48         104.4726
   654.62         104.0088
   654.76         103.4773
   654.90         102.8846
   655.04         102.2014
   655.18         101.3929
   655.32         100.4704
   655.46         99.4971
   655.60         98.5541
   655.74         97.7165
   655.88         97.0437
   656.02         96.5740
   656.16         96.3249
   656.30         96.3008
   656.44         96.4986
   656.58         96.9086
   656.72         97.5076
   656.86         98.2543
   657.00         99.0948
   657.14         99.9735
   657.28         100.8353
   657.42         101.6240
   657.56         102.2970
   657.70         102.8501
   657.84         103.3193
   657.98         103.7370
   658.12         104.0927
   658.26         104.3466
   658.40         104.4636
   658.54         104.4276
   658.68         104.2471
   658.82         103.9661
   658.96         103.6564
   659.10         103.3856
   659.24         103.1917
   659.38         103.0785
   659.52         103.0269
   659.66         103.0112
   659.80         103.0130
   659.94         103.0227
   660.08         103.0322
   660.22         103.0328
   660.36         103.0188
   660.50         102.9908
   660.64         102.9634
   660.78         102.9719
   660.92         103.0595
   661.06         103.2482
   661.20         103.5273
   661.34         103.8672
   661.48         104.2354
   661.62         104.5894
   661.76         104.8727
   661.90         105.0312
   662.04         105.0301
   662.18         104.8646
   662.32         104.5660
   662.46         104.1902
   662.60         103.7961
   662.74         103.4288
   662.88         103.1198
   663.02         102.8902
   663.16         102.7454
   663.30         102.6762
   663.44         102.6617
   663.58         102.6728
   663.72         102.6833
   663.86         102.6815
   664.00         102.6708
   664.14         102.6612
   664.28         102.6593
   664.42         102.6690
   664.56         102.6961
   664.70         102.7469
   664.84         102.8242
   664.98         102.9178
   665.12         102.9983
   665.26         103.0252
   665.40         102.9604
   665.54         102.7810
   665.68         102.4873
   665.82         102.1022
   665.96         101.6649
   666.10         101.2210
   666.24         100.8133
   666.38         100.4725
   666.52         100.2050
   666.66         100.0012
   666.80         99.8532
   666.94         99.7593
   667.08         99.7189
   667.22         99.7278
   667.36         99.7778
   667.50         99.8602
   667.64         99.9668
   667.78         100.0935
   667.92         100.2443
   668.06         100.4278
   668.20         100.6463
   668.34         100.8846
   668.48         101.1122
   668.62         101.2979
   668.76         101.4193
   668.90         101.4617
   669.04         101.4176
   669.18         101.2934
   669.32         101.1160
   669.46         100.9226
   669.60         100.7390
   669.74         100.5733
   669.88         100.4204
   670.02         100.2691
   670.16         100.1064
   670.30         99.9149
   670.44         99.6762
   670.58         99.3809
   670.72         99.0346
   670.86         98.6570
   671.00         98.2817
   671.14         97.9544
   671.28         97.7218
   671.42         97.6135
   671.56         97.6376
   671.70         97.7855
   671.84         98.0355
   671.98         98.3569
   672.12         98.7146
   672.26         99.0730
   672.40         99.3994
   672.54         99.6632
   672.68         99.8380
   672.82         99.9097
   672.96         99.8797
   673.10         99.7609
   673.24         99.5736
   673.38         99.3394
   673.52         99.0735
   673.66         98.7845
   673.80         98.4787
   673.94         98.1586
   674.08         97.8246
   674.22         97.4852
   674.36         97.1602
   674.50         96.8768
   674.64         96.6687
   674.78         96.5689
   674.92         96.5952
   675.06         96.7449
   675.20         97.0029
   675.34         97.3464
   675.48         97.7430
   675.62         98.1504
   675.76         98.5215
   675.90         98.8171
   676.04         99.0136
   676.18         99.1052
   676.32         99.1056
   676.46         99.0422
   676.60         98.9503
   676.74         98.8700
   676.88         98.8416
   677.02         98.8894
   677.16         99.0079
   677.30         99.1655
   677.44         99.3218
   677.58         99.4448
   677.72         99.5195
   677.86         99.5432
   678.00         99.5134
   678.14         99.4306
   678.28         99.3060
   678.42         99.1621
   678.56         99.0282
   678.70         98.9365
   678.84         98.9161
   678.98         98.9832
   679.12         99.1370
   679.26         99.3642
   679.40         99.6429
   679.54         99.9458
   679.68         100.2443
   679.82         100.5172
   679.96         100.7603
   680.10         100.9823
   680.24         101.1880
   680.38         101.3692
   680.52         101.5081
   680.66         101.5884
   680.80         101.6018
   680.94         101.5517
   681.08         101.4538
   681.22         101.3291
   681.36         101.1973
   681.50         101.0718
   681.64         100.9581
   681.78         100.8583
   681.92         100.7729
   682.06         100.7007
   682.20         100.6404
   682.34         100.5926
   682.48         100.5572
   682.62         100.5283
   682.76         100.4907
   682.90         100.4235
   683.04         100.3084
   683.18         100.1372
   683.32         99.9152
   683.46         99.6568
   683.60         99.3837
   683.74         99.1193
   683.88         98.8841
   684.02         98.6972
   684.16         98.5749
   684.30         98.5257
   684.44         98.5484
   684.58         98.6333
   684.72         98.7632
   684.86         98.9107
   685.00         99.0390
   685.14         99.1126
   685.28         99.1032
   685.42         98.9797
   685.56         98.6951
   685.70         98.1894
   685.84         97.4087
   685.98         96.3190
   686.12         94.9133
   686.26         93.2219
   686.40         91.3167
   686.54         89.3070
   686.68         87.3263
   686.82         85.5131
   686.96         83.9946
   687.10         82.8766
   687.24         82.2337
   687.38         82.0961
   687.52         82.4438
   687.66         83.2124
   687.80         84.3018
   687.94         85.5809
   688.08         86.8991
   688.22         88.1165
   688.36         89.1391
   688.50         89.9291
   688.64         90.4958
   688.78         90.8785
   688.92         91.1326
   689.06         91.3179
   689.20         91.4859
   689.34         91.6764
   689.48         91.9160
   689.62         92.2167
   689.76         92.5779
   689.90         92.9880
   690.04         93.4250
   690.18         93.8593
   690.32         94.2629
   690.46         94.6168
   690.60         94.9111
   690.74         95.1466
   690.88         95.3398
   691.02         95.5141
   691.16         95.6828
   691.30         95.8465
   691.44         96.0005
   691.58         96.1426
   691.72         96.2742
   691.86         96.3967
   692.00         96.5098
   692.14         96.6087
   692.28         96.6851
   692.42         96.7355
   692.56         96.7600
   692.70         96.7597
   692.84         96.7405
   692.98         96.7175
   693.12         96.7071
   693.26         96.7151
   693.40         96.7389
   693.54         96.7733
   693.68         96.8095
   693.82         96.8393
   693.96         96.8634
   694.10         96.8901
   694.24         96.9273
   694.38         96.9770
   694.52         97.0367
   694.66         97.1033
   694.80         97.1758
   694.94         97.2587
   695.08         97.3583
   695.22         97.4782
   695.36         97.6203
   695.50         97.7917
   695.64         98.0071
   695.78         98.2773
   695.92         98.6002
   696.06         98.9663
   696.20         99.3660
   696.34         99.7823
   696.48         100.1801
   696.62         100.5022
   696.76         100.6865
   696.90         100.6932
   697.04         100.5155
   697.18         100.1765
   697.32         99.7202
   697.46         99.2023
   697.60         98.6784
   697.74         98.1965
   697.88         97.7957
   698.02         97.5050
   698.16         97.3420
   698.30         97.3096
   698.44         97.3941
   698.58         97.5711
   698.72         97.8067
   698.86         98.0586
   699.00         98.2805
   699.14         98.4310
   699.28         98.4817
   699.42         98.4317
   699.56         98.3057
   699.70         98.1343
   699.84         97.9409
   699.98         97.7431
   700.12         97.5554
   700.26         97.3854
   700.40         97.2286
   700.54         97.0750
   700.68         96.9266
   700.82         96.7990
   700.96         96.7055
   701.10         96.6460
   701.24         96.6043
   701.38         96.5596
   701.52         96.5022
   701.66         96.4349
   701.80         96.3659
   701.94         96.3064
   702.08         96.2736
   702.22         96.2873
   702.36         96.3571
   702.50         96.4796
   702.64         96.6413
   702.78         96.8225
   702.92         97.0083
   703.06         97.1986
   703.20         97.4102
   703.34         97.6637
   703.48         97.9626
   703.62         98.2921
   703.76         98.6360
   703.90         98.9798
   704.04         99.3029
   704.18         99.5768
   704.32         99.7763
   704.46         99.8880
   704.60         99.9062
   704.74         99.8267
   704.88         99.6457
   705.02         99.3646
   705.16         98.9940
   705.30         98.5501
   705.44         98.0535
   705.58         97.5272
   705.72         96.9890
   705.86         96.4552
   706.00         95.9492
   706.14         95.5009
   706.28         95.1393
   706.42         94.8875
   706.56         94.7586
   706.70         94.7604
   706.84         94.9022
   706.98         95.1886
   707.12         95.6004
   707.26         96.0872
   707.40         96.5793
   707.54         97.0021
   707.68         97.2898
   707.82         97.3945
   707.96         97.2954
   708.10         97.0051
   708.24         96.5647
   708.38         96.0321
   708.52         95.4720
   708.66         94.9476
   708.80         94.5110
   708.94         94.1960
   709.08         94.0158
   709.22         93.9652
   709.36         94.0280
   709.50         94.1769
   709.64         94.3694
   709.78         94.5513
   709.92         94.6711
   710.06         94.6961
   710.20         94.6213
   710.34         94.4694
   710.48         94.2795
   710.62         94.0932
   710.76         93.9458
   710.90         93.8634
   711.04         93.8607
   711.18         93.9421
   711.32         94.1000
   711.46         94.3079
   711.60         94.5242
   711.74         94.7075
   711.88         94.8263
   712.02         94.8595
   712.16         94.7950
   712.30         94.6336
   712.44         94.3953
   712.58         94.1213
   712.72         93.8634
   712.86         93.6672
   713.00         93.5617
   713.14         93.5542
   713.28         93.6325
   713.42         93.7724
   713.56         93.9443
   713.70         94.1139
   713.84         94.2483
   713.98         94.3238
   714.12         94.3311
   714.26         94.2793
   714.40         94.1914
   714.54         94.0970
   714.68         94.0285
   714.82         94.0164
   714.96         94.0788
   715.10         94.2162
   715.24         94.4129
   715.38         94.6392
   715.52         94.8575
   715.66         95.0328
   715.80         95.1361
   715.94         95.1423
   716.08         95.0340
   716.22         94.8034
   716.36         94.4512
   716.50         93.9886
   716.64         93.4380
   716.78         92.8271
   716.92         92.1834
   717.06         91.5294
   717.20         90.8818
   717.34         90.2489
   717.48         89.6253
   717.62         88.9950
   717.76         88.3421
   717.90         87.6614
   718.04         86.9612
   718.18         86.2615
   718.32         85.5934
   718.46         84.9947
   718.60         84.5063
   718.74         84.1672
   718.88         84.0029
   719.02         84.0199
   719.16         84.2110
   719.30         84.5556
   719.44         85.0170
   719.58         85.5457
   719.72         86.0948
   719.86         86.6376
   720.00         87.1700
   720.14         87.7074
   720.28         88.2764
   720.42         88.9026
   720.56         89.6083
   720.70         90.4125
   720.84         91.3281
   720.98         92.3565
   721.12         93.4790
   721.26         94.6514
   721.40         95.8095
   721.54         96.8857
   721.68         97.8256
   721.82         98.5901
   721.96         99.1538
   722.10         99.5059
   722.24         99.6494
   722.38         99.6002
   722.52         99.3811
   722.66         99.0170
   722.80         98.5352
   722.94         97.9614
   723.08         97.3181
   723.22         96.6330
   723.36         95.9412
   723.50         95.2808
   723.64         94.6907
   723.78         94.2036
   723.92         93.8387
   724.06         93.5976
   724.20         93.4619
   724.34         93.3999
   724.48         93.3823
   724.62         93.3897
   724.76         93.4094
   724.90         93.4309
   725.04         93.4487
   725.18         93.4611
   725.32         93.4675
   725.46         93.4672
   725.60         93.4600
   725.74         93.4543
   725.88         93.4698
   726.02         93.5276
   726.16         93.6364
   726.30         93.7820
   726.44         93.9270
   726.58         94.0240
   726.72         94.0348
   726.86         93.9498
   727.00         93.7923
   727.14         93.5978
   727.28         93.3928
   727.42         93.1956
   727.56         93.0202
   727.70         92.8715
   727.84         92.7395
   727.98         92.6041
   728.12         92.4431
   728.26         92.2401
   728.40         91.9877
   728.54         91.6872
   728.68         91.3504
   728.82         91.0002
   728.96         90.6666
   729.10         90.3817
   729.24         90.1775
   729.38         90.0835
   729.52         90.1189
   729.66         90.2862
   729.80         90.5664
   729.94         90.9251
   730.08         91.3228
   730.22         91.7159
   730.36         92.0618
   730.50         92.3329
   730.64         92.5221
   730.78         92.6399
   730.92         92.7085
   731.06         92.7532
   731.20         92.7957
   731.34         92.8484
   731.48         92.9112
   731.62         92.9749
   731.76         93.0299
   731.90         93.0747
   732.04         93.1148
   732.18         93.1544
   732.32         93.1939
   732.46         93.2335
   732.60         93.2783
   732.74         93.3393
   732.88         93.4288
   733.02         93.5564
   733.16         93.7258
   733.30         93.9300
   733.44         94.1507
   733.58         94.3671
   733.72         94.5608
   733.86         94.7162
   734.00         94.8173
   734.14         94.8507
   734.28         94.8106
   734.42         94.6981
   734.56         94.5149
   734.70         94.2642
   734.84         93.9538
   734.98         93.6027
   735.12         93.2392
   735.26         92.8884
   735.40         92.5635
   735.54         92.2692
   735.68         92.0099
   735.82         91.7924
   735.96         91.6248
   736.10         91.5191
   736.24         91.4951
   736.38         91.5741
   736.52         91.7661
   736.66         92.0643
   736.80         92.4529
   736.94         92.9113
   737.08         93.4101
   737.22         93.9110
   737.36         94.3725
   737.50         94.7516
   737.64         95.0054
   737.78         95.0961
   737.92         94.9976
   738.06         94.7067
   738.20         94.2487
   738.34         93.6739
   738.48         93.0448
   738.62         92.4251
   738.76         91.8704
   738.90         91.4218
   739.04         91.1027
   739.18         90.9213
   739.32         90.8780
   739.46         90.9651
   739.60         91.1614
   739.74         91.4316
   739.88         91.7331
   740.02         92.0232
   740.16         92.2651
   740.30         92.4312
   740.44         92.5038
   740.58         92.4749
   740.72         92.3477
   740.86         92.1358
   741.00         91.8581
   741.14         91.5308
   741.28         91.1683
   741.42         90.7901
   741.56         90.4307
   741.70         90.1333
   741.84         89.9300
   741.98         89.8316
   742.12         89.8285
   742.26         89.8983
   742.40         90.0123
   742.54         90.1373
   742.68         90.2409
   742.82         90.2987
   742.96         90.2987
   743.10         90.2409
   743.24         90.1373
   743.38         90.0123
   743.52         89.8983
   743.66         89.8285
   743.80         89.8316
   743.94         89.9300
   744.08         90.1333
   744.22         90.4307
