# File HD27685
# Wavelength [nm]    Normalized Amplitude
   349.70         13.4842
   349.84         13.4928
   349.98         13.5411
   350.12         13.6140
   350.26         13.6949
   350.40         13.7717
   350.54         13.8393
   350.68         13.8961
   350.82         13.9391
   350.96         13.9651
   351.10         13.9738
   351.24         13.9651
   351.38         13.9391
   351.52         13.8961
   351.66         13.8393
   351.80         13.7717
   351.94         13.6949
   352.08         13.6140
   352.22         13.5411
   352.36         13.4928
   352.50         13.4842
   352.64         13.5239
   352.78         13.6168
   352.92         13.7680
   353.06         13.9772
   353.20         14.2338
   353.34         14.5171
   353.48         14.8036
   353.62         15.0752
   353.76         15.3214
   353.90         15.5363
   354.04         15.7145
   354.18         15.8516
   354.32         15.9463
   354.46         15.9971
   354.60         15.9982
   354.74         15.9448
   354.88         15.8402
   355.02         15.6943
   355.16         15.5176
   355.30         15.3169
   355.44         15.0962
   355.58         14.8578
   355.72         14.5994
   355.86         14.3178
   356.00         14.0138
   356.14         13.6942
   356.28         13.3705
   356.42         13.0545
   356.56         12.7532
   356.70         12.4695
   356.84         12.2046
   356.98         11.9574
   357.12         11.7215
   357.26         11.4878
   357.40         11.2519
   357.54         11.0134
   357.68         10.7741
   357.82         10.5406
   357.96         10.3285
   358.10         10.1628
   358.24         10.0708
   358.38         10.0794
   358.52         10.2148
   358.66         10.4965
   358.80         10.9281
   358.94         11.4919
   359.08         12.1474
   359.22         12.8363
   359.36         13.4953
   359.50         14.0684
   359.64         14.5125
   359.78         14.8007
   359.92         14.9236
   360.06         14.8906
   360.20         14.7283
   360.34         14.4760
   360.48         14.1770
   360.62         13.8673
   360.76         13.5725
   360.90         13.3119
   361.04         13.1032
   361.18         12.9613
   361.32         12.8960
   361.46         12.9133
   361.60         13.0152
   361.74         13.1945
   361.88         13.4321
   362.02         13.6997
   362.16         13.9692
   362.30         14.2187
   362.44         14.4336
   362.58         14.6076
   362.72         14.7432
   362.86         14.8490
   363.00         14.9348
   363.14         15.0047
   363.28         15.0580
   363.42         15.0951
   363.56         15.1204
   363.70         15.1383
   363.84         15.1516
   363.98         15.1618
   364.12         15.1709
   364.26         15.1794
   364.40         15.1880
   364.54         15.2043
   364.68         15.2493
   364.82         15.3543
   364.96         15.5475
   365.10         15.8423
   365.24         16.2331
   365.38         16.6981
   365.52         17.2017
   365.66         17.6987
   365.80         18.1416
   365.94         18.4937
   366.08         18.7369
   366.22         18.8707
   366.36         18.9073
   366.50         18.8654
   366.64         18.7659
   366.78         18.6269
   366.92         18.4615
   367.06         18.2821
   367.20         18.1025
   367.34         17.9334
   367.48         17.7748
   367.62         17.6194
   367.76         17.4603
   367.90         17.2986
   368.04         17.1468
   368.18         17.0226
   368.32         16.9417
   368.46         16.9151
   368.60         16.9524
   368.74         17.0601
   368.88         17.2364
   369.02         17.4697
   369.16         17.7383
   369.30         18.0124
   369.44         18.2564
   369.58         18.4356
   369.72         18.5224
   369.86         18.5012
   370.00         18.3721
   370.14         18.1556
   370.28         17.8929
   370.42         17.6350
   370.56         17.4272
   370.70         17.2940
   370.84         17.2311
   370.98         17.2139
   371.12         17.2135
   371.26         17.2073
   371.40         17.1806
   371.54         17.1230
   371.68         17.0243
   371.82         16.8776
   371.96         16.6828
   372.10         16.4459
   372.24         16.1747
   372.38         15.8761
   372.52         15.5602
   372.66         15.2406
   372.80         14.9317
   372.94         14.6477
   373.08         14.3960
   373.22         14.1718
   373.36         13.9620
   373.50         13.7567
   373.64         13.5557
   373.78         13.3670
   373.92         13.2037
   374.06         13.0809
   374.20         13.0120
   374.34         13.0077
   374.48         13.0742
   374.62         13.2064
   374.76         13.3879
   374.90         13.6017
   375.04         13.8390
   375.18         14.0998
   375.32         14.3837
   375.46         14.6821
   375.60         14.9756
   375.74         15.2366
   375.88         15.4403
   376.02         15.5776
   376.16         15.6603
   376.30         15.7171
   376.44         15.7877
   376.58         15.9149
   376.72         16.1315
   376.86         16.4519
   377.00         16.8717
   377.14         17.3691
   377.28         17.9117
   377.42         18.4637
   377.56         18.9872
   377.70         19.4433
   377.84         19.7971
   377.98         20.0237
   378.12         20.1101
   378.26         20.0545
   378.40         19.8644
   378.54         19.5546
   378.68         19.1466
   378.82         18.6693
   378.96         18.1593
   379.10         17.6599
   379.24         17.2167
   379.38         16.8700
   379.52         16.6480
   379.66         16.5633
   379.80         16.6132
   379.94         16.7823
   380.08         17.0418
   380.22         17.3507
   380.36         17.6613
   380.50         17.9276
   380.64         18.1092
   380.78         18.1716
   380.92         18.0869
   381.06         17.8431
   381.20         17.4478
   381.34         16.9231
   381.48         16.3014
   381.62         15.6215
   381.76         14.9225
   381.90         14.2363
   382.04         13.5841
   382.18         12.9794
   382.32         12.4339
   382.46         11.9568
   382.60         11.5499
   382.74         11.2058
   382.88         10.9160
   383.02         10.6809
   383.16         10.5134
   383.30         10.4316
   383.44         10.4507
   383.58         10.5806
   383.72         10.8245
   383.86         11.1731
   384.00         11.6057
   384.14         12.0974
   384.28         12.6220
   384.42         13.1490
   384.56         13.6431
   384.70         14.0661
   384.84         14.3858
   384.98         14.5852
   385.12         14.6656
   385.26         14.6445
   385.40         14.5509
   385.54         14.4197
   385.68         14.2844
   385.82         14.1694
   385.96         14.0864
   386.10         14.0371
   386.24         14.0201
   386.38         14.0345
   386.52         14.0790
   386.66         14.1490
   386.80         14.2346
   386.94         14.3220
   387.08         14.3988
   387.22         14.4583
   387.36         14.5003
   387.50         14.5287
   387.64         14.5481
   387.78         14.5624
   387.92         14.5752
   388.06         14.5922
   388.20         14.6232
   388.34         14.6809
   388.48         14.7800
   388.62         14.9353
   388.76         15.1585
   388.90         15.4536
   389.04         15.8120
   389.18         16.2106
   389.32         16.6177
   389.46         17.0038
   389.60         17.3492
   389.74         17.6467
   389.88         17.8989
   390.02         18.1134
   390.16         18.3019
   390.30         18.4816
   390.44         18.6710
   390.58         18.8808
   390.72         19.1076
   390.86         19.3324
   391.00         19.5254
   391.14         19.6562
   391.28         19.6993
   391.42         19.6337
   391.56         19.4413
   391.70         19.1078
   391.84         18.6251
   391.98         17.9945
   392.12         17.2291
   392.26         16.3530
   392.40         15.3987
   392.54         14.4037
   392.68         13.4109
   392.82         12.4697
   392.96         11.6319
   393.10         10.9445
   393.24         10.4450
   393.38         10.1614
   393.52         10.1119
   393.66         10.3037
   393.80         10.7306
   393.94         11.3689
   394.08         12.1761
   394.22         13.0947
   394.36         14.0630
   394.50         15.0223
   394.64         15.9216
   394.78         16.7220
   394.92         17.3936
   395.06         17.9110
   395.20         18.2521
   395.34         18.3986
   395.48         18.3379
   395.62         18.0627
   395.76         17.5765
   395.90         16.9008
   396.04         16.0798
   396.18         15.1767
   396.32         14.2672
   396.46         13.4331
   396.60         12.7543
   396.74         12.3004
   396.88         12.1250
   397.02         12.2595
   397.16         12.7080
   397.30         13.4468
   397.44         14.4265
   397.58         15.5785
   397.72         16.8259
   397.86         18.0944
   398.00         19.3199
   398.14         20.4530
   398.28         21.4612
   398.42         22.3269
   398.56         23.0449
   398.70         23.6225
   398.84         24.0784
   398.98         24.4378
   399.12         24.7245
   399.26         24.9529
   399.40         25.1271
   399.54         25.2475
   399.68         25.3190
   399.82         25.3531
   399.96         25.3664
   400.10         25.3781
   400.24         25.4066
   400.38         25.4641
   400.52         25.5558
   400.66         25.6819
   400.80         25.8394
   400.94         26.0219
   401.08         26.2199
   401.22         26.4243
   401.36         26.6281
   401.50         26.8235
   401.64         26.9985
   401.78         27.1352
   401.92         27.2139
   402.06         27.2210
   402.20         27.1550
   402.34         27.0258
   402.48         26.8506
   402.62         26.6521
   402.76         26.4548
   402.90         26.2800
   403.04         26.1409
   403.18         26.0401
   403.32         25.9674
   403.46         25.9049
   403.60         25.8391
   403.74         25.7680
   403.88         25.6979
   404.02         25.6363
   404.16         25.5854
   404.30         25.5411
   404.44         25.4957
   404.58         25.4443
   404.72         25.3890
   404.86         25.3385
   405.00         25.2991
   405.14         25.2666
   405.28         25.2270
   405.42         25.1637
   405.56         25.0657
   405.70         24.9319
   405.84         24.7684
   405.98         24.5901
   406.12         24.4237
   406.26         24.3026
   406.40         24.2479
   406.54         24.2584
   406.68         24.3177
   406.82         24.4101
   406.96         24.5291
   407.10         24.6753
   407.24         24.8487
   407.38         25.0463
   407.52         25.2655
   407.66         25.5073
   407.80         25.7771
   407.94         26.0829
   408.08         26.4274
   408.22         26.8020
   408.36         27.1823
   408.50         27.5332
   408.64         27.8188
   408.78         28.0063
   408.92         28.0640
   409.06         27.9665
   409.20         27.7090
   409.34         27.3154
   409.48         26.8327
   409.62         26.3161
   409.76         25.8172
   409.90         25.3827
   410.04         25.0572
   410.18         24.8796
   410.32         24.8721
   410.46         25.0340
   410.60         25.3429
   410.74         25.7613
   410.88         26.2425
   411.02         26.7375
   411.16         27.2032
   411.30         27.6073
   411.44         27.9288
   411.58         28.1600
   411.72         28.3078
   411.86         28.3877
   412.00         28.4119
   412.14         28.3845
   412.28         28.3065
   412.42         28.1837
   412.56         28.0318
   412.70         27.8758
   412.84         27.7386
   412.98         27.6329
   413.12         27.5579
   413.26         27.5037
   413.40         27.4620
   413.54         27.4305
   413.68         27.4094
   413.82         27.3982
   413.96         27.3936
   414.10         27.3886
   414.24         27.3722
   414.38         27.3327
   414.52         27.2619
   414.66         27.1615
   414.80         27.0461
   414.94         26.9413
   415.08         26.8765
   415.22         26.8754
   415.36         26.9467
   415.50         27.0811
   415.64         27.2593
   415.78         27.4627
   415.92         27.6774
   416.06         27.8884
   416.20         28.0712
   416.34         28.1965
   416.48         28.2410
   416.62         28.1921
   416.76         28.0493
   416.90         27.8241
   417.04         27.5376
   417.18         27.2190
   417.32         26.9013
   417.46         26.6139
   417.60         26.3758
   417.74         26.1945
   417.88         26.0689
   418.02         25.9930
   418.16         25.9615
   418.30         25.9699
   418.44         26.0081
   418.58         26.0560
   418.72         26.0891
   418.86         26.0892
   419.00         26.0496
   419.14         25.9727
   419.28         25.8686
   419.42         25.7553
   419.56         25.6539
   419.70         25.5841
   419.84         25.5623
   419.98         25.6009
   420.12         25.7068
   420.26         25.8803
   420.40         26.1148
   420.54         26.3967
   420.68         26.7074
   420.82         27.0249
   420.96         27.3236
   421.10         27.5747
   421.24         27.7491
   421.38         27.8200
   421.52         27.7661
   421.66         27.5810
   421.80         27.2827
   421.94         26.9091
   422.08         26.5045
   422.22         26.1068
   422.36         25.7443
   422.50         25.4362
   422.64         25.1962
   422.78         25.0348
   422.92         24.9585
   423.06         24.9691
   423.20         25.0661
   423.34         25.2433
   423.48         25.4827
   423.62         25.7518
   423.76         26.0077
   423.90         26.2104
   424.04         26.3375
   424.18         26.3902
   424.32         26.3884
   424.46         26.3565
   424.60         26.3098
   424.74         26.2491
   424.88         26.1651
   425.02         26.0517
   425.16         25.9178
   425.30         25.7872
   425.44         25.6884
   425.58         25.6410
   425.72         25.6496
   425.86         25.7015
   426.00         25.7675
   426.14         25.8117
   426.28         25.8038
   426.42         25.7304
   426.56         25.5994
   426.70         25.4335
   426.84         25.2574
   426.98         25.0905
   427.12         24.9489
   427.26         24.8443
   427.40         24.7823
   427.54         24.7654
   427.68         24.7950
   427.82         24.8662
   427.96         24.9610
   428.10         25.0538
   428.24         25.1187
   428.38         25.1335
   428.52         25.0810
   428.66         24.9501
   428.80         24.7385
   428.94         24.4509
   429.08         24.0968
   429.22         23.6885
   429.36         23.2362
   429.50         22.7459
   429.64         22.2222
   429.78         21.6731
   429.92         21.1138
   430.06         20.5695
   430.20         20.0768
   430.34         19.6825
   430.48         19.4389
   430.62         19.3969
   430.76         19.5936
   430.90         20.0398
   431.04         20.7126
   431.18         21.5577
   431.32         22.4986
   431.46         23.4520
   431.60         24.3462
   431.74         25.1337
   431.88         25.7876
   432.02         26.2956
   432.16         26.6593
   432.30         26.8952
   432.44         27.0319
   432.58         27.1014
   432.72         27.1266
   432.86         27.1167
   433.00         27.0715
   433.14         26.9885
   433.28         26.8664
   433.42         26.7067
   433.56         26.5151
   433.70         26.3042
   433.84         26.0959
   433.98         25.9177
   434.12         25.8007
   434.26         25.7759
   434.40         25.8639
   434.54         26.0673
   434.68         26.3705
   434.82         26.7441
   434.96         27.1536
   435.10         27.5666
   435.24         27.9587
   435.38         28.3186
   435.52         28.6480
   435.66         28.9588
   435.80         29.2652
   435.94         29.5732
   436.08         29.8755
   436.22         30.1523
   436.36         30.3756
   436.50         30.5187
   436.64         30.5649
   436.78         30.5130
   436.92         30.3735
   437.06         30.1562
   437.20         29.8613
   437.34         29.4834
   437.48         29.0276
   437.62         28.5160
   437.76         27.9806
   437.90         27.4544
   438.04         26.9685
   438.18         26.5516
   438.32         26.2289
   438.46         26.0207
   438.60         25.9400
   438.74         25.9890
   438.88         26.1565
   439.02         26.4202
   439.16         26.7489
   439.30         27.1002
   439.44         27.4236
   439.58         27.6735
   439.72         27.8210
   439.86         27.8634
   440.00         27.8277
   440.14         27.7586
   440.28         27.6970
   440.42         27.6694
   440.56         27.6935
   440.70         27.7861
   440.84         27.9598
   440.98         28.2159
   441.12         28.5415
   441.26         28.9125
   441.40         29.2983
   441.54         29.6684
   441.68         29.9992
   441.82         30.2748
   441.96         30.4859
   442.10         30.6320
   442.24         30.7198
   442.38         30.7567
   442.52         30.7512
   442.66         30.7152
   442.80         30.6614
   442.94         30.5976
   443.08         30.5300
   443.22         30.4688
   443.36         30.4264
   443.50         30.4105
   443.64         30.4216
   443.78         30.4587
   443.92         30.5236
   444.06         30.6159
   444.20         30.7255
   444.34         30.8314
   444.48         30.9069
   444.62         30.9287
   444.76         30.8829
   444.90         30.7657
   445.04         30.5831
   445.18         30.3521
   445.32         30.0952
   445.46         29.8335
   445.60         29.5856
   445.74         29.3726
   445.88         29.2178
   446.02         29.1422
   446.16         29.1602
   446.30         29.2771
   446.44         29.4901
   446.58         29.7870
   446.72         30.1434
   446.86         30.5231
   447.00         30.8881
   447.14         31.2102
   447.28         31.4770
   447.42         31.6895
   447.56         31.8535
   447.70         31.9744
   447.84         32.0563
   447.98         32.1034
   448.12         32.1212
   448.26         32.1156
   448.40         32.0930
   448.54         32.0638
   448.68         32.0426
   448.82         32.0427
   448.96         32.0730
   449.10         32.1380
   449.24         32.2389
   449.38         32.3731
   449.52         32.5362
   449.66         32.7261
   449.80         32.9444
   449.94         33.1891
   450.08         33.4482
   450.22         33.6973
   450.36         33.9087
   450.50         34.0623
   450.64         34.1487
   450.78         34.1684
   450.92         34.1280
   451.06         34.0398
   451.20         33.9194
   451.34         33.7778
   451.48         33.6156
   451.62         33.4272
   451.76         33.2070
   451.90         32.9513
   452.04         32.6601
   452.18         32.3378
   452.32         31.9935
   452.46         31.6445
   452.60         31.3156
   452.74         31.0313
   452.88         30.8106
   453.02         30.6688
   453.16         30.6164
   453.30         30.6526
   453.44         30.7641
   453.58         30.9269
   453.72         31.1087
   453.86         31.2752
   454.00         31.3999
   454.14         31.4689
   454.28         31.4828
   454.42         31.4546
   454.56         31.4053
   454.70         31.3612
   454.84         31.3485
   454.98         31.3898
   455.12         31.4987
   455.26         31.6742
   455.40         31.8999
   455.54         32.1540
   455.68         32.4185
   455.82         32.6772
   455.96         32.9137
   456.10         33.1155
   456.24         33.2785
   456.38         33.4043
   456.52         33.4991
   456.66         33.5675
   456.80         33.6076
   456.94         33.6151
   457.08         33.5875
   457.22         33.5240
   457.36         33.4230
   457.50         33.2829
   457.64         33.1051
   457.78         32.8984
   457.92         32.6789
   458.06         32.4666
   458.20         32.2809
   458.34         32.1356
   458.48         32.0348
   458.62         31.9753
   458.76         31.9521
   458.90         31.9583
   459.04         31.9839
   459.18         32.0192
   459.32         32.0583
   459.46         32.1016
   459.60         32.1565
   459.74         32.2324
   459.88         32.3366
   460.02         32.4728
   460.16         32.6392
   460.30         32.8302
   460.44         33.0352
   460.58         33.2379
   460.72         33.4203
   460.86         33.5696
   461.00         33.6790
   461.14         33.7474
   461.28         33.7795
   461.42         33.7824
   461.56         33.7648
   461.70         33.7383
   461.84         33.7148
   461.98         33.7016
   462.12         33.7012
   462.26         33.7112
   462.40         33.7237
   462.54         33.7258
   462.68         33.7040
   462.82         33.6493
   462.96         33.5600
   463.10         33.4383
   463.24         33.2870
   463.38         33.1099
   463.52         32.9117
   463.66         32.6971
   463.80         32.4728
   463.94         32.2498
   464.08         32.0426
   464.22         31.8656
   464.36         31.7288
   464.50         31.6358
   464.64         31.5880
   464.78         31.5877
   464.92         31.6361
   465.06         31.7298
   465.20         31.8587
   465.34         32.0057
   465.48         32.1477
   465.62         32.2580
   465.76         32.3140
   465.90         32.3043
   466.04         32.2306
   466.18         32.1052
   466.32         31.9503
   466.46         31.7934
   466.60         31.6596
   466.74         31.5643
   466.88         31.5128
   467.02         31.5041
   467.16         31.5369
   467.30         31.6114
   467.44         31.7229
   467.58         31.8568
   467.72         31.9911
   467.86         32.1029
   468.00         32.1748
   468.14         32.2011
   468.28         32.1884
   468.42         32.1522
   468.56         32.1087
   468.70         32.0662
   468.84         32.0227
   468.98         31.9701
   469.12         31.8968
   469.26         31.7906
   469.40         31.6462
   469.54         31.4681
   469.68         31.2663
   469.82         31.0546
   469.96         30.8484
   470.10         30.6631
   470.24         30.5139
   470.38         30.4158
   470.52         30.3832
   470.66         30.4273
   470.80         30.5538
   470.94         30.7604
   471.08         31.0351
   471.22         31.3587
   471.36         31.7061
   471.50         32.0494
   471.64         32.3604
   471.78         32.6129
   471.92         32.7870
   472.06         32.8746
   472.20         32.8775
   472.34         32.8046
   472.48         32.6712
   472.62         32.4992
   472.76         32.3137
   472.90         32.1382
   473.04         31.9934
   473.18         31.8972
   473.32         31.8625
   473.46         31.8948
   473.60         31.9917
   473.74         32.1432
   473.88         32.3334
   474.02         32.5422
   474.16         32.7459
   474.30         32.9210
   474.44         33.0508
   474.58         33.1301
   474.72         33.1645
   474.86         33.1644
   475.00         33.1382
   475.14         33.0899
   475.28         33.0222
   475.42         32.9364
   475.56         32.8321
   475.70         32.7120
   475.84         32.5816
   475.98         32.4471
   476.12         32.3152
   476.26         32.1949
   476.40         32.0980
   476.54         32.0361
   476.68         32.0197
   476.82         32.0570
   476.96         32.1529
   477.10         32.3064
   477.24         32.5074
   477.38         32.7378
   477.52         32.9722
   477.66         33.1819
   477.80         33.3440
   477.94         33.4486
   478.08         33.4980
   478.22         33.5050
   478.36         33.4891
   478.50         33.4698
   478.64         33.4622
   478.78         33.4761
   478.92         33.5147
   479.06         33.5753
   479.20         33.6504
   479.34         33.7292
   479.48         33.7975
   479.62         33.8396
   479.76         33.8418
   479.90         33.7987
   480.04         33.7153
   480.18         33.6024
   480.32         33.4755
   480.46         33.3542
   480.60         33.2560
   480.74         33.1935
   480.88         33.1724
   481.02         33.1892
   481.16         33.2331
   481.30         33.2900
   481.44         33.3466
   481.58         33.3914
   481.72         33.4140
   481.86         33.4077
   482.00         33.3701
   482.14         33.3016
   482.28         33.2060
   482.42         33.0909
   482.56         32.9663
   482.70         32.8406
   482.84         32.7205
   482.98         32.6127
   483.12         32.5237
   483.26         32.4569
   483.40         32.4132
   483.54         32.3890
   483.68         32.3795
   483.82         32.3819
   483.96         32.3925
   484.10         32.4037
   484.24         32.4024
   484.38         32.3735
   484.52         32.3039
   484.66         32.1807
   484.80         31.9862
   484.94         31.7007
   485.08         31.3089
   485.22         30.8088
   485.36         30.2191
   485.50         29.5794
   485.64         28.9403
   485.78         28.3517
   485.92         27.8535
   486.06         27.4700
   486.20         27.2161
   486.34         27.1018
   486.48         27.1290
   486.62         27.2855
   486.76         27.5485
   486.90         27.8907
   487.04         28.2837
   487.18         28.7011
   487.32         29.1162
   487.46         29.5009
   487.60         29.8323
   487.74         30.1011
   487.88         30.3084
   488.02         30.4574
   488.16         30.5502
   488.30         30.5932
   488.44         30.6022
   488.58         30.5993
   488.72         30.6104
   488.86         30.6626
   489.00         30.7751
   489.14         30.9533
   489.28         31.1897
   489.42         31.4702
   489.56         31.7779
   489.70         32.0912
   489.84         32.3817
   489.98         32.6177
   490.12         32.7722
   490.26         32.8352
   490.40         32.8165
   490.54         32.7367
   490.68         32.6181
   490.82         32.4774
   490.96         32.3225
   491.10         32.1541
   491.24         31.9705
   491.38         31.7718
   491.52         31.5641
   491.66         31.3618
   491.80         31.1862
   491.94         31.0603
   492.08         31.0026
   492.22         31.0216
   492.36         31.1129
   492.50         31.2636
   492.64         31.4578
   492.78         31.6762
   492.92         31.8962
   493.06         32.0956
   493.20         32.2568
   493.34         32.3665
   493.48         32.4208
   493.62         32.4300
   493.76         32.4163
   493.90         32.4035
   494.04         32.4103
   494.18         32.4488
   494.32         32.5228
   494.46         32.6269
   494.60         32.7437
   494.74         32.8455
   494.88         32.9073
   495.02         32.9194
   495.16         32.8872
   495.30         32.8241
   495.44         32.7445
   495.58         32.6617
   495.72         32.5887
   495.86         32.5337
   496.00         32.4981
   496.14         32.4817
   496.28         32.4870
   496.42         32.5165
   496.56         32.5676
   496.70         32.6324
   496.84         32.7000
   496.98         32.7564
   497.12         32.7842
   497.26         32.7630
   497.40         32.6768
   497.54         32.5260
   497.68         32.3254
   497.82         32.0930
   497.96         31.8447
   498.10         31.5942
   498.24         31.3577
   498.38         31.1566
   498.52         31.0137
   498.66         30.9449
   498.80         30.9545
   498.94         31.0308
   499.08         31.1450
   499.22         31.2562
   499.36         31.3252
   499.50         31.3241
   499.64         31.2357
   499.78         31.0562
   499.92         30.8006
   500.06         30.5017
   500.20         30.1998
   500.34         29.9283
   500.48         29.7084
   500.62         29.5515
   500.76         29.4622
   500.90         29.4373
   501.04         29.4680
   501.18         29.5421
   501.32         29.6435
   501.46         29.7547
   501.60         29.8607
   501.74         29.9521
   501.88         30.0284
   502.02         30.0995
   502.16         30.1799
   502.30         30.2816
   502.44         30.4123
   502.58         30.5713
   502.72         30.7470
   502.86         30.9198
   503.00         31.0647
   503.14         31.1579
   503.28         31.1851
   503.42         31.1451
   503.56         31.0495
   503.70         30.9184
   503.84         30.7716
   503.98         30.6253
   504.12         30.4944
   504.26         30.3935
   504.40         30.3353
   504.54         30.3314
   504.68         30.3905
   504.82         30.5140
   504.96         30.6953
   505.10         30.9198
   505.24         31.1674
   505.38         31.4159
   505.52         31.6430
   505.66         31.8278
   505.80         31.9599
   505.94         32.0395
   506.08         32.0713
   506.22         32.0564
   506.36         31.9934
   506.50         31.8849
   506.64         31.7426
   506.78         31.5829
   506.92         31.4179
   507.06         31.2539
   507.20         31.0956
   507.34         30.9488
   507.48         30.8216
   507.62         30.7232
   507.76         30.6609
   507.90         30.6376
   508.04         30.6536
   508.18         30.7097
   508.32         30.8084
   508.46         30.9495
   508.60         31.1246
   508.74         31.3148
   508.88         31.4930
   509.02         31.6333
   509.16         31.7199
   509.30         31.7471
   509.44         31.7164
   509.58         31.6361
   509.72         31.5212
   509.86         31.3900
   510.00         31.2614
   510.14         31.1531
   510.28         31.0795
   510.42         31.0501
   510.56         31.0678
   510.70         31.1300
   510.84         31.2297
   510.98         31.3551
   511.12         31.4892
   511.26         31.6124
   511.40         31.7074
   511.54         31.7640
   511.68         31.7821
   511.82         31.7670
   511.96         31.7233
   512.10         31.6552
   512.24         31.5660
   512.38         31.4594
   512.52         31.3430
   512.66         31.2277
   512.80         31.1218
   512.94         31.0264
   513.08         30.9367
   513.22         30.8444
   513.36         30.7434
   513.50         30.6321
   513.64         30.5125
   513.78         30.3883
   513.92         30.2647
   514.06         30.1505
   514.20         30.0582
   514.34         29.9978
   514.48         29.9740
   514.62         29.9867
   514.76         30.0328
   514.90         30.1069
   515.04         30.2007
   515.18         30.3015
   515.32         30.3915
   515.46         30.4477
   515.60         30.4427
   515.74         30.3504
   515.88         30.1535
   516.02         29.8472
   516.16         29.4331
   516.30         28.9197
   516.44         28.3323
   516.58         27.7154
   516.72         27.1251
   516.86         26.6170
   517.00         26.2354
   517.14         26.0021
   517.28         25.9112
   517.42         25.9388
   517.56         26.0577
   517.70         26.2429
   517.84         26.4684
   517.98         26.7081
   518.12         26.9360
   518.26         27.1328
   518.40         27.2936
   518.54         27.4283
   518.68         27.5516
   518.82         27.6801
   518.96         27.8347
   519.10         28.0369
   519.24         28.2943
   519.38         28.5932
   519.52         28.9025
   519.66         29.1831
   519.80         29.4009
   519.94         29.5440
   520.08         29.6292
   520.22         29.6862
   520.36         29.7347
   520.50         29.7772
   520.64         29.8082
   520.78         29.8261
   520.92         29.8389
   521.06         29.8620
   521.20         29.9086
   521.34         29.9804
   521.48         30.0650
   521.62         30.1413
   521.76         30.1880
   521.90         30.1907
   522.04         30.1429
   522.18         30.0454
   522.32         29.9086
   522.46         29.7537
   522.60         29.6077
   522.74         29.4957
   522.88         29.4355
   523.02         29.4385
   523.16         29.5109
   523.30         29.6553
   523.44         29.8697
   523.58         30.1418
   523.72         30.4472
   523.86         30.7531
   524.00         31.0274
   524.14         31.2479
   524.28         31.4061
   524.42         31.5043
   524.56         31.5515
   524.70         31.5599
   524.84         31.5437
   524.98         31.5154
   525.12         31.4798
   525.26         31.4303
   525.40         31.3517
   525.54         31.2263
   525.68         31.0376
   525.82         30.7714
   525.96         30.4207
   526.10         29.9914
   526.24         29.5038
   526.38         28.9875
   526.52         28.4795
   526.66         28.0249
   526.80         27.6702
   526.94         27.4520
   527.08         27.3891
   527.22         27.4820
   527.36         27.7139
   527.50         28.0538
   527.64         28.4629
   527.78         28.9043
   527.92         29.3489
   528.06         29.7781
   528.20         30.1807
   528.34         30.5477
   528.48         30.8699
   528.62         31.1396
   528.76         31.3519
   528.90         31.5042
   529.04         31.5964
   529.18         31.6327
   529.32         31.6235
   529.46         31.5793
   529.60         31.5078
   529.74         31.4196
   529.88         31.3329
   530.02         31.2703
   530.16         31.2503
   530.30         31.2827
   530.44         31.3659
   530.58         31.4900
   530.72         31.6396
   530.86         31.7960
   531.00         31.9389
   531.14         32.0486
   531.28         32.1080
   531.42         32.1054
   531.56         32.0347
   531.70         31.8907
   531.84         31.6722
   531.98         31.3885
   532.12         31.0618
   532.26         30.7211
   532.40         30.3971
   532.54         30.1177
   532.68         29.9038
   532.82         29.7672
   532.96         29.7100
   533.10         29.7283
   533.24         29.8154
   533.38         29.9610
   533.52         30.1481
   533.66         30.3538
   533.80         30.5541
   533.94         30.7305
   534.08         30.8738
   534.22         30.9831
   534.36         31.0676
   534.50         31.1479
   534.64         31.2487
   534.78         31.3866
   534.92         31.5626
   535.06         31.7659
   535.20         31.9790
   535.34         32.1817
   535.48         32.3544
   535.62         32.4815
   535.76         32.5508
   535.90         32.5499
   536.04         32.4679
   536.18         32.3017
   536.32         32.0626
   536.46         31.7748
   536.60         31.4691
   536.74         31.1763
   536.88         30.9228
   537.02         30.7285
   537.16         30.6032
   537.30         30.5469
   537.44         30.5543
   537.58         30.6180
   537.72         30.7271
   537.86         30.8658
   538.00         31.0144
   538.14         31.1511
   538.28         31.2562
   538.42         31.3156
   538.56         31.3233
   538.70         31.2830
   538.84         31.2049
   538.98         31.1008
   539.12         30.9784
   539.26         30.8390
   539.40         30.6812
   539.54         30.5044
   539.68         30.3123
   539.82         30.1123
   539.96         29.9138
   540.10         29.7280
   540.24         29.5648
   540.38         29.4325
   540.52         29.3390
   540.66         29.2932
   540.80         29.3021
   540.94         29.3675
   541.08         29.4855
   541.22         29.6459
   541.36         29.8340
   541.50         30.0339
   541.64         30.2305
   541.78         30.4076
   541.92         30.5498
   542.06         30.6490
   542.20         30.7041
   542.34         30.7164
   542.48         30.6894
   542.62         30.6333
   542.76         30.5656
   542.90         30.5056
   543.04         30.4687
   543.18         30.4635
   543.32         30.4910
   543.46         30.5445
   543.60         30.6105
   543.74         30.6747
   543.88         30.7287
   544.02         30.7701
   544.16         30.8005
   544.30         30.8197
   544.44         30.8238
   544.58         30.8095
   544.72         30.7790
   544.86         30.7402
   545.00         30.7041
   545.14         30.6815
   545.28         30.6787
   545.42         30.6970
   545.56         30.7329
   545.70         30.7788
   545.84         30.8264
   545.98         30.8699
   546.12         30.9066
   546.26         30.9369
   546.40         30.9636
   546.54         30.9879
   546.68         31.0047
   546.82         31.0050
   546.96         30.9809
   547.10         30.9299
   547.24         30.8573
   547.38         30.7765
   547.52         30.7030
   547.66         30.6468
   547.80         30.6122
   547.94         30.6041
   548.08         30.6292
   548.22         30.6899
   548.36         30.7819
   548.50         30.8958
   548.64         31.0191
   548.78         31.1375
   548.92         31.2366
   549.06         31.3048
   549.20         31.3348
   549.34         31.3279
   549.48         31.2936
   549.62         31.2450
   549.76         31.1951
   549.90         31.1565
   550.04         31.1391
   550.18         31.1448
   550.32         31.1682
   550.46         31.2030
   550.60         31.2436
   550.74         31.2833
   550.88         31.3134
   551.02         31.3276
   551.16         31.3253
   551.30         31.3110
   551.44         31.2896
   551.58         31.2634
   551.72         31.2309
   551.86         31.1902
   552.00         31.1418
   552.14         31.0889
   552.28         31.0352
   552.42         30.9835
   552.56         30.9356
   552.70         30.8917
   552.84         30.8533
   552.98         30.8249
   553.12         30.8120
   553.26         30.8169
   553.40         30.8381
   553.54         30.8740
   553.68         30.9246
   553.82         30.9895
   553.96         31.0661
   554.10         31.1491
   554.24         31.2312
   554.38         31.3055
   554.52         31.3680
   554.66         31.4173
   554.80         31.4532
   554.94         31.4745
   555.08         31.4788
   555.22         31.4636
   555.36         31.4287
   555.50         31.3755
   555.64         31.3052
   555.78         31.2172
   555.92         31.1105
   556.06         30.9850
   556.20         30.8422
   556.34         30.6855
   556.48         30.5199
   556.62         30.3533
   556.76         30.1957
   556.90         30.0564
   557.04         29.9436
   557.18         29.8656
   557.32         29.8285
   557.46         29.8324
   557.60         29.8688
   557.74         29.9202
   557.88         29.9646
   558.02         29.9837
   558.16         29.9655
   558.30         29.9043
   558.44         29.7996
   558.58         29.6584
   558.72         29.4960
   558.86         29.3325
   559.00         29.1877
   559.14         29.0759
   559.28         29.0032
   559.42         28.9699
   559.56         28.9749
   559.70         29.0187
   559.84         29.1016
   559.98         29.2197
   560.12         29.3654
   560.26         29.5298
   560.40         29.7033
   560.54         29.8743
   560.68         30.0299
   560.82         30.1582
   560.96         30.2506
   561.10         30.3035
   561.24         30.3174
   561.38         30.2923
   561.52         30.2260
   561.66         30.1200
   561.80         29.9846
   561.94         29.8397
   562.08         29.7122
   562.22         29.6270
   562.36         29.5981
   562.50         29.6251
   562.64         29.6960
   562.78         29.7929
   562.92         29.8957
   563.06         29.9849
   563.20         30.0460
   563.34         30.0753
   563.48         30.0787
   563.62         30.0666
   563.76         30.0473
   563.90         30.0239
   564.04         29.9978
   564.18         29.9732
   564.32         29.9575
   564.46         29.9557
   564.60         29.9659
   564.74         29.9798
   564.88         29.9838
   565.02         29.9621
   565.16         29.9039
   565.30         29.8074
   565.44         29.6799
   565.58         29.5347
   565.72         29.3875
   565.86         29.2541
   566.00         29.1490
   566.14         29.0842
   566.28         29.0659
   566.42         29.0934
   566.56         29.1612
   566.70         29.2628
   566.84         29.3908
   566.98         29.5341
   567.12         29.6777
   567.26         29.8074
   567.40         29.9123
   567.54         29.9840
   567.68         30.0164
   567.82         30.0077
   567.96         29.9582
   568.10         29.8718
   568.24         29.7574
   568.38         29.6258
   568.52         29.4880
   568.66         29.3556
   568.80         29.2418
   568.94         29.1588
   569.08         29.1140
   569.22         29.1074
   569.36         29.1338
   569.50         29.1847
   569.64         29.2482
   569.78         29.3092
   569.92         29.3504
   570.06         29.3554
   570.20         29.3141
   570.34         29.2263
   570.48         29.1018
   570.62         28.9581
   570.76         28.8162
   570.90         28.6976
   571.04         28.6207
   571.18         28.5987
   571.32         28.6389
   571.46         28.7417
   571.60         28.9006
   571.74         29.1032
   571.88         29.3350
   572.02         29.5792
   572.16         29.8174
   572.30         30.0302
   572.44         30.2028
   572.58         30.3304
   572.72         30.4172
   572.86         30.4714
   573.00         30.5008
   573.14         30.5119
   573.28         30.5105
   573.42         30.5019
   573.56         30.4905
   573.70         30.4769
   573.84         30.4584
   573.98         30.4329
   574.12         30.4001
   574.26         30.3587
   574.40         30.3040
   574.54         30.2322
   574.68         30.1446
   574.82         30.0484
   574.96         29.9539
   575.10         29.8712
   575.24         29.8059
   575.38         29.7584
   575.52         29.7287
   575.66         29.7196
   575.80         29.7345
   575.94         29.7737
   576.08         29.8331
   576.22         29.9053
   576.36         29.9822
   576.50         30.0572
   576.64         30.1262
   576.78         30.1868
   576.92         30.2368
   577.06         30.2734
   577.20         30.2935
   577.34         30.2907
   577.48         30.2562
   577.62         30.1827
   577.76         30.0686
   577.90         29.9193
   578.04         29.7453
   578.18         29.5606
   578.32         29.3806
   578.46         29.2193
   578.60         29.0878
   578.74         28.9966
   578.88         28.9557
   579.02         28.9715
   579.16         29.0441
   579.30         29.1658
   579.44         29.3204
   579.58         29.4860
   579.72         29.6408
   579.86         29.7689
   580.00         29.8622
   580.14         29.9186
   580.28         29.9403
   580.42         29.9320
   580.56         29.9007
   580.70         29.8557
   580.84         29.8094
   580.98         29.7741
   581.12         29.7593
   581.26         29.7719
   581.40         29.8160
   581.54         29.8898
   581.68         29.9869
   581.82         30.0971
   581.96         30.2084
   582.10         30.3109
   582.24         30.4002
   582.38         30.4746
   582.52         30.5319
   582.66         30.5696
   582.80         30.5865
   582.94         30.5853
   583.08         30.5744
   583.22         30.5654
   583.36         30.5685
   583.50         30.5878
   583.64         30.6197
   583.78         30.6578
   583.92         30.6952
   584.06         30.7242
   584.20         30.7380
   584.34         30.7313
   584.48         30.7007
   584.62         30.6445
   584.76         30.5637
   584.90         30.4597
   585.04         30.3355
   585.18         30.1981
   585.32         30.0592
   585.46         29.9325
   585.60         29.8317
   585.74         29.7655
   585.88         29.7361
   586.02         29.7413
   586.16         29.7783
   586.30         29.8443
   586.44         29.9356
   586.58         30.0449
   586.72         30.1618
   586.86         30.2746
   587.00         30.3717
   587.14         30.4427
   587.28         30.4796
   587.42         30.4782
   587.56         30.4389
   587.70         30.3603
   587.84         30.2337
   587.98         30.0454
   588.12         29.7886
   588.26         29.4675
   588.40         29.0922
   588.54         28.6776
   588.68         28.2460
   588.82         27.8260
   588.96         27.4478
   589.10         27.1407
   589.24         26.9302
   589.38         26.8350
   589.52         26.8631
   589.66         27.0113
   589.80         27.2665
   589.94         27.6068
   590.08         28.0021
   590.22         28.4160
   590.36         28.8095
   590.50         29.1506
   590.64         29.4247
   590.78         29.6323
   590.92         29.7793
   591.06         29.8717
   591.20         29.9198
   591.34         29.9398
   591.48         29.9477
   591.62         29.9541
   591.76         29.9630
   591.90         29.9725
   592.04         29.9783
   592.18         29.9773
   592.32         29.9679
   592.46         29.9489
   592.60         29.9207
   592.74         29.8848
   592.88         29.8423
   593.02         29.7928
   593.16         29.7361
   593.30         29.6743
   593.44         29.6108
   593.58         29.5500
   593.72         29.4937
   593.86         29.4411
   594.00         29.3913
   594.14         29.3449
   594.28         29.3025
   594.42         29.2643
   594.56         29.2304
   594.70         29.2022
   594.84         29.1825
   594.98         29.1723
   595.12         29.1713
   595.26         29.1775
   595.40         29.1861
   595.54         29.1910
   595.68         29.1891
   595.82         29.1822
   595.96         29.1762
   596.10         29.1768
   596.24         29.1872
   596.38         29.2060
   596.52         29.2287
   596.66         29.2514
   596.80         29.2706
   596.94         29.2816
   597.08         29.2807
   597.22         29.2658
   597.36         29.2348
   597.50         29.1862
   597.64         29.1197
   597.78         29.0380
   597.92         28.9467
   598.06         28.8535
   598.20         28.7674
   598.34         28.6994
   598.48         28.6594
   598.62         28.6519
   598.76         28.6750
   598.90         28.7207
   599.04         28.7785
   599.18         28.8383
   599.32         28.8906
   599.46         28.9285
   599.60         28.9467
   599.74         28.9397
   599.88         28.9045
   600.02         28.8424
   600.16         28.7593
   600.30         28.6632
   600.44         28.5621
   600.58         28.4622
   600.72         28.3668
   600.86         28.2767
   601.00         28.1899
   601.14         28.1025
   601.28         28.0105
   601.42         27.9136
   601.56         27.8159
   601.70         27.7249
   601.84         27.6492
   601.98         27.5989
   602.12         27.5842
   602.26         27.6098
   602.40         27.6746
   602.54         27.7758
   602.68         27.9066
   602.82         28.0555
   602.96         28.2083
   603.10         28.3511
   603.24         28.4725
   603.38         28.5655
   603.52         28.6276
   603.66         28.6617
   603.80         28.6758
   603.94         28.6779
   604.08         28.6740
   604.22         28.6672
   604.36         28.6577
   604.50         28.6451
   604.64         28.6284
   604.78         28.6056
   604.92         28.5758
   605.06         28.5416
   605.20         28.5066
   605.34         28.4734
   605.48         28.4437
   605.62         28.4200
   605.76         28.4066
   605.90         28.4083
   606.04         28.4278
   606.18         28.4636
   606.32         28.5108
   606.46         28.5604
   606.60         28.6009
   606.74         28.6226
   606.88         28.6198
   607.02         28.5913
   607.16         28.5393
   607.30         28.4689
   607.44         28.3867
   607.58         28.3000
   607.72         28.2150
   607.86         28.1369
   608.00         28.0696
   608.14         28.0170
   608.28         27.9830
   608.42         27.9687
   608.56         27.9713
   608.70         27.9840
   608.84         27.9971
   608.98         27.9990
   609.12         27.9806
   609.26         27.9383
   609.40         27.8751
   609.54         27.7974
   609.68         27.7138
   609.82         27.6345
   609.96         27.5693
   610.10         27.5257
   610.24         27.5090
   610.38         27.5216
   610.52         27.5617
   610.66         27.6235
   610.80         27.6975
   610.94         27.7710
   611.08         27.8291
   611.22         27.8596
   611.36         27.8562
   611.50         27.8181
   611.64         27.7497
   611.78         27.6609
   611.92         27.5646
   612.06         27.4729
   612.20         27.3948
   612.34         27.3340
   612.48         27.2862
   612.62         27.2437
   612.76         27.2019
   612.90         27.1598
   613.04         27.1164
   613.18         27.0713
   613.32         27.0257
   613.46         26.9824
   613.60         26.9464
   613.74         26.9240
   613.88         26.9220
   614.02         26.9453
   614.16         26.9939
   614.30         27.0624
   614.44         27.1428
   614.58         27.2259
   614.72         27.3018
   614.86         27.3589
   615.00         27.3836
   615.14         27.3648
   615.28         27.3019
   615.42         27.2019
   615.56         27.0730
   615.70         26.9231
   615.84         26.7608
   615.98         26.5957
   616.12         26.4393
   616.26         26.3045
   616.40         26.2034
   616.54         26.1447
   616.68         26.1327
   616.82         26.1681
   616.96         26.2487
   617.10         26.3699
   617.24         26.5239
   617.38         26.6987
   617.52         26.8787
   617.66         27.0491
   617.80         27.2001
   617.94         27.3258
   618.08         27.4203
   618.22         27.4789
   618.36         27.5013
   618.50         27.4929
   618.64         27.4649
   618.78         27.4306
   618.92         27.4014
   619.06         27.3858
   619.20         27.3902
   619.34         27.4188
   619.48         27.4727
   619.62         27.5485
   619.76         27.6389
   619.90         27.7356
   620.04         27.8296
   620.18         27.9117
   620.32         27.9734
   620.46         28.0078
   620.60         28.0111
   620.74         27.9844
   620.88         27.9317
   621.02         27.8584
   621.16         27.7714
   621.30         27.6786
   621.44         27.5860
   621.58         27.4984
   621.72         27.4195
   621.86         27.3509
   622.00         27.2900
   622.14         27.2318
   622.28         27.1743
   622.42         27.1194
   622.56         27.0693
   622.70         27.0232
   622.84         26.9803
   622.98         26.9409
   623.12         26.9067
   623.26         26.8801
   623.40         26.8603
   623.54         26.8445
   623.68         26.8305
   623.82         26.8188
   623.96         26.8100
   624.10         26.8015
   624.24         26.7884
   624.38         26.7658
   624.52         26.7311
   624.66         26.6851
   624.80         26.6341
   624.94         26.5873
   625.08         26.5485
   625.22         26.5123
   625.36         26.4698
   625.50         26.4173
   625.64         26.3566
   625.78         26.2935
   625.92         26.2353
   626.06         26.1889
   626.20         26.1610
   626.34         26.1580
   626.48         26.1834
   626.62         26.2330
   626.76         26.2965
   626.90         26.3630
   627.04         26.4251
   627.18         26.4783
   627.32         26.5201
   627.46         26.5511
   627.60         26.5739
   627.74         26.5914
   627.88         26.6085
   628.02         26.6336
   628.16         26.6766
   628.30         26.7432
   628.44         26.8326
   628.58         26.9375
   628.72         27.0463
   628.86         27.1456
   629.00         27.2207
   629.14         27.2580
   629.28         27.2492
   629.42         27.1957
   629.56         27.1077
   629.70         26.9992
   629.84         26.8857
   629.98         26.7821
   630.12         26.6993
   630.26         26.6420
   630.40         26.6082
   630.54         26.5903
   630.68         26.5791
   630.82         26.5661
   630.96         26.5445
   631.10         26.5100
   631.24         26.4608
   631.38         26.3997
   631.52         26.3344
   631.66         26.2764
   631.80         26.2378
   631.94         26.2280
   632.08         26.2514
   632.22         26.3081
   632.36         26.3928
   632.50         26.4936
   632.64         26.5944
   632.78         26.6792
   632.92         26.7357
   633.06         26.7573
   633.20         26.7443
   633.34         26.7024
   633.48         26.6409
   633.62         26.5723
   633.76         26.5096
   633.90         26.4633
   634.04         26.4400
   634.18         26.4413
   634.32         26.4634
   634.46         26.4984
   634.60         26.5374
   634.74         26.5731
   634.88         26.5983
   635.02         26.6051
   635.16         26.5867
   635.30         26.5421
   635.44         26.4759
   635.58         26.3959
   635.72         26.3112
   635.86         26.2311
   636.00         26.1639
   636.14         26.1170
   636.28         26.0955
   636.42         26.1005
   636.56         26.1298
   636.70         26.1800
   636.84         26.2458
   636.98         26.3201
   637.12         26.3937
   637.26         26.4586
   637.40         26.5088
   637.54         26.5411
   637.68         26.5554
   637.82         26.5546
   637.96         26.5441
   638.10         26.5281
   638.24         26.5083
   638.38         26.4843
   638.52         26.4554
   638.66         26.4223
   638.80         26.3850
   638.94         26.3411
   639.08         26.2896
   639.22         26.2329
   639.36         26.1746
   639.50         26.1161
   639.64         26.0577
   639.78         26.0012
   639.92         25.9502
   640.06         25.9080
   640.20         25.8764
   640.34         25.8560
   640.48         25.8459
   640.62         25.8432
   640.76         25.8437
   640.90         25.8433
   641.04         25.8401
   641.18         25.8354
   641.32         25.8319
   641.46         25.8301
   641.60         25.8306
   641.74         25.8368
   641.88         25.8507
   642.02         25.8694
   642.16         25.8876
   642.30         25.9035
   642.44         25.9192
   642.58         25.9364
   642.72         25.9539
   642.86         25.9690
   643.00         25.9798
   643.14         25.9867
   643.28         25.9921
   643.42         25.9994
   643.56         26.0118
   643.70         26.0308
   643.84         26.0547
   643.98         26.0789
   644.12         26.0986
   644.26         26.1110
   644.40         26.1147
   644.54         26.1078
   644.68         26.0904
   644.82         26.0660
   644.96         26.0386
   645.10         26.0076
   645.24         25.9685
   645.38         25.9185
   645.52         25.8603
   645.66         25.8007
   645.80         25.7468
   645.94         25.7026
   646.08         25.6682
   646.22         25.6412
   646.36         25.6187
   646.50         25.5998
   646.64         25.5874
   646.78         25.5858
   646.92         25.5972
   647.06         25.6203
   647.20         25.6525
   647.34         25.6917
   647.48         25.7348
   647.62         25.7775
   647.76         25.8171
   647.90         25.8532
   648.04         25.8849
   648.18         25.9073
   648.32         25.9105
   648.46         25.8830
   648.60         25.8174
   648.74         25.7148
   648.88         25.5840
   649.02         25.4382
   649.16         25.2946
   649.30         25.1713
   649.44         25.0837
   649.58         25.0423
   649.72         25.0540
   649.86         25.1218
   650.00         25.2428
   650.14         25.4068
   650.28         25.5984
   650.42         25.7985
   650.56         25.9866
   650.70         26.1446
   650.84         26.2619
   650.98         26.3370
   651.12         26.3770
   651.26         26.3943
   651.40         26.4012
   651.54         26.4066
   651.68         26.4147
   651.82         26.4271
   651.96         26.4432
   652.10         26.4609
   652.24         26.4778
   652.38         26.4923
   652.52         26.5019
   652.66         26.5033
   652.80         26.4936
   652.94         26.4723
   653.08         26.4414
   653.22         26.4051
   653.36         26.3682
   653.50         26.3336
   653.64         26.3012
   653.78         26.2689
   653.92         26.2340
   654.06         26.1934
   654.20         26.1431
   654.34         26.0785
   654.48         25.9957
   654.62         25.8915
   654.76         25.7612
   654.90         25.5968
   655.04         25.3842
   655.18         25.1076
   655.32         24.7611
   655.46         24.3551
   655.60         23.9142
   655.74         23.4701
   655.88         23.0561
   656.02         22.7030
   656.16         22.4370
   656.30         22.2778
   656.44         22.2378
   656.58         22.3206
   656.72         22.5194
   656.86         22.8169
   657.00         23.1867
   657.14         23.5972
   657.28         24.0156
   657.42         24.4110
   657.56         24.7584
   657.70         25.0442
   657.84         25.2693
   657.98         25.4446
   658.12         25.5795
   658.26         25.6779
   658.40         25.7406
   658.54         25.7706
   658.68         25.7733
   658.82         25.7576
   658.96         25.7349
   659.10         25.7159
   659.24         25.7080
   659.38         25.7144
   659.52         25.7350
   659.66         25.7674
   659.80         25.8079
   659.94         25.8521
   660.08         25.8961
   660.22         25.9355
   660.36         25.9667
   660.50         25.9862
   660.64         25.9924
   660.78         25.9873
   660.92         25.9762
   661.06         25.9655
   661.20         25.9600
   661.34         25.9622
   661.48         25.9731
   661.62         25.9917
   661.76         26.0146
   661.90         26.0375
   662.04         26.0555
   662.18         26.0627
   662.32         26.0532
   662.46         26.0232
   662.60         25.9725
   662.74         25.9034
   662.88         25.8188
   663.02         25.7222
   663.16         25.6176
   663.30         25.5101
   663.44         25.4056
   663.58         25.3099
   663.72         25.2284
   663.86         25.1652
   664.00         25.1231
   664.14         25.1034
   664.28         25.1045
   664.42         25.1222
   664.56         25.1509
   664.70         25.1847
   664.84         25.2185
   664.98         25.2482
   665.12         25.2690
   665.26         25.2761
   665.40         25.2664
   665.54         25.2401
   665.68         25.2007
   665.82         25.1532
   665.96         25.1039
   666.10         25.0591
   666.24         25.0231
   666.38         24.9986
   666.52         24.9860
   666.66         24.9838
   666.80         24.9899
   666.94         25.0016
   667.08         25.0160
   667.22         25.0304
   667.36         25.0425
   667.50         25.0510
   667.64         25.0555
   667.78         25.0571
   667.92         25.0602
   668.06         25.0705
   668.20         25.0911
   668.34         25.1199
   668.48         25.1512
   668.62         25.1792
   668.76         25.1990
   668.90         25.2058
   669.04         25.1960
   669.18         25.1677
   669.32         25.1211
   669.46         25.0588
   669.60         24.9841
   669.74         24.9014
   669.88         24.8148
   670.02         24.7287
   670.16         24.6468
   670.30         24.5720
   670.44         24.5050
   670.58         24.4450
   670.72         24.3897
   670.86         24.3375
   671.00         24.2891
   671.14         24.2477
   671.28         24.2184
   671.42         24.2042
   671.56         24.2059
   671.70         24.2224
   671.84         24.2509
   671.98         24.2868
   672.12         24.3255
   672.26         24.3635
   672.40         24.3980
   672.54         24.4268
   672.68         24.4483
   672.82         24.4619
   672.96         24.4685
   673.10         24.4690
   673.24         24.4647
   673.38         24.4580
   673.52         24.4521
   673.66         24.4488
   673.80         24.4478
   673.94         24.4463
   674.08         24.4409
   674.22         24.4299
   674.36         24.4126
   674.50         24.3888
   674.64         24.3606
   674.78         24.3318
   674.92         24.3069
   675.06         24.2893
   675.20         24.2819
   675.34         24.2865
   675.48         24.3034
   675.62         24.3308
   675.76         24.3644
   675.90         24.3993
   676.04         24.4307
   676.18         24.4545
   676.32         24.4668
   676.46         24.4655
   676.60         24.4514
   676.74         24.4277
   676.88         24.3983
   677.02         24.3665
   677.16         24.3354
   677.30         24.3082
   677.44         24.2875
   677.58         24.2752
   677.72         24.2723
   677.86         24.2790
   678.00         24.2931
   678.14         24.3103
   678.28         24.3259
   678.42         24.3358
   678.56         24.3385
   678.70         24.3348
   678.84         24.3275
   678.98         24.3199
   679.12         24.3149
   679.26         24.3150
   679.40         24.3212
   679.54         24.3340
   679.68         24.3534
   679.82         24.3786
   679.96         24.4084
   680.10         24.4413
   680.24         24.4756
   680.38         24.5085
   680.52         24.5362
   680.66         24.5552
   680.80         24.5625
   680.94         24.5569
   681.08         24.5395
   681.22         24.5132
   681.36         24.4823
   681.50         24.4500
   681.64         24.4191
   681.78         24.3915
   681.92         24.3690
   682.06         24.3531
   682.20         24.3450
   682.34         24.3442
   682.48         24.3482
   682.62         24.3536
   682.76         24.3567
   682.90         24.3530
   683.04         24.3371
   683.18         24.3044
   683.32         24.2527
   683.46         24.1830
   683.60         24.1004
   683.74         24.0124
   683.88         23.9278
   684.02         23.8555
   684.16         23.8034
   684.30         23.7758
   684.44         23.7732
   684.58         23.7926
   684.72         23.8289
   684.86         23.8750
   685.00         23.9232
   685.14         23.9655
   685.28         23.9947
   685.42         24.0007
   685.56         23.9665
   685.70         23.8709
   685.84         23.6954
   685.98         23.4313
   686.12         23.0808
   686.26         22.6557
   686.40         22.1757
   686.54         21.6674
   686.68         21.1623
   686.82         20.6936
   686.96         20.2930
   687.10         19.9884
   687.24         19.8004
   687.38         19.7386
   687.52         19.7999
   687.66         19.9679
   687.80         20.2143
   687.94         20.5038
   688.08         20.7985
   688.22         21.0654
   688.36         21.2840
   688.50         21.4482
   688.64         21.5623
   688.78         21.6359
   688.92         21.6807
   689.06         21.7090
   689.20         21.7325
   689.34         21.7614
   689.48         21.8031
   689.62         21.8614
   689.76         21.9352
   689.90         22.0199
   690.04         22.1104
   690.18         22.2022
   690.32         22.2916
   690.46         22.3752
   690.60         22.4504
   690.74         22.5149
   690.88         22.5683
   691.02         22.6129
   691.16         22.6501
   691.30         22.6809
   691.44         22.7064
   691.58         22.7274
   691.72         22.7449
   691.86         22.7599
   692.00         22.7752
   692.14         22.7934
   692.28         22.8157
   692.42         22.8423
   692.56         22.8730
   692.70         22.9062
   692.84         22.9387
   692.98         22.9674
   693.12         22.9904
   693.26         23.0068
   693.40         23.0171
   693.54         23.0219
   693.68         23.0212
   693.82         23.0149
   693.96         23.0048
   694.10         22.9943
   694.24         22.9870
   694.38         22.9857
   694.52         22.9924
   694.66         23.0070
   694.80         23.0279
   694.94         23.0526
   695.08         23.0792
   695.22         23.1066
   695.36         23.1342
   695.50         23.1626
   695.64         23.1943
   695.78         23.2322
   695.92         23.2774
   696.06         23.3293
   696.20         23.3861
   696.34         23.4460
   696.48         23.5062
   696.62         23.5597
   696.76         23.5972
   696.90         23.6105
   697.04         23.5952
   697.18         23.5512
   697.32         23.4828
   697.46         23.3975
   697.60         23.3047
   697.74         23.2136
   697.88         23.1325
   698.02         23.0681
   698.16         23.0249
   698.30         23.0058
   698.44         23.0110
   698.58         23.0382
   698.72         23.0813
   698.86         23.1325
   699.00         23.1828
   699.14         23.2226
   699.28         23.2430
   699.42         23.2384
   699.56         23.2080
   699.70         23.1546
   699.84         23.0831
   699.98         23.0002
   700.12         22.9130
   700.26         22.8280
   700.40         22.7499
   700.54         22.6808
   700.68         22.6218
   700.82         22.5746
   700.96         22.5403
   701.10         22.5181
   701.24         22.5035
   701.38         22.4905
   701.52         22.4743
   701.66         22.4524
   701.80         22.4240
   701.94         22.3914
   702.08         22.3599
   702.22         22.3362
   702.36         22.3243
   702.50         22.3250
   702.64         22.3379
   702.78         22.3610
   702.92         22.3910
   703.06         22.4250
   703.20         22.4616
   703.34         22.5011
   703.48         22.5436
   703.62         22.5867
   703.76         22.6281
   703.90         22.6665
   704.04         22.7019
   704.18         22.7342
   704.32         22.7640
   704.46         22.7915
   704.60         22.8156
   704.74         22.8336
   704.88         22.8426
   705.02         22.8408
   705.16         22.8291
   705.30         22.8088
   705.44         22.7809
   705.58         22.7465
   705.72         22.7070
   705.86         22.6634
   706.00         22.6178
   706.14         22.5734
   706.28         22.5334
   706.42         22.5014
   706.56         22.4807
   706.70         22.4732
   706.84         22.4798
   706.98         22.4998
   707.12         22.5307
   707.26         22.5684
   707.40         22.6083
   707.54         22.6453
   707.68         22.6739
   707.82         22.6890
   707.96         22.6869
   708.10         22.6670
   708.24         22.6321
   708.38         22.5863
   708.52         22.5352
   708.66         22.4850
   708.80         22.4424
   708.94         22.4129
   709.08         22.4015
   709.22         22.4115
   709.36         22.4442
   709.50         22.4979
   709.64         22.5681
   709.78         22.6477
   709.92         22.7273
   710.06         22.7976
   710.20         22.8514
   710.34         22.8853
   710.48         22.8997
   710.62         22.8971
   710.76         22.8820
   710.90         22.8609
   711.04         22.8397
   711.18         22.8223
   711.32         22.8121
   711.46         22.8116
   711.60         22.8206
   711.74         22.8371
   711.88         22.8577
   712.02         22.8779
   712.16         22.8931
   712.30         22.8998
   712.44         22.8973
   712.58         22.8892
   712.72         22.8828
   712.86         22.8853
   713.00         22.9014
   713.14         22.9317
   713.28         22.9732
   713.42         23.0205
   713.56         23.0676
   713.70         23.1072
   713.84         23.1309
   713.98         23.1329
   714.12         23.1115
   714.26         23.0696
   714.40         23.0134
   714.54         22.9507
   714.68         22.8898
   714.82         22.8390
   714.96         22.8054
   715.10         22.7925
   715.24         22.7990
   715.38         22.8189
   715.52         22.8417
   715.66         22.8567
   715.80         22.8556
   715.94         22.8321
   716.08         22.7819
   716.22         22.7026
   716.36         22.5940
   716.50         22.4592
   716.64         22.3036
   716.78         22.1351
   716.92         21.9619
   717.06         21.7898
   717.20         21.6210
   717.34         21.4554
   717.48         21.2910
   717.62         21.1242
   717.76         20.9517
   717.90         20.7747
   718.04         20.5973
   718.18         20.4244
   718.32         20.2607
   718.46         20.1122
   718.60         19.9851
   718.74         19.8850
   718.88         19.8162
   719.02         19.7812
   719.16         19.7795
   719.30         19.8080
   719.44         19.8621
   719.58         19.9356
   719.72         20.0206
   719.86         20.1110
   720.00         20.2056
   720.14         20.3095
   720.28         20.4313
   720.42         20.5786
   720.56         20.7545
   720.70         20.9571
   720.84         21.1822
   720.98         21.4272
   721.12         21.6888
   721.26         21.9586
   721.40         22.2224
   721.54         22.4658
   721.68         22.6763
   721.82         22.8445
   721.96         22.9648
   722.10         23.0351
   722.24         23.0542
   722.38         23.0223
   722.52         22.9412
   722.66         22.8172
   722.80         22.6601
   722.94         22.4796
   723.08         22.2834
   723.22         22.0790
   723.36         21.8764
   723.50         21.6875
   723.64         21.5242
   723.78         21.3946
   723.92         21.3028
   724.06         21.2489
   724.20         21.2282
   724.34         21.2317
   724.48         21.2504
   724.62         21.2774
   724.76         21.3074
   724.90         21.3367
   725.04         21.3646
   725.18         21.3920
   725.32         21.4191
   725.46         21.4441
   725.60         21.4644
   725.74         21.4784
   725.88         21.4877
   726.02         21.4956
   726.16         21.5035
   726.30         21.5091
   726.44         21.5061
   726.58         21.4864
   726.72         21.4425
   726.86         21.3732
   727.00         21.2864
   727.14         21.1950
   727.28         21.1098
   727.42         21.0363
   727.56         20.9758
   727.70         20.9265
   727.84         20.8839
   727.98         20.8427
   728.12         20.7984
   728.26         20.7473
   728.40         20.6849
   728.54         20.6070
   728.68         20.5124
   728.82         20.4055
   728.96         20.2943
   729.10         20.1881
   729.24         20.0964
   729.38         20.0277
   729.52         19.9900
   729.66         19.9885
   729.80         20.0223
   729.94         20.0835
   730.08         20.1608
   730.22         20.2433
   730.36         20.3226
   730.50         20.3940
   730.64         20.4560
   730.78         20.5091
   730.92         20.5547
   731.06         20.5957
   731.20         20.6373
   731.34         20.6846
   731.48         20.7387
   731.62         20.7957
   731.76         20.8492
   731.90         20.8936
   732.04         20.9273
   732.18         20.9504
   732.32         20.9631
   732.46         20.9646
   732.60         20.9556
   732.74         20.9402
   732.88         20.9253
   733.02         20.9181
   733.16         20.9224
   733.30         20.9385
   733.44         20.9638
   733.58         20.9950
   733.72         21.0296
   733.86         21.0648
   734.00         21.0950
   734.14         21.1129
   734.28         21.1136
   734.42         21.0958
   734.56         21.0622
   734.70         21.0174
   734.84         20.9650
   734.98         20.9085
   735.12         20.8528
   735.26         20.8020
   735.40         20.7572
   735.54         20.7164
   735.68         20.6768
   735.82         20.6366
   735.96         20.5953
   736.10         20.5538
   736.24         20.5150
   736.38         20.4829
   736.52         20.4605
   736.66         20.4482
   736.80         20.4457
   736.94         20.4535
   737.08         20.4711
   737.22         20.4964
   737.36         20.5257
   737.50         20.5539
   737.64         20.5744
   737.78         20.5799
   737.92         20.5626
   738.06         20.5177
   738.20         20.4460
   738.34         20.3542
   738.48         20.2517
   738.62         20.1477
   738.76         20.0505
   738.90         19.9669
   739.04         19.9017
   739.18         19.8574
   739.32         19.8352
   739.46         19.8353
   739.60         19.8564
   739.74         19.8938
   739.88         19.9399
   740.02         19.9843
   740.16         20.0160
   740.30         20.0276
   740.44         20.0170
   740.58         19.9872
   740.72         19.9444
   740.86         19.8965
   741.00         19.8510
   741.14         19.8118
   741.28         19.7787
   741.42         19.7496
   741.56         19.7240
   741.70         19.7021
   741.84         19.6822
   741.98         19.6614
   742.12         19.6374
   742.26         19.6099
   742.40         19.5809
   742.54         19.5528
   742.68         19.5292
   742.82         19.5152
   742.96         19.5152
   743.10         19.5292
   743.24         19.5528
   743.38         19.5809
   743.52         19.6099
   743.66         19.6374
   743.80         19.6614
   743.94         19.6822
   744.08         19.7021
   744.22         19.7240
