# File HD28696
# Wavelength [nm]    Normalized Amplitude
   349.70         75.7174
   349.84         75.6603
   349.98         75.6479
   350.12         75.6765
   350.26         75.7295
   350.40         75.7840
   350.54         75.8228
   350.68         75.8452
   350.82         75.8598
   350.96         75.8720
   351.10         75.8776
   351.24         75.8720
   351.38         75.8598
   351.52         75.8452
   351.66         75.8228
   351.80         75.7840
   351.94         75.7295
   352.08         75.6765
   352.22         75.6479
   352.36         75.6603
   352.50         75.7174
   352.64         75.8028
   352.78         75.8969
   352.92         75.9885
   353.06         76.0661
   353.20         76.1092
   353.34         76.0930
   353.48         75.9977
   353.62         75.8128
   353.76         75.5442
   353.90         75.2178
   354.04         74.8748
   354.18         74.5577
   354.32         74.2958
   354.46         74.1065
   354.60         73.9940
   354.74         73.9502
   354.88         73.9584
   355.02         74.0007
   355.16         74.0649
   355.30         74.1402
   355.44         74.2092
   355.58         74.2397
   355.72         74.2043
   355.86         74.0916
   356.00         73.9048
   356.14         73.6652
   356.28         73.4084
   356.42         73.1836
   356.56         73.0422
   356.70         73.0146
   356.84         73.1012
   356.98         73.2880
   357.12         73.5573
   357.26         73.8798
   357.40         74.2142
   357.54         74.5165
   357.68         74.7516
   357.82         74.8925
   357.96         74.9157
   358.10         74.8141
   358.24         74.6138
   358.38         74.3673
   358.52         74.1235
   358.66         73.9285
   358.80         73.8239
   358.94         73.8223
   359.08         73.9026
   359.22         74.0143
   359.36         74.0951
   359.50         74.1052
   359.64         74.0390
   359.78         73.9066
   359.92         73.7226
   360.06         73.5100
   360.20         73.3127
   360.34         73.1811
   360.48         73.1466
   360.62         73.2224
   360.76         73.4058
   360.90         73.6735
   361.04         73.9867
   361.18         74.2977
   361.32         74.5594
   361.46         74.7291
   361.60         74.7731
   361.74         74.6784
   361.88         74.4492
   362.02         74.1067
   362.16         73.6839
   362.30         73.2096
   362.44         72.6954
   362.58         72.1479
   362.72         71.5910
   362.86         71.0589
   363.00         70.5597
   363.14         70.0769
   363.28         69.5996
   363.42         69.1273
   363.56         68.6681
   363.70         68.2341
   363.84         67.8332
   363.98         67.4768
   364.12         67.1843
   364.26         66.9744
   364.40         66.8629
   364.54         66.8634
   364.68         66.9842
   364.82         67.2254
   364.96         67.5774
   365.10         68.0202
   365.24         68.5309
   365.38         69.0835
   365.52         69.6372
   365.66         70.1457
   365.80         70.5864
   365.94         70.9546
   366.08         71.2390
   366.22         71.4265
   366.36         71.5179
   366.50         71.5281
   366.64         71.4781
   366.78         71.3891
   366.92         71.2724
   367.06         71.1284
   367.20         70.9575
   367.34         70.7687
   367.48         70.5794
   367.62         70.4078
   367.76         70.2710
   367.90         70.1906
   368.04         70.1833
   368.18         70.2482
   368.32         70.3723
   368.46         70.5419
   368.60         70.7423
   368.74         70.9572
   368.88         71.1700
   369.02         71.3687
   369.16         71.5366
   369.30         71.6417
   369.44         71.6566
   369.58         71.5766
   369.72         71.4172
   369.86         71.2039
   370.00         70.9608
   370.14         70.7108
   370.28         70.4896
   370.42         70.3501
   370.56         70.3423
   370.70         70.4873
   370.84         70.7635
   370.98         71.1191
   371.12         71.4931
   371.26         71.8297
   371.40         72.1001
   371.54         72.3195
   371.68         72.5357
   371.82         72.7996
   371.96         73.1477
   372.10         73.5935
   372.24         74.1072
   372.38         74.6194
   372.52         75.0673
   372.66         75.4414
   372.80         75.7965
   372.94         76.2254
   373.08         76.8189
   373.22         77.6299
   373.36         78.6550
   373.50         79.8369
   373.64         81.0892
   373.78         82.3127
   373.92         83.4032
   374.06         84.2700
   374.20         84.8543
   374.34         85.1389
   374.48         85.1585
   374.62         85.0007
   374.76         84.8013
   374.90         84.7417
   375.04         85.0309
   375.18         85.8562
   375.32         87.3222
   375.46         89.3959
   375.60         91.8803
   375.74         94.4377
   375.88         96.6616
   376.02         98.1687
   376.16         98.6901
   376.30         98.1431
   376.44         96.6564
   376.58         94.5493
   376.72         92.2708
   376.86         90.3095
   377.00         89.1122
   377.14         89.0238
   377.28         90.2384
   377.42         92.7786
   377.56         96.5097
   377.70         101.1609
   377.84         106.3401
   377.98         111.5724
   378.12         116.3543
   378.26         120.2051
   378.40         122.7264
   378.54         123.6484
   378.68         122.8686
   378.82         120.4757
   378.96         116.7362
   379.10         112.0572
   379.24         106.9376
   379.38         101.9076
   379.52         97.4696
   379.66         94.0610
   379.80         92.0220
   379.94         91.5593
   380.08         92.7417
   380.22         95.5025
   380.36         99.6332
   380.50         104.7974
   380.64         110.5704
   380.78         116.4962
   380.92         122.1375
   381.06         127.1341
   381.20         131.2511
   381.34         134.3878
   381.48         136.5365
   381.62         137.7332
   381.76         138.0303
   381.90         137.4670
   382.04         136.0453
   382.18         133.7352
   382.32         130.5113
   382.46         126.3889
   382.60         121.4581
   382.74         115.9153
   382.88         110.0578
   383.02         104.2534
   383.16         98.9046
   383.30         94.4098
   383.44         91.1261
   383.58         89.3175
   383.72         89.1258
   383.86         90.5649
   384.00         93.5095
   384.14         97.7102
   384.28         102.8341
   384.42         108.5020
   384.56         114.3190
   384.70         119.9191
   384.84         125.0076
   384.98         129.3928
   385.12         133.0011
   385.26         135.8600
   385.40         138.0543
   385.54         139.6853
   385.68         140.8564
   385.82         141.6670
   385.96         142.1983
   386.10         142.5125
   386.24         142.6581
   386.38         142.6745
   386.52         142.5866
   386.66         142.3919
   386.80         142.0563
   386.94         141.5201
   387.08         140.7015
   387.22         139.4952
   387.36         137.7707
   387.50         135.3840
   387.64         132.2030
   387.78         128.1432
   387.92         123.2104
   388.06         117.5354
   388.20         111.3811
   388.34         105.1162
   388.48         99.1642
   388.62         93.9515
   388.76         89.8682
   388.90         87.2269
   389.04         86.2321
   389.18         86.9652
   389.32         89.3694
   389.46         93.2476
   389.60         98.2903
   389.74         104.1100
   389.88         110.2763
   390.02         116.3725
   390.16         122.0516
   390.30         127.0796
   390.44         131.3517
   390.58         134.8677
   390.72         137.6896
   390.86         139.8995
   391.00         141.5757
   391.14         142.7916
   391.28         143.6186
   391.42         144.1212
   391.56         144.3599
   391.70         144.3972
   391.84         144.2926
   391.98         144.0891
   392.12         143.8079
   392.26         143.4539
   392.40         143.0296
   392.54         142.5491
   392.68         142.0392
   392.82         141.5353
   392.96         141.0809
   393.10         140.7073
   393.24         140.4204
   393.38         140.2154
   393.52         140.0843
   393.66         140.0169
   393.80         140.0041
   393.94         140.0266
   394.08         140.0459
   394.22         140.0143
   394.36         139.8845
   394.50         139.6030
   394.64         139.1149
   394.78         138.3811
   394.92         137.3824
   395.06         136.1028
   395.20         134.5069
   395.34         132.5308
   395.48         130.0891
   395.62         127.0835
   395.76         123.4231
   395.90         119.0705
   396.04         114.0828
   396.18         108.6269
   396.32         102.9716
   396.46         97.4553
   396.60         92.4449
   396.74         88.2985
   396.88         85.3256
   397.02         83.7542
   397.16         83.7067
   397.30         85.1789
   397.44         88.0342
   397.58         92.0204
   397.72         96.8064
   397.86         102.0255
   398.00         107.3158
   398.14         112.3570
   398.28         116.9022
   398.42         120.8022
   398.56         124.0139
   398.70         126.5792
   398.84         128.5859
   398.98         130.1316
   399.12         131.3044
   399.26         132.1753
   399.40         132.7958
   399.54         133.1985
   399.68         133.4067
   399.82         133.4411
   399.96         133.3209
   400.10         133.0731
   400.24         132.7357
   400.38         132.3505
   400.52         131.9565
   400.66         131.5860
   400.80         131.2617
   400.94         130.9955
   401.08         130.7882
   401.22         130.6190
   401.36         130.4418
   401.50         130.2055
   401.64         129.8764
   401.78         129.4473
   401.92         128.9367
   402.06         128.3846
   402.20         127.8394
   402.34         127.3456
   402.48         126.9448
   402.62         126.6769
   402.76         126.5722
   402.90         126.6397
   403.04         126.8584
   403.18         127.1842
   403.32         127.5644
   403.46         127.9451
   403.60         128.2781
   403.74         128.5289
   403.88         128.6804
   404.02         128.7432
   404.16         128.7493
   404.30         128.7319
   404.44         128.7184
   404.58         128.7257
   404.72         128.7510
   404.86         128.7724
   405.00         128.7621
   405.14         128.6988
   405.28         128.5715
   405.42         128.3733
   405.56         128.0977
   405.70         127.7467
   405.84         127.3312
   405.98         126.8669
   406.12         126.3686
   406.26         125.8484
   406.40         125.3145
   406.54         124.7673
   406.68         124.2021
   406.82         123.6088
   406.96         122.9833
   407.10         122.3286
   407.24         121.6456
   407.38         120.9322
   407.52         120.1891
   407.66         119.4235
   407.80         118.6401
   407.94         117.8296
   408.08         116.9581
   408.22         115.9646
   408.36         114.7676
   408.50         113.2700
   408.64         111.3713
   408.78         108.9730
   408.92         105.9903
   409.06         102.3891
   409.20         98.2176
   409.34         93.6156
   409.48         88.8085
   409.62         84.0900
   409.76         79.7866
   409.90         76.2179
   410.04         73.6594
   410.18         72.3112
   410.32         72.2741
   410.46         73.5334
   410.60         75.9648
   410.74         79.3590
   410.88         83.4489
   411.02         87.9350
   411.16         92.5134
   411.30         96.9058
   411.44         100.8871
   411.58         104.3094
   411.72         107.1091
   411.86         109.2919
   412.00         110.9169
   412.14         112.0833
   412.28         112.9023
   412.42         113.4695
   412.56         113.8623
   412.70         114.1472
   412.84         114.3796
   412.98         114.5927
   413.12         114.7962
   413.26         114.9908
   413.40         115.1819
   413.54         115.3772
   413.68         115.5779
   413.82         115.7825
   413.96         115.9947
   414.10         116.2196
   414.24         116.4564
   414.38         116.6998
   414.52         116.9470
   414.66         117.1936
   414.80         117.4255
   414.94         117.6165
   415.08         117.7428
   415.22         117.7977
   415.36         117.7876
   415.50         117.7170
   415.64         117.5897
   415.78         117.4203
   415.92         117.2357
   416.06         117.0623
   416.20         116.9105
   416.34         116.7718
   416.48         116.6300
   416.62         116.4689
   416.76         116.2743
   416.90         116.0378
   417.04         115.7598
   417.18         115.4503
   417.32         115.1251
   417.46         114.8040
   417.60         114.5076
   417.74         114.2502
   417.88         114.0374
   418.02         113.8620
   418.16         113.7100
   418.30         113.5760
   418.44         113.4623
   418.58         113.3688
   418.72         113.2949
   418.86         113.2378
   419.00         113.1959
   419.14         113.1734
   419.28         113.1788
   419.42         113.2142
   419.56         113.2692
   419.70         113.3286
   419.84         113.3829
   419.98         113.4268
   420.12         113.4576
   420.26         113.4724
   420.40         113.4658
   420.54         113.4309
   420.68         113.3634
   420.82         113.2632
   420.96         113.1292
   421.10         112.9505
   421.24         112.7167
   421.38         112.4267
   421.52         112.0846
   421.66         111.7029
   421.80         111.3036
   421.94         110.9115
   422.08         110.5476
   422.22         110.2271
   422.36         109.9626
   422.50         109.7617
   422.64         109.6224
   422.78         109.5373
   422.92         109.4944
   423.06         109.4765
   423.20         109.4673
   423.34         109.4551
   423.48         109.4341
   423.62         109.4005
   423.76         109.3492
   423.90         109.2740
   424.04         109.1644
   424.18         109.0128
   424.32         108.8200
   424.46         108.5893
   424.60         108.3249
   424.74         108.0306
   424.88         107.7108
   425.02         107.3758
   425.16         107.0417
   425.30         106.7287
   425.44         106.4540
   425.58         106.2237
   425.72         106.0366
   425.86         105.8848
   426.00         105.7592
   426.14         105.6538
   426.28         105.5607
   426.42         105.4720
   426.56         105.3833
   426.70         105.2982
   426.84         105.2301
   426.98         105.1907
   427.12         105.1806
   427.26         105.1942
   427.40         105.2247
   427.54         105.2726
   427.68         105.3445
   427.82         105.4461
   427.96         105.5796
   428.10         105.7401
   428.24         105.9169
   428.38         106.0978
   428.52         106.2671
   428.66         106.4100
   428.80         106.5118
   428.94         106.5554
   429.08         106.5295
   429.22         106.4361
   429.36         106.2871
   429.50         106.0967
   429.64         105.8785
   429.78         105.6453
   429.92         105.4128
   430.06         105.1983
   430.20         105.0124
   430.34         104.8481
   430.48         104.6828
   430.62         104.4900
   430.76         104.2431
   430.90         103.9172
   431.04         103.4945
   431.18         102.9679
   431.32         102.3380
   431.46         101.6107
   431.60         100.7963
   431.74         99.9069
   431.88         98.9474
   432.02         97.9044
   432.16         96.7498
   432.30         95.4462
   432.44         93.9458
   432.58         92.1895
   432.72         90.1116
   432.86         87.6559
   433.00         84.7986
   433.14         81.5743
   433.28         78.0866
   433.42         74.4983
   433.56         71.0119
   433.70         67.8535
   433.84         65.2480
   433.98         63.3870
   434.12         62.4090
   434.26         62.3915
   434.40         63.3393
   434.54         65.1769
   434.68         67.7613
   434.82         70.9010
   434.96         74.3743
   435.10         77.9527
   435.24         81.4272
   435.38         84.6319
   435.52         87.4610
   435.66         89.8756
   435.80         91.8948
   435.94         93.5715
   436.08         94.9658
   436.22         96.1326
   436.36         97.1183
   436.50         97.9568
   436.64         98.6684
   436.78         99.2674
   436.92         99.7638
   437.06         100.1578
   437.20         100.4379
   437.34         100.5842
   437.48         100.5730
   437.62         100.3890
   437.76         100.0375
   437.90         99.5479
   438.04         98.9622
   438.18         98.3274
   438.32         97.6954
   438.46         97.1173
   438.60         96.6372
   438.74         96.2878
   438.88         96.0862
   439.02         96.0327
   439.16         96.1144
   439.30         96.3090
   439.44         96.5850
   439.58         96.9045
   439.72         97.2246
   439.86         97.5015
   440.00         97.7027
   440.14         97.8162
   440.28         97.8473
   440.42         97.8117
   440.56         97.7249
   440.70         97.5983
   440.84         97.4430
   440.98         97.2741
   441.12         97.1032
   441.26         96.9329
   441.40         96.7585
   441.54         96.5728
   441.68         96.3735
   441.82         96.1671
   441.96         95.9600
   442.10         95.7508
   442.24         95.5350
   442.38         95.3085
   442.52         95.0707
   442.66         94.8299
   442.80         94.5986
   442.94         94.3910
   443.08         94.2217
   443.22         94.1002
   443.36         94.0267
   443.50         93.9927
   443.64         93.9841
   443.78         93.9877
   443.92         93.9988
   444.06         94.0196
   444.20         94.0493
   444.34         94.0801
   444.48         94.1025
   444.62         94.1110
   444.76         94.1080
   444.90         94.1005
   445.04         94.0960
   445.18         94.0996
   445.32         94.1113
   445.46         94.1227
   445.60         94.1187
   445.74         94.0812
   445.88         93.9834
   446.02         93.7972
   446.16         93.5096
   446.30         93.1294
   446.44         92.6854
   446.58         92.2142
   446.72         91.7453
   446.86         91.2989
   447.00         90.8902
   447.14         90.5328
   447.28         90.2428
   447.42         90.0346
   447.56         89.9190
   447.70         89.9000
   447.84         89.9738
   447.98         90.1329
   448.12         90.3653
   448.26         90.6567
   448.40         90.9895
   448.54         91.3407
   448.68         91.6874
   448.82         92.0076
   448.96         92.2747
   449.10         92.4665
   449.24         92.5674
   449.38         92.5663
   449.52         92.4639
   449.66         92.2763
   449.80         92.0354
   449.94         91.7817
   450.08         91.5471
   450.22         91.3466
   450.36         91.1860
   450.50         91.0683
   450.64         90.9944
   450.78         90.9607
   450.92         90.9565
   451.06         90.9662
   451.20         90.9756
   451.34         90.9755
   451.48         90.9618
   451.62         90.9378
   451.76         90.9192
   451.90         90.9124
   452.04         90.9073
   452.18         90.8939
   452.32         90.8664
   452.46         90.8231
   452.60         90.7610
   452.74         90.6747
   452.88         90.5630
   453.02         90.4306
   453.16         90.2809
   453.30         90.1184
   453.44         89.9503
   453.58         89.7830
   453.72         89.6283
   453.86         89.4982
   454.00         89.3934
   454.14         89.3044
   454.28         89.2223
   454.42         89.1392
   454.56         89.0405
   454.70         88.9185
   454.84         88.7819
   454.98         88.6441
   455.12         88.5166
   455.26         88.4054
   455.40         88.3114
   455.54         88.2338
   455.68         88.1721
   455.82         88.1266
   455.96         88.0982
   456.10         88.0821
   456.24         88.0704
   456.38         88.0582
   456.52         88.0377
   456.66         88.0004
   456.80         87.9468
   456.94         87.8845
   457.08         87.8187
   457.22         87.7529
   457.36         87.6935
   457.50         87.6437
   457.64         87.5958
   457.78         87.5360
   457.92         87.4513
   458.06         87.3364
   458.20         87.1965
   458.34         87.0407
   458.48         86.8742
   458.62         86.6997
   458.76         86.5227
   458.90         86.3558
   459.04         86.2098
   459.18         86.0893
   459.32         86.0012
   459.46         85.9538
   459.60         85.9472
   459.74         85.9734
   459.88         86.0222
   460.02         86.0819
   460.16         86.1364
   460.30         86.1625
   460.44         86.1366
   460.58         86.0486
   460.72         85.9040
   460.86         85.7150
   461.00         85.4910
   461.14         85.2402
   461.28         84.9788
   461.42         84.7323
   461.56         84.5245
   461.70         84.3709
   461.84         84.2833
   461.98         84.2679
   462.12         84.3163
   462.26         84.4072
   462.40         84.5157
   462.54         84.6174
   462.68         84.6913
   462.82         84.7242
   462.96         84.7088
   463.10         84.6435
   463.24         84.5348
   463.38         84.3950
   463.52         84.2390
   463.66         84.0792
   463.80         83.9258
   463.94         83.7945
   464.08         83.6998
   464.22         83.6417
   464.36         83.6103
   464.50         83.5932
   464.64         83.5782
   464.78         83.5540
   464.92         83.5127
   465.06         83.4477
   465.20         83.3549
   465.34         83.2354
   465.48         83.0954
   465.62         82.9459
   465.76         82.8019
   465.90         82.6775
   466.04         82.5852
   466.18         82.5331
   466.32         82.5180
   466.46         82.5298
   466.60         82.5579
   466.74         82.5908
   466.88         82.6138
   467.02         82.6133
   467.16         82.5816
   467.30         82.5173
   467.44         82.4231
   467.58         82.3005
   467.72         82.1554
   467.86         82.0058
   468.00         81.8731
   468.14         81.7696
   468.28         81.6961
   468.42         81.6451
   468.56         81.6028
   468.70         81.5559
   468.84         81.4965
   468.98         81.4248
   469.12         81.3471
   469.26         81.2668
   469.40         81.1814
   469.54         81.0848
   469.68         80.9756
   469.82         80.8562
   469.96         80.7253
   470.10         80.5772
   470.24         80.4071
   470.38         80.2176
   470.52         80.0152
   470.66         79.8028
   470.80         79.5807
   470.94         79.3534
   471.08         79.1279
   471.22         78.9090
   471.36         78.7051
   471.50         78.5310
   471.64         78.3973
   471.78         78.2989
   471.92         78.2180
   472.06         78.1383
   472.20         78.0546
   472.34         77.9690
   472.48         77.8797
   472.62         77.7845
   472.76         77.6871
   472.90         77.5987
   473.04         77.5317
   473.18         77.4913
   473.32         77.4772
   473.46         77.4859
   473.60         77.5155
   473.74         77.5651
   473.88         77.6367
   474.02         77.7330
   474.16         77.8493
   474.30         77.9737
   474.44         78.0931
   474.58         78.1966
   474.72         78.2792
   474.86         78.3390
   475.00         78.3681
   475.14         78.3517
   475.28         78.2800
   475.42         78.1537
   475.56         77.9802
   475.70         77.7666
   475.84         77.5169
   475.98         77.2387
   476.12         76.9436
   476.26         76.6421
   476.40         76.3449
   476.54         76.0634
   476.68         75.8074
   476.82         75.5798
   476.96         75.3796
   477.10         75.2069
   477.24         75.0622
   477.38         74.9420
   477.52         74.8384
   477.66         74.7442
   477.80         74.6550
   477.94         74.5692
   478.08         74.4850
   478.22         74.3978
   478.36         74.3040
   478.50         74.2031
   478.64         74.1010
   478.78         74.0055
   478.92         73.9214
   479.06         73.8507
   479.20         73.7958
   479.34         73.7634
   479.48         73.7634
   479.62         73.8061
   479.76         73.8973
   479.90         74.0324
   480.04         74.1967
   480.18         74.3745
   480.32         74.5522
   480.46         74.7161
   480.60         74.8507
   480.74         74.9389
   480.88         74.9646
   481.02         74.9177
   481.16         74.7988
   481.30         74.6181
   481.44         74.3906
   481.58         74.1349
   481.72         73.8692
   481.86         73.6097
   482.00         73.3731
   482.14         73.1686
   482.28         72.9933
   482.42         72.8424
   482.56         72.7122
   482.70         72.5961
   482.84         72.4863
   482.98         72.3729
   483.12         72.2425
   483.26         72.0783
   483.40         71.8663
   483.54         71.6017
   483.68         71.2831
   483.82         70.9008
   483.96         70.4289
   484.10         69.8312
   484.24         69.0704
   484.38         68.1103
   484.52         66.9248
   484.66         65.4977
   484.80         63.8148
   484.94         61.8739
   485.08         59.6987
   485.22         57.3432
   485.36         54.8980
   485.50         52.4919
   485.64         50.2775
   485.78         48.4023
   485.92         46.9876
   486.06         46.1214
   486.20         45.8549
   486.34         46.1952
   486.48         47.1030
   486.62         48.5045
   486.76         50.3007
   486.90         52.3693
   487.04         54.5804
   487.18         56.8121
   487.32         58.9574
   487.46         60.9370
   487.60         62.7103
   487.74         64.2705
   487.88         65.6321
   488.02         66.8174
   488.16         67.8430
   488.30         68.7134
   488.44         69.4271
   488.58         69.9891
   488.72         70.4167
   488.86         70.7384
   489.00         70.9874
   489.14         71.1938
   489.28         71.3804
   489.42         71.5542
   489.56         71.7049
   489.70         71.8144
   489.84         71.8661
   489.98         71.8514
   490.12         71.7731
   490.26         71.6408
   490.40         71.4622
   490.54         71.2447
   490.68         71.0052
   490.82         70.7673
   490.96         70.5561
   491.10         70.3907
   491.24         70.2766
   491.38         70.2112
   491.52         70.1919
   491.66         70.2124
   491.80         70.2571
   491.94         70.3034
   492.08         70.3300
   492.22         70.3286
   492.36         70.3078
   492.50         70.2874
   492.64         70.2896
   492.78         70.3311
   492.92         70.4203
   493.06         70.5592
   493.20         70.7468
   493.34         70.9714
   493.48         71.2101
   493.62         71.4356
   493.76         71.6210
   493.90         71.7472
   494.04         71.8076
   494.18         71.8034
   494.32         71.7372
   494.46         71.6140
   494.60         71.4443
   494.74         71.2436
   494.88         71.0304
   495.02         70.8192
   495.16         70.6194
   495.30         70.4407
   495.44         70.2888
   495.58         70.1609
   495.72         70.0494
   495.86         69.9469
   496.00         69.8518
   496.14         69.7697
   496.28         69.7036
   496.42         69.6507
   496.56         69.6076
   496.70         69.5730
   496.84         69.5474
   496.98         69.5283
   497.12         69.5107
   497.26         69.4881
   497.40         69.4555
   497.54         69.4106
   497.68         69.3503
   497.82         69.2735
   497.96         69.1815
   498.10         69.0744
   498.24         68.9568
   498.38         68.8415
   498.52         68.7434
   498.66         68.6669
   498.80         68.5998
   498.94         68.5196
   499.08         68.3987
   499.22         68.2033
   499.36         67.9072
   499.50         67.5074
   499.64         67.0247
   499.78         66.4985
   499.92         65.9728
   500.06         65.4842
   500.20         65.0594
   500.34         64.7168
   500.48         64.4747
   500.62         64.3484
   500.76         64.3390
   500.90         64.4306
   501.04         64.5963
   501.18         64.8021
   501.32         65.0127
   501.46         65.1995
   501.60         65.3463
   501.74         65.4475
   501.88         65.5162
   502.02         65.5881
   502.16         65.7006
   502.30         65.8683
   502.44         66.0810
   502.58         66.3102
   502.72         66.5239
   502.86         66.6959
   503.00         66.8044
   503.14         66.8336
   503.28         66.7720
   503.42         66.6128
   503.56         66.3621
   503.70         66.0375
   503.84         65.6552
   503.98         65.2298
   504.12         64.7827
   504.26         64.3398
   504.40         63.9241
   504.54         63.5546
   504.68         63.2431
   504.82         62.9910
   504.96         62.7948
   505.10         62.6530
   505.24         62.5653
   505.38         62.5302
   505.52         62.5417
   505.66         62.5879
   505.80         62.6556
   505.94         62.7320
   506.08         62.8069
   506.22         62.8752
   506.36         62.9346
   506.50         62.9861
   506.64         63.0346
   506.78         63.0817
   506.92         63.1228
   507.06         63.1543
   507.20         63.1775
   507.34         63.1957
   507.48         63.2126
   507.62         63.2350
   507.76         63.2709
   507.90         63.3243
   508.04         63.3929
   508.18         63.4741
   508.32         63.5690
   508.46         63.6796
   508.60         63.8033
   508.74         63.9301
   508.88         64.0448
   509.02         64.1292
   509.16         64.1697
   509.30         64.1615
   509.44         64.1064
   509.58         64.0119
   509.72         63.8861
   509.86         63.7361
   510.00         63.5715
   510.14         63.4047
   510.28         63.2469
   510.42         63.1063
   510.56         62.9867
   510.70         62.8866
   510.84         62.8030
   510.98         62.7326
   511.12         62.6716
   511.26         62.6200
   511.40         62.5872
   511.54         62.5872
   511.68         62.6304
   511.82         62.7186
   511.96         62.8416
   512.10         62.9785
   512.24         63.1058
   512.38         63.2064
   512.52         63.2713
   512.66         63.2962
   512.80         63.2797
   512.94         63.2232
   513.08         63.1268
   513.22         62.9893
   513.36         62.8141
   513.50         62.6140
   513.64         62.4052
   513.78         62.2002
   513.92         62.0090
   514.06         61.8401
   514.20         61.6952
   514.34         61.5670
   514.48         61.4400
   514.62         61.2982
   514.76         61.1354
   514.90         60.9569
   515.04         60.7713
   515.18         60.5837
   515.32         60.3984
   515.46         60.2223
   515.60         60.0610
   515.74         59.9164
   515.88         59.7912
   516.02         59.6878
   516.16         59.6051
   516.30         59.5413
   516.44         59.4960
   516.58         59.4693
   516.72         59.4580
   516.86         59.4561
   517.00         59.4565
   517.14         59.4551
   517.28         59.4573
   517.42         59.4773
   517.56         59.5240
   517.70         59.5931
   517.84         59.6742
   517.98         59.7588
   518.12         59.8358
   518.26         59.8878
   518.40         59.9000
   518.54         59.8679
   518.68         59.7957
   518.82         59.6931
   518.96         59.5725
   519.10         59.4440
   519.24         59.3179
   519.38         59.2061
   519.52         59.1158
   519.66         59.0480
   519.80         59.0022
   519.94         58.9786
   520.08         58.9728
   520.22         58.9736
   520.36         58.9709
   520.50         58.9571
   520.64         58.9227
   520.78         58.8596
   520.92         58.7700
   521.06         58.6666
   521.20         58.5607
   521.34         58.4545
   521.48         58.3457
   521.62         58.2313
   521.76         58.1086
   521.90         57.9762
   522.04         57.8307
   522.18         57.6673
   522.32         57.4891
   522.46         57.3102
   522.60         57.1479
   522.74         57.0153
   522.88         56.9203
   523.02         56.8671
   523.16         56.8561
   523.30         56.8859
   523.44         56.9528
   523.58         57.0472
   523.72         57.1510
   523.86         57.2402
   524.00         57.2976
   524.14         57.3196
   524.28         57.3088
   524.42         57.2691
   524.56         57.2079
   524.70         57.1375
   524.84         57.0716
   524.98         57.0211
   525.12         56.9900
   525.26         56.9725
   525.40         56.9576
   525.54         56.9378
   525.68         56.9107
   525.82         56.8747
   525.96         56.8259
   526.10         56.7611
   526.24         56.6816
   526.38         56.5935
   526.52         56.5043
   526.66         56.4228
   526.80         56.3558
   526.94         56.3047
   527.08         56.2665
   527.22         56.2369
   527.36         56.2106
   527.50         56.1808
   527.64         56.1405
   527.78         56.0859
   527.92         56.0147
   528.06         55.9276
   528.20         55.8296
   528.34         55.7261
   528.48         55.6202
   528.62         55.5147
   528.76         55.4120
   528.90         55.3159
   529.04         55.2317
   529.18         55.1619
   529.32         55.1060
   529.46         55.0616
   529.60         55.0236
   529.74         54.9846
   529.88         54.9390
   530.02         54.8858
   530.16         54.8280
   530.30         54.7690
   530.44         54.7103
   530.58         54.6521
   530.72         54.5962
   530.86         54.5452
   531.00         54.4981
   531.14         54.4538
   531.28         54.4133
   531.42         54.3790
   531.56         54.3541
   531.70         54.3375
   531.84         54.3229
   531.98         54.3044
   532.12         54.2820
   532.26         54.2580
   532.40         54.2335
   532.54         54.2095
   532.68         54.1902
   532.82         54.1821
   532.96         54.1872
   533.10         54.2010
   533.24         54.2185
   533.38         54.2355
   533.52         54.2437
   533.66         54.2334
   533.80         54.1992
   533.94         54.1410
   534.08         54.0626
   534.22         53.9689
   534.36         53.8647
   534.50         53.7596
   534.64         53.6696
   534.78         53.6095
   534.92         53.5841
   535.06         53.5885
   535.20         53.6153
   535.34         53.6565
   535.48         53.6979
   535.62         53.7211
   535.76         53.7105
   535.90         53.6596
   536.04         53.5693
   536.18         53.4447
   536.32         53.2957
   536.46         53.1345
   536.60         52.9713
   536.74         52.8143
   536.88         52.6708
   537.02         52.5489
   537.16         52.4575
   537.30         52.4010
   537.44         52.3771
   537.58         52.3804
   537.72         52.4068
   537.86         52.4515
   538.00         52.5073
   538.14         52.5653
   538.28         52.6198
   538.42         52.6688
   538.56         52.7113
   538.70         52.7448
   538.84         52.7648
   538.98         52.7655
   539.12         52.7410
   539.26         52.6882
   539.40         52.6110
   539.54         52.5169
   539.68         52.4108
   539.82         52.2924
   539.96         52.1586
   540.10         52.0086
   540.24         51.8461
   540.38         51.6784
   540.52         51.5153
   540.66         51.3683
   540.80         51.2472
   540.94         51.1574
   541.08         51.1018
   541.22         51.0834
   541.36         51.1030
   541.50         51.1534
   541.64         51.2200
   541.78         51.2910
   541.92         51.3622
   542.06         51.4332
   542.20         51.5008
   542.34         51.5583
   542.48         51.6024
   542.62         51.6368
   542.76         51.6680
   542.90         51.7018
   543.04         51.7379
   543.18         51.7703
   543.32         51.7909
   543.46         51.7888
   543.60         51.7547
   543.74         51.6848
   543.88         51.5805
   544.02         51.4434
   544.16         51.2777
   544.30         51.0948
   544.44         50.9113
   544.58         50.7403
   544.72         50.5843
   544.86         50.4378
   545.00         50.2956
   545.14         50.1573
   545.28         50.0258
   545.42         49.9054
   545.56         49.7995
   545.70         49.7104
   545.84         49.6394
   545.98         49.5830
   546.12         49.5336
   546.26         49.4881
   546.40         49.4509
   546.54         49.4262
   546.68         49.4147
   546.82         49.4145
   546.96         49.4204
   547.10         49.4243
   547.24         49.4174
   547.38         49.3956
   547.52         49.3639
   547.66         49.3332
   547.80         49.3126
   547.94         49.3081
   548.08         49.3209
   548.22         49.3456
   548.36         49.3737
   548.50         49.3987
   548.64         49.4182
   548.78         49.4343
   548.92         49.4520
   549.06         49.4726
   549.20         49.4905
   549.34         49.4974
   549.48         49.4881
   549.62         49.4624
   549.76         49.4244
   549.90         49.3823
   550.04         49.3466
   550.18         49.3262
   550.32         49.3242
   550.46         49.3387
   550.60         49.3646
   550.74         49.3911
   550.88         49.4039
   551.02         49.3930
   551.16         49.3558
   551.30         49.2915
   551.44         49.1990
   551.58         49.0771
   551.72         48.9273
   551.86         48.7557
   552.00         48.5751
   552.14         48.4043
   552.28         48.2607
   552.42         48.1549
   552.56         48.0914
   552.70         48.0713
   552.84         48.0922
   552.98         48.1468
   553.12         48.2225
   553.26         48.3012
   553.40         48.3642
   553.54         48.3997
   553.68         48.4060
   553.82         48.3855
   553.96         48.3405
   554.10         48.2717
   554.24         48.1813
   554.38         48.0768
   554.52         47.9704
   554.66         47.8739
   554.80         47.7936
   554.94         47.7295
   555.08         47.6795
   555.22         47.6412
   555.36         47.6119
   555.50         47.5865
   555.64         47.5575
   555.78         47.5171
   555.92         47.4601
   556.06         47.3887
   556.20         47.3110
   556.34         47.2363
   556.48         47.1696
   556.62         47.1115
   556.76         47.0629
   556.90         47.0265
   557.04         47.0041
   557.18         46.9940
   557.32         46.9898
   557.46         46.9844
   557.60         46.9747
   557.74         46.9596
   557.88         46.9371
   558.02         46.9054
   558.16         46.8641
   558.30         46.8134
   558.44         46.7550
   558.58         46.6929
   558.72         46.6321
   558.86         46.5756
   559.00         46.5215
   559.14         46.4641
   559.28         46.3996
   559.42         46.3269
   559.56         46.2444
   559.70         46.1524
   559.84         46.0553
   559.98         45.9584
   560.12         45.8666
   560.26         45.7836
   560.40         45.7108
   560.54         45.6469
   560.68         45.5883
   560.82         45.5297
   560.96         45.4656
   561.10         45.3951
   561.24         45.3188
   561.38         45.2358
   561.52         45.1476
   561.66         45.0619
   561.80         44.9909
   561.94         44.9461
   562.08         44.9336
   562.22         44.9541
   562.36         45.0045
   562.50         45.0757
   562.64         45.1533
   562.78         45.2235
   562.92         45.2739
   563.06         45.2923
   563.20         45.2708
   563.34         45.2108
   563.48         45.1236
   563.62         45.0239
   563.76         44.9227
   563.90         44.8267
   564.04         44.7407
   564.18         44.6690
   564.32         44.6142
   564.46         44.5730
   564.60         44.5378
   564.74         44.5016
   564.88         44.4598
   565.02         44.4079
   565.16         44.3426
   565.30         44.2646
   565.44         44.1780
   565.58         44.0862
   565.72         43.9937
   565.86         43.9069
   566.00         43.8300
   566.14         43.7609
   566.28         43.6936
   566.42         43.6237
   566.56         43.5517
   566.70         43.4802
   566.84         43.4108
   566.98         43.3440
   567.12         43.2806
   567.26         43.2237
   567.40         43.1774
   567.54         43.1432
   567.68         43.1175
   567.82         43.0947
   567.96         43.0687
   568.10         43.0324
   568.24         42.9798
   568.38         42.9083
   568.52         42.8175
   568.66         42.7089
   568.80         42.5890
   568.94         42.4683
   569.08         42.3561
   569.22         42.2586
   569.36         42.1791
   569.50         42.1192
   569.64         42.0804
   569.78         42.0624
   569.92         42.0617
   570.06         42.0722
   570.20         42.0884
   570.34         42.1056
   570.48         42.1207
   570.62         42.1326
   570.76         42.1415
   570.90         42.1475
   571.04         42.1497
   571.18         42.1450
   571.32         42.1299
   571.46         42.1023
   571.60         42.0604
   571.74         42.0013
   571.88         41.9243
   572.02         41.8345
   572.16         41.7403
   572.30         41.6502
   572.44         41.5711
   572.58         41.5086
   572.72         41.4673
   572.86         41.4488
   573.00         41.4492
   573.14         41.4610
   573.28         41.4756
   573.42         41.4848
   573.56         41.4834
   573.70         41.4721
   573.84         41.4555
   573.98         41.4376
   574.12         41.4209
   574.26         41.4055
   574.40         41.3907
   574.54         41.3789
   574.68         41.3729
   574.82         41.3699
   574.96         41.3611
   575.10         41.3373
   575.24         41.2941
   575.38         41.2340
   575.52         41.1639
   575.66         41.0931
   575.80         41.0298
   575.94         40.9822
   576.08         40.9589
   576.22         40.9658
   576.36         41.0008
   576.50         41.0544
   576.64         41.1138
   576.78         41.1659
   576.92         41.1991
   577.06         41.2024
   577.20         41.1662
   577.34         41.0834
   577.48         40.9513
   577.62         40.7753
   577.76         40.5703
   577.90         40.3547
   578.04         40.1461
   578.18         39.9599
   578.32         39.8065
   578.46         39.6909
   578.60         39.6180
   578.74         39.5948
   578.88         39.6266
   579.02         39.7136
   579.16         39.8478
   579.30         40.0132
   579.44         40.1890
   579.58         40.3547
   579.72         40.4969
   579.86         40.6096
   580.00         40.6898
   580.14         40.7382
   580.28         40.7596
   580.42         40.7585
   580.56         40.7384
   580.70         40.7058
   580.84         40.6690
   580.98         40.6330
   581.12         40.6009
   581.26         40.5758
   581.40         40.5573
   581.54         40.5373
   581.68         40.5030
   581.82         40.4449
   581.96         40.3618
   582.10         40.2607
   582.24         40.1512
   582.38         40.0434
   582.52         39.9463
   582.66         39.8712
   582.80         39.8288
   582.94         39.8224
   583.08         39.8492
   583.22         39.9074
   583.36         39.9934
   583.50         40.0974
   583.64         40.2039
   583.78         40.2959
   583.92         40.3592
   584.06         40.3831
   584.20         40.3623
   584.34         40.2983
   584.48         40.1986
   584.62         40.0762
   584.76         39.9483
   584.90         39.8311
   585.04         39.7375
   585.18         39.6759
   585.32         39.6485
   585.46         39.6489
   585.60         39.6667
   585.74         39.6949
   585.88         39.7259
   586.02         39.7476
   586.16         39.7462
   586.30         39.7094
   586.44         39.6300
   586.58         39.5085
   586.72         39.3526
   586.86         39.1773
   587.00         38.9999
   587.14         38.8340
   587.28         38.6878
   587.42         38.5627
   587.56         38.4532
   587.70         38.3472
   587.84         38.2306
   587.98         38.0943
   588.12         37.9379
   588.26         37.7655
   588.40         37.5786
   588.54         37.3753
   588.68         37.1595
   588.82         36.9428
   588.96         36.7410
   589.10         36.5728
   589.24         36.4580
   589.38         36.4129
   589.52         36.4463
   589.66         36.5543
   589.80         36.7215
   589.94         36.9288
   590.08         37.1586
   590.22         37.3938
   590.36         37.6160
   590.50         37.8107
   590.64         37.9721
   590.78         38.0981
   590.92         38.1856
   591.06         38.2334
   591.20         38.2481
   591.34         38.2416
   591.48         38.2253
   591.62         38.2091
   591.76         38.1995
   591.90         38.1989
   592.04         38.2061
   592.18         38.2174
   592.32         38.2250
   592.46         38.2208
   592.60         38.2010
   592.74         38.1646
   592.88         38.1095
   593.02         38.0344
   593.16         37.9420
   593.30         37.8383
   593.44         37.7301
   593.58         37.6212
   593.72         37.5126
   593.86         37.4033
   594.00         37.2950
   594.14         37.1913
   594.28         37.0958
   594.42         37.0108
   594.56         36.9399
   594.70         36.8873
   594.84         36.8575
   594.98         36.8527
   595.12         36.8707
   595.26         36.9066
   595.40         36.9518
   595.54         36.9938
   595.68         37.0185
   595.82         37.0146
   595.96         36.9775
   596.10         36.9100
   596.24         36.8192
   596.38         36.7151
   596.52         36.6102
   596.66         36.5162
   596.80         36.4390
   596.94         36.3811
   597.08         36.3450
   597.22         36.3317
   597.36         36.3402
   597.50         36.3679
   597.64         36.4084
   597.78         36.4529
   597.92         36.4936
   598.06         36.5231
   598.20         36.5340
   598.34         36.5244
   598.48         36.4989
   598.62         36.4655
   598.76         36.4291
   598.90         36.3890
   599.04         36.3419
   599.18         36.2833
   599.32         36.2080
   599.46         36.1174
   599.60         36.0198
   599.74         35.9238
   599.88         35.8346
   600.02         35.7526
   600.16         35.6742
   600.30         35.5979
   600.44         35.5254
   600.58         35.4600
   600.72         35.4058
   600.86         35.3680
   601.00         35.3521
   601.14         35.3640
   601.28         35.4067
   601.42         35.4754
   601.56         35.5601
   601.70         35.6508
   601.84         35.7404
   601.98         35.8262
   602.12         35.9078
   602.26         35.9819
   602.40         36.0425
   602.54         36.0841
   602.68         36.1028
   602.82         36.0989
   602.96         36.0764
   603.10         36.0359
   603.24         35.9743
   603.38         35.8898
   603.52         35.7851
   603.66         35.6677
   603.80         35.5465
   603.94         35.4288
   604.08         35.3199
   604.22         35.2257
   604.36         35.1530
   604.50         35.1069
   604.64         35.0875
   604.78         35.0904
   604.92         35.1085
   605.06         35.1353
   605.20         35.1661
   605.34         35.1968
   605.48         35.2228
   605.62         35.2391
   605.76         35.2420
   605.90         35.2315
   606.04         35.2111
   606.18         35.1852
   606.32         35.1554
   606.46         35.1206
   606.60         35.0788
   606.74         35.0290
   606.88         34.9712
   607.02         34.9068
   607.16         34.8394
   607.30         34.7740
   607.44         34.7168
   607.58         34.6736
   607.72         34.6481
   607.86         34.6398
   608.00         34.6448
   608.14         34.6576
   608.28         34.6732
   608.42         34.6869
   608.56         34.6936
   608.70         34.6888
   608.84         34.6697
   608.98         34.6362
   609.12         34.5902
   609.26         34.5364
   609.40         34.4801
   609.54         34.4260
   609.68         34.3776
   609.82         34.3386
   609.96         34.3117
   610.10         34.2969
   610.24         34.2914
   610.38         34.2902
   610.52         34.2891
   610.66         34.2840
   610.80         34.2724
   610.94         34.2532
   611.08         34.2264
   611.22         34.1922
   611.36         34.1517
   611.50         34.1078
   611.64         34.0637
   611.78         34.0217
   611.92         33.9834
   612.06         33.9503
   612.20         33.9242
   612.34         33.9059
   612.48         33.8929
   612.62         33.8807
   612.76         33.8672
   612.90         33.8526
   613.04         33.8376
   613.18         33.8209
   613.32         33.7995
   613.46         33.7704
   613.60         33.7318
   613.74         33.6833
   613.88         33.6266
   614.02         33.5655
   614.16         33.5043
   614.30         33.4447
   614.44         33.3879
   614.58         33.3345
   614.72         33.2853
   614.86         33.2401
   615.00         33.1991
   615.14         33.1636
   615.28         33.1361
   615.42         33.1171
   615.56         33.1027
   615.70         33.0876
   615.84         33.0679
   615.98         33.0411
   616.12         33.0064
   616.26         32.9645
   616.40         32.9180
   616.54         32.8705
   616.68         32.8258
   616.82         32.7874
   616.96         32.7585
   617.10         32.7416
   617.24         32.7381
   617.38         32.7477
   617.52         32.7686
   617.66         32.7970
   617.80         32.8273
   617.94         32.8549
   618.08         32.8777
   618.22         32.8963
   618.36         32.9109
   618.50         32.9207
   618.64         32.9264
   618.78         32.9319
   618.92         32.9428
   619.06         32.9637
   619.20         32.9967
   619.34         33.0405
   619.48         33.0901
   619.62         33.1385
   619.76         33.1801
   619.90         33.2121
   620.04         33.2329
   620.18         33.2423
   620.32         33.2404
   620.46         33.2287
   620.60         33.2097
   620.74         33.1846
   620.88         33.1528
   621.02         33.1136
   621.16         33.0686
   621.30         33.0206
   621.44         32.9702
   621.58         32.9165
   621.72         32.8584
   621.86         32.7955
   622.00         32.7280
   622.14         32.6575
   622.28         32.5888
   622.42         32.5279
   622.56         32.4798
   622.70         32.4466
   622.84         32.4289
   622.98         32.4263
   623.12         32.4374
   623.26         32.4584
   623.40         32.4838
   623.54         32.5079
   623.68         32.5266
   623.82         32.5386
   623.96         32.5445
   624.10         32.5464
   624.24         32.5473
   624.38         32.5499
   624.52         32.5568
   624.66         32.5705
   624.80         32.5931
   624.94         32.6241
   625.08         32.6594
   625.22         32.6884
   625.36         32.6975
   625.50         32.6758
   625.64         32.6180
   625.78         32.5248
   625.92         32.4018
   626.06         32.2590
   626.20         32.1088
   626.34         31.9630
   626.48         31.8302
   626.62         31.7133
   626.76         31.6099
   626.90         31.5158
   627.04         31.4259
   627.18         31.3335
   627.32         31.2317
   627.46         31.1168
   627.60         30.9908
   627.74         30.8603
   627.88         30.7357
   628.02         30.6308
   628.16         30.5621
   628.30         30.5428
   628.44         30.5786
   628.58         30.6662
   628.72         30.7952
   628.86         30.9496
   629.00         31.1109
   629.14         31.2623
   629.28         31.3912
   629.42         31.4895
   629.56         31.5535
   629.70         31.5834
   629.84         31.5839
   629.98         31.5643
   630.12         31.5361
   630.26         31.5079
   630.40         31.4825
   630.54         31.4582
   630.68         31.4320
   630.82         31.4018
   630.96         31.3670
   631.10         31.3272
   631.24         31.2828
   631.38         31.2344
   631.52         31.1843
   631.66         31.1355
   631.80         31.0912
   631.94         31.0534
   632.08         31.0231
   632.22         31.0018
   632.36         30.9910
   632.50         30.9911
   632.64         31.0011
   632.78         31.0178
   632.92         31.0362
   633.06         31.0519
   633.20         31.0622
   633.34         31.0641
   633.48         31.0549
   633.62         31.0320
   633.76         30.9935
   633.90         30.9390
   634.04         30.8716
   634.18         30.7972
   634.32         30.7224
   634.46         30.6539
   634.60         30.5970
   634.74         30.5552
   634.88         30.5294
   635.02         30.5187
   635.16         30.5208
   635.30         30.5323
   635.44         30.5483
   635.58         30.5635
   635.72         30.5732
   635.86         30.5727
   636.00         30.5580
   636.14         30.5280
   636.28         30.4851
   636.42         30.4326
   636.56         30.3741
   636.70         30.3118
   636.84         30.2461
   636.98         30.1761
   637.12         30.1019
   637.26         30.0257
   637.40         29.9503
   637.54         29.8781
   637.68         29.8120
   637.82         29.7553
   637.96         29.7100
   638.10         29.6766
   638.24         29.6543
   638.38         29.6426
   638.52         29.6402
   638.66         29.6458
   638.80         29.6577
   638.94         29.6740
   639.08         29.6925
   639.22         29.7120
   639.36         29.7312
   639.50         29.7495
   639.64         29.7672
   639.78         29.7850
   639.92         29.8024
   640.06         29.8161
   640.20         29.8219
   640.34         29.8167
   640.48         29.7980
   640.62         29.7644
   640.76         29.7159
   640.90         29.6550
   641.04         29.5866
   641.18         29.5167
   641.32         29.4515
   641.46         29.3974
   641.60         29.3596
   641.74         29.3416
   641.88         29.3440
   642.02         29.3639
   642.16         29.3969
   642.30         29.4380
   642.44         29.4820
   642.58         29.5228
   642.72         29.5561
   642.86         29.5805
   643.00         29.5975
   643.14         29.6091
   643.28         29.6152
   643.42         29.6144
   643.56         29.6047
   643.70         29.5842
   643.84         29.5522
   643.98         29.5098
   644.12         29.4589
   644.26         29.4011
   644.40         29.3380
   644.54         29.2712
   644.68         29.2027
   644.82         29.1362
   644.96         29.0755
   645.10         29.0220
   645.24         28.9756
   645.38         28.9353
   645.52         28.9013
   645.66         28.8730
   645.80         28.8494
   645.94         28.8306
   646.08         28.8186
   646.22         28.8152
   646.36         28.8207
   646.50         28.8330
   646.64         28.8485
   646.78         28.8635
   646.92         28.8743
   647.06         28.8788
   647.20         28.8767
   647.34         28.8692
   647.48         28.8581
   647.62         28.8439
   647.76         28.8260
   647.90         28.8042
   648.04         28.7794
   648.18         28.7528
   648.32         28.7259
   648.46         28.7007
   648.60         28.6796
   648.74         28.6640
   648.88         28.6536
   649.02         28.6483
   649.16         28.6499
   649.30         28.6616
   649.44         28.6862
   649.58         28.7242
   649.72         28.7745
   649.86         28.8347
   650.00         28.8999
   650.14         28.9636
   650.28         29.0191
   650.42         29.0616
   650.56         29.0884
   650.70         29.0986
   650.84         29.0938
   650.98         29.0776
   651.12         29.0530
   651.26         29.0214
   651.40         28.9840
   651.54         28.9424
   651.68         28.8988
   651.82         28.8556
   651.96         28.8137
   652.10         28.7724
   652.24         28.7296
   652.38         28.6838
   652.52         28.6340
   652.66         28.5795
   652.80         28.5200
   652.94         28.4553
   653.08         28.3850
   653.22         28.3083
   653.36         28.2242
   653.50         28.1309
   653.64         28.0239
   653.78         27.8966
   653.92         27.7429
   654.06         27.5579
   654.20         27.3373
   654.34         27.0756
   654.48         26.7665
   654.62         26.4037
   654.76         25.9817
   654.90         25.4964
   655.04         24.9460
   655.18         24.3342
   655.32         23.6737
   655.46         22.9875
   655.60         22.3079
   655.74         21.6730
   655.88         21.1227
   656.02         20.6949
   656.16         20.4207
   656.30         20.3200
   656.44         20.4015
   656.58         20.6618
   656.72         21.0848
   656.86         21.6413
   657.00         22.2920
   657.14         22.9932
   657.28         23.7015
   657.42         24.3784
   657.56         24.9935
   657.70         25.5278
   657.84         25.9739
   657.98         26.3333
   658.12         26.6140
   658.26         26.8267
   658.40         26.9836
   658.54         27.0974
   658.68         27.1805
   658.82         27.2435
   658.96         27.2959
   659.10         27.3457
   659.24         27.3988
   659.38         27.4570
   659.52         27.5187
   659.66         27.5804
   659.80         27.6381
   659.94         27.6872
   660.08         27.7220
   660.22         27.7379
   660.36         27.7330
   660.50         27.7081
   660.64         27.6663
   660.78         27.6125
   660.92         27.5521
   661.06         27.4910
   661.20         27.4349
   661.34         27.3884
   661.48         27.3542
   661.62         27.3334
   661.76         27.3259
   661.90         27.3301
   662.04         27.3430
   662.18         27.3605
   662.32         27.3780
   662.46         27.3910
   662.60         27.3962
   662.74         27.3931
   662.88         27.3837
   663.02         27.3706
   663.16         27.3546
   663.30         27.3345
   663.44         27.3100
   663.58         27.2824
   663.72         27.2541
   663.86         27.2258
   664.00         27.1972
   664.14         27.1677
   664.28         27.1373
   664.42         27.1059
   664.56         27.0729
   664.70         27.0379
   664.84         27.0010
   664.98         26.9633
   665.12         26.9268
   665.26         26.8937
   665.40         26.8658
   665.54         26.8432
   665.68         26.8244
   665.82         26.8074
   665.96         26.7906
   666.10         26.7729
   666.24         26.7526
   666.38         26.7264
   666.52         26.6902
   666.66         26.6413
   666.80         26.5806
   666.94         26.5113
   667.08         26.4383
   667.22         26.3671
   667.36         26.3043
   667.50         26.2552
   667.64         26.2229
   667.78         26.2085
   667.92         26.2120
   668.06         26.2314
   668.20         26.2622
   668.34         26.2985
   668.48         26.3337
   668.62         26.3622
   668.76         26.3798
   668.90         26.3839
   669.04         26.3739
   669.18         26.3520
   669.32         26.3222
   669.46         26.2895
   669.60         26.2587
   669.74         26.2335
   669.88         26.2160
   670.02         26.2055
   670.16         26.2001
   670.30         26.1977
   670.44         26.1968
   670.58         26.1960
   670.72         26.1932
   670.86         26.1861
   671.00         26.1744
   671.14         26.1594
   671.28         26.1425
   671.42         26.1239
   671.56         26.1028
   671.70         26.0778
   671.84         26.0473
   671.98         26.0096
   672.12         25.9641
   672.26         25.9119
   672.40         25.8550
   672.54         25.7959
   672.68         25.7377
   672.82         25.6842
   672.96         25.6380
   673.10         25.6002
   673.24         25.5707
   673.38         25.5496
   673.52         25.5368
   673.66         25.5316
   673.80         25.5313
   673.94         25.5320
   674.08         25.5303
   674.22         25.5242
   674.36         25.5130
   674.50         25.4971
   674.64         25.4784
   674.78         25.4597
   674.92         25.4434
   675.06         25.4300
   675.20         25.4184
   675.34         25.4078
   675.48         25.3983
   675.62         25.3900
   675.76         25.3830
   675.90         25.3773
   676.04         25.3727
   676.18         25.3684
   676.32         25.3631
   676.46         25.3552
   676.60         25.3435
   676.74         25.3277
   676.88         25.3082
   677.02         25.2864
   677.16         25.2630
   677.30         25.2381
   677.44         25.2107
   677.58         25.1797
   677.72         25.1442
   677.86         25.1048
   678.00         25.0633
   678.14         25.0214
   678.28         24.9804
   678.42         24.9427
   678.56         24.9118
   678.70         24.8922
   678.84         24.8868
   678.98         24.8957
   679.12         24.9169
   679.26         24.9466
   679.40         24.9803
   679.54         25.0136
   679.68         25.0420
   679.82         25.0615
   679.96         25.0701
   680.10         25.0677
   680.24         25.0560
   680.38         25.0374
   680.52         25.0147
   680.66         24.9907
   680.80         24.9681
   680.94         24.9479
   681.08         24.9302
   681.22         24.9141
   681.36         24.8970
   681.50         24.8749
   681.64         24.8441
   681.78         24.8023
   681.92         24.7497
   682.06         24.6876
   682.20         24.6181
   682.34         24.5434
   682.48         24.4665
   682.62         24.3916
   682.76         24.3234
   682.90         24.2661
   683.04         24.2236
   683.18         24.1984
   683.32         24.1909
   683.46         24.1979
   683.60         24.2136
   683.74         24.2316
   683.88         24.2467
   684.02         24.2558
   684.16         24.2572
   684.30         24.2504
   684.44         24.2344
   684.58         24.2091
   684.72         24.1763
   684.86         24.1400
   685.00         24.1048
   685.14         24.0742
   685.28         24.0480
   685.42         24.0196
   685.56         23.9733
   685.70         23.8861
   685.84         23.7329
   685.98         23.4943
   686.12         23.1617
   686.26         22.7394
   686.40         22.2442
   686.54         21.7027
   686.68         21.1494
   686.82         20.6232
   686.96         20.1642
   687.10         19.8096
   687.24         19.5873
   687.38         19.5112
   687.52         19.5781
   687.66         19.7684
   687.80         20.0492
   687.94         20.3796
   688.08         20.7165
   688.22         21.0211
   688.36         21.2662
   688.50         21.4400
   688.64         21.5440
   688.78         21.5880
   688.92         21.5867
   689.06         21.5571
   689.20         21.5173
   689.34         21.4832
   689.48         21.4669
   689.62         21.4745
   689.76         21.5051
   689.90         21.5534
   690.04         21.6137
   690.18         21.6808
   690.32         21.7508
   690.46         21.8220
   690.60         21.8945
   690.74         21.9687
   690.88         22.0444
   691.02         22.1217
   691.16         22.2001
   691.30         22.2786
   691.44         22.3562
   691.58         22.4318
   691.72         22.5043
   691.86         22.5724
   692.00         22.6358
   692.14         22.6940
   692.28         22.7464
   692.42         22.7936
   692.56         22.8367
   692.70         22.8753
   692.84         22.9084
   692.98         22.9361
   693.12         22.9601
   693.26         22.9817
   693.40         23.0018
   693.54         23.0216
   693.68         23.0426
   693.82         23.0659
   693.96         23.0927
   694.10         23.1241
   694.24         23.1597
   694.38         23.1978
   694.52         23.2359
   694.66         23.2697
   694.80         23.2952
   694.94         23.3100
   695.08         23.3130
   695.22         23.3023
   695.36         23.2776
   695.50         23.2421
   695.64         23.2015
   695.78         23.1618
   695.92         23.1274
   696.06         23.1021
   696.20         23.0898
   696.34         23.0924
   696.48         23.1091
   696.62         23.1356
   696.76         23.1661
   696.90         23.1940
   697.04         23.2135
   697.18         23.2202
   697.32         23.2111
   697.46         23.1851
   697.60         23.1426
   697.74         23.0839
   697.88         23.0106
   698.02         22.9261
   698.16         22.8353
   698.30         22.7438
   698.44         22.6579
   698.58         22.5831
   698.72         22.5242
   698.86         22.4843
   699.00         22.4648
   699.14         22.4648
   699.28         22.4821
   699.42         22.5134
   699.56         22.5557
   699.70         22.6056
   699.84         22.6593
   699.98         22.7123
   700.12         22.7600
   700.26         22.7986
   700.40         22.8259
   700.54         22.8426
   700.68         22.8502
   700.82         22.8512
   700.96         22.8481
   701.10         22.8423
   701.24         22.8341
   701.38         22.8240
   701.52         22.8135
   701.66         22.8029
   701.80         22.7910
   701.94         22.7763
   702.08         22.7578
   702.22         22.7354
   702.36         22.7098
   702.50         22.6810
   702.64         22.6486
   702.78         22.6120
   702.92         22.5718
   703.06         22.5289
   703.20         22.4845
   703.34         22.4390
   703.48         22.3932
   703.62         22.3486
   703.76         22.3083
   703.90         22.2754
   704.04         22.2513
   704.18         22.2360
   704.32         22.2283
   704.46         22.2272
   704.60         22.2317
   704.74         22.2410
   704.88         22.2531
   705.02         22.2645
   705.16         22.2707
   705.30         22.2681
   705.44         22.2546
   705.58         22.2289
   705.72         22.1901
   705.86         22.1384
   706.00         22.0760
   706.14         22.0061
   706.28         21.9326
   706.42         21.8597
   706.56         21.7908
   706.70         21.7299
   706.84         21.6816
   706.98         21.6504
   707.12         21.6386
   707.26         21.6457
   707.40         21.6684
   707.54         21.7027
   707.68         21.7452
   707.82         21.7936
   707.96         21.8446
   708.10         21.8943
   708.24         21.9390
   708.38         21.9763
   708.52         22.0050
   708.66         22.0252
   708.80         22.0378
   708.94         22.0453
   709.08         22.0513
   709.22         22.0587
   709.36         22.0698
   709.50         22.0854
   709.64         22.1040
   709.78         22.1226
   709.92         22.1382
   710.06         22.1503
   710.20         22.1603
   710.34         22.1703
   710.48         22.1817
   710.62         22.1934
   710.76         22.2036
   710.90         22.2111
   711.04         22.2160
   711.18         22.2180
   711.32         22.2166
   711.46         22.2113
   711.60         22.2009
   711.74         22.1832
   711.88         22.1570
   712.02         22.1229
   712.16         22.0818
   712.30         22.0351
   712.44         21.9855
   712.58         21.9366
   712.72         21.8926
   712.86         21.8565
   713.00         21.8293
   713.14         21.8095
   713.28         21.7944
   713.42         21.7816
   713.56         21.7707
   713.70         21.7614
   713.84         21.7526
   713.98         21.7441
   714.12         21.7373
   714.26         21.7340
   714.40         21.7364
   714.54         21.7467
   714.68         21.7658
   714.82         21.7933
   714.96         21.8286
   715.10         21.8698
   715.24         21.9127
   715.38         21.9510
   715.52         21.9773
   715.66         21.9855
   715.80         21.9713
   715.94         21.9334
   716.08         21.8739
   716.22         21.7966
   716.36         21.7051
   716.50         21.6036
   716.64         21.4974
   716.78         21.3927
   716.92         21.2939
   717.06         21.2035
   717.20         21.1219
   717.34         21.0473
   717.48         20.9768
   717.62         20.9077
   717.76         20.8376
   717.90         20.7650
   718.04         20.6904
   718.18         20.6176
   718.32         20.5533
   718.46         20.5037
   718.60         20.4731
   718.74         20.4631
   718.88         20.4726
   719.02         20.4993
   719.16         20.5400
   719.30         20.5903
   719.44         20.6446
   719.58         20.6974
   719.72         20.7462
   719.86         20.7908
   720.00         20.8333
   720.14         20.8776
   720.28         20.9280
   720.42         20.9871
   720.56         21.0570
   720.70         21.1396
   720.84         21.2360
   720.98         21.3433
   721.12         21.4538
   721.26         21.5582
   721.40         21.6481
   721.54         21.7176
   721.68         21.7628
   721.82         21.7816
   721.96         21.7737
   722.10         21.7396
   722.24         21.6810
   722.38         21.6016
   722.52         21.5073
   722.66         21.4051
   722.80         21.3009
   722.94         21.1993
   723.08         21.1043
   723.22         21.0183
   723.36         20.9425
   723.50         20.8782
   723.64         20.8261
   723.78         20.7865
   723.92         20.7586
   724.06         20.7398
   724.20         20.7264
   724.34         20.7147
   724.48         20.7019
   724.62         20.6862
   724.76         20.6686
   724.90         20.6529
   725.04         20.6438
   725.18         20.6432
   725.32         20.6496
   725.46         20.6606
   725.60         20.6751
   725.74         20.6928
   725.88         20.7134
   726.02         20.7359
   726.16         20.7575
   726.30         20.7727
   726.44         20.7739
   726.58         20.7541
   726.72         20.7102
   726.86         20.6451
   727.00         20.5650
   727.14         20.4782
   727.28         20.3931
   727.42         20.3169
   727.56         20.2539
   727.70         20.2053
   727.84         20.1694
   727.98         20.1434
   728.12         20.1240
   728.26         20.1080
   728.40         20.0920
   728.54         20.0738
   728.68         20.0539
   728.82         20.0345
   728.96         20.0181
   729.10         20.0071
   729.24         20.0049
   729.38         20.0165
   729.52         20.0447
   729.66         20.0873
   729.80         20.1379
   729.94         20.1887
   730.08         20.2325
   730.22         20.2641
   730.36         20.2797
   730.50         20.2776
   730.64         20.2593
   730.78         20.2282
   730.92         20.1872
   731.06         20.1389
   731.20         20.0863
   731.34         20.0327
   731.48         19.9802
   731.62         19.9303
   731.76         19.8856
   731.90         19.8484
   732.04         19.8192
   732.18         19.7965
   732.32         19.7788
   732.46         19.7667
   732.60         19.7619
   732.74         19.7649
   732.88         19.7745
   733.02         19.7883
   733.16         19.8039
   733.30         19.8182
   733.44         19.8281
   733.58         19.8323
   733.72         19.8316
   733.86         19.8280
   734.00         19.8229
   734.14         19.8166
   734.28         19.8089
   734.42         19.7992
   734.56         19.7858
   734.70         19.7675
   734.84         19.7445
   734.98         19.7184
   735.12         19.6915
   735.26         19.6652
   735.40         19.6395
   735.54         19.6152
   735.68         19.5933
   735.82         19.5734
   735.96         19.5549
   736.10         19.5374
   736.24         19.5203
   736.38         19.5031
   736.52         19.4853
   736.66         19.4659
   736.80         19.4440
   736.94         19.4187
   737.08         19.3889
   737.22         19.3531
   737.36         19.3109
   737.50         19.2630
   737.64         19.2102
   737.78         19.1530
   737.92         19.0923
   738.06         19.0308
   738.20         18.9741
   738.34         18.9273
   738.48         18.8950
   738.62         18.8811
   738.76         18.8883
   738.90         18.9172
   739.04         18.9652
   739.18         19.0262
   739.32         19.0918
   739.46         19.1534
   739.60         19.2036
   739.74         19.2381
   739.88         19.2555
   740.02         19.2563
   740.16         19.2425
   740.30         19.2176
   740.44         19.1862
   740.58         19.1538
   740.72         19.1254
   740.86         19.1037
   741.00         19.0885
   741.14         19.0771
   741.28         19.0662
   741.42         19.0531
   741.56         19.0355
   741.70         19.0115
   741.84         18.9808
   741.98         18.9448
   742.12         18.9064
   742.26         18.8687
   742.40         18.8351
   742.54         18.8082
   742.68         18.7893
   742.82         18.7795
   742.96         18.7795
   743.10         18.7893
   743.24         18.8082
   743.38         18.8351
   743.52         18.8687
   743.66         18.9064
   743.80         18.9448
   743.94         18.9808
   744.08         19.0115
   744.22         19.0355
