# File HD28099
# Wavelength [nm]    Normalized Amplitude
   349.70         15.4563
   349.84         15.4023
   349.98         15.3994
   350.12         15.4406
   350.26         15.5121
   350.40         15.5966
   350.54         15.6797
   350.68         15.7514
   350.82         15.8046
   350.96         15.8361
   351.10         15.8464
   351.24         15.8361
   351.38         15.8046
   351.52         15.7514
   351.66         15.6797
   351.80         15.5966
   351.94         15.5121
   352.08         15.4406
   352.22         15.3994
   352.36         15.4023
   352.50         15.4563
   352.64         15.5602
   352.78         15.7099
   352.92         15.9008
   353.06         16.1261
   353.20         16.3760
   353.34         16.6369
   353.48         16.8920
   353.62         17.1229
   353.76         17.3156
   353.90         17.4628
   354.04         17.5626
   354.18         17.6169
   354.32         17.6297
   354.46         17.6053
   354.60         17.5455
   354.74         17.4519
   354.88         17.3278
   355.02         17.1800
   355.16         17.0176
   355.30         16.8489
   355.44         16.6776
   355.58         16.5031
   355.72         16.3208
   355.86         16.1251
   356.00         15.9114
   356.14         15.6790
   356.28         15.4332
   356.42         15.1855
   356.56         14.9489
   356.70         14.7320
   356.84         14.5377
   356.98         14.3638
   357.12         14.2036
   357.26         14.0478
   357.40         13.8875
   357.54         13.7172
   357.68         13.5351
   357.82         13.3445
   357.96         13.1559
   358.10         12.9887
   358.24         12.8685
   358.38         12.8226
   358.52         12.8772
   358.66         13.0543
   358.80         13.3651
   358.94         13.8022
   359.08         14.3360
   359.22         14.9184
   359.36         15.4924
   359.50         16.0032
   359.64         16.4063
   359.78         16.6715
   359.92         16.7852
   360.06         16.7513
   360.20         16.5916
   360.34         16.3421
   360.48         16.0467
   360.62         15.7466
   360.76         15.4709
   360.90         15.2347
   361.04         15.0449
   361.18         14.9070
   361.32         14.8262
   361.46         14.8046
   361.60         14.8409
   361.74         14.9314
   361.88         15.0714
   362.02         15.2511
   362.16         15.4541
   362.30         15.6617
   362.44         15.8583
   362.58         16.0349
   362.72         16.1890
   362.86         16.3217
   363.00         16.4350
   363.14         16.5282
   363.28         16.5973
   363.42         16.6388
   363.56         16.6539
   363.70         16.6482
   363.84         16.6281
   363.98         16.5976
   364.12         16.5611
   364.26         16.5258
   364.40         16.5007
   364.54         16.4933
   364.68         16.5114
   364.82         16.5691
   364.96         16.6845
   365.10         16.8699
   365.24         17.1266
   365.38         17.4450
   365.52         17.8060
   365.66         18.1836
   365.80         18.5467
   365.94         18.8637
   366.08         19.1101
   366.22         19.2745
   366.36         19.3590
   366.50         19.3765
   366.64         19.3445
   366.78         19.2788
   366.92         19.1897
   367.06         19.0822
   367.20         18.9603
   367.34         18.8283
   367.48         18.6909
   367.62         18.5481
   367.76         18.3983
   367.90         18.2461
   368.04         18.1048
   368.18         17.9919
   368.32         17.9206
   368.46         17.8960
   368.60         17.9163
   368.74         17.9794
   368.88         18.0848
   369.02         18.2284
   369.16         18.3983
   369.30         18.5736
   369.44         18.7274
   369.58         18.8328
   369.72         18.8671
   369.86         18.8159
   370.00         18.6758
   370.14         18.4591
   370.28         18.1936
   370.42         17.9199
   370.56         17.6824
   370.70         17.5150
   370.84         17.4284
   370.98         17.4101
   371.12         17.4336
   371.26         17.4740
   371.40         17.5158
   371.54         17.5504
   371.68         17.5691
   371.82         17.5623
   371.96         17.5219
   372.10         17.4433
   372.24         17.3236
   372.38         17.1613
   372.52         16.9578
   372.66         16.7208
   372.80         16.4644
   372.94         16.2063
   373.08         15.9641
   373.22         15.7486
   373.36         15.5597
   373.50         15.3905
   373.64         15.2343
   373.78         15.0907
   373.92         14.9653
   374.06         14.8668
   374.20         14.8050
   374.34         14.7898
   374.48         14.8290
   374.62         14.9249
   374.76         15.0713
   374.90         15.2602
   375.04         15.4892
   375.18         15.7622
   375.32         16.0816
   375.46         16.4409
   375.60         16.8209
   375.74         17.1896
   375.88         17.5073
   376.02         17.7405
   376.16         17.8747
   376.30         17.9201
   376.44         17.9076
   376.58         17.8815
   376.72         17.8911
   376.86         17.9793
   377.00         18.1719
   377.14         18.4752
   377.28         18.8788
   377.42         19.3602
   377.56         19.8876
   377.70         20.4205
   377.84         20.9117
   377.98         21.3146
   378.12         21.5913
   378.26         21.7143
   378.40         21.6667
   378.54         21.4451
   378.68         21.0609
   378.82         20.5394
   378.96         19.9194
   379.10         19.2516
   379.24         18.5955
   379.38         18.0108
   379.52         17.5472
   379.66         17.2382
   379.80         17.1011
   379.94         17.1367
   380.08         17.3277
   380.22         17.6388
   380.36         18.0227
   380.50         18.4276
   380.64         18.8047
   380.78         19.1110
   380.92         19.3098
   381.06         19.3758
   381.20         19.3006
   381.34         19.0913
   381.48         18.7656
   381.62         18.3484
   381.76         17.8665
   381.90         17.3429
   382.04         16.7928
   382.18         16.2250
   382.32         15.6467
   382.46         15.0674
   382.60         14.4987
   382.74         13.9516
   382.88         13.4379
   383.02         12.9770
   383.16         12.5985
   383.30         12.3387
   383.44         12.2297
   383.58         12.2928
   383.72         12.5343
   383.86         12.9456
   384.00         13.5042
   384.14         14.1785
   384.28         14.9318
   384.42         15.7228
   384.56         16.5068
   384.70         17.2377
   384.84         17.8739
   384.98         18.3878
   385.12         18.7714
   385.26         19.0359
   385.40         19.2047
   385.54         19.3093
   385.68         19.3836
   385.82         19.4550
   385.96         19.5369
   386.10         19.6296
   386.24         19.7266
   386.38         19.8203
   386.52         19.9035
   386.66         19.9666
   386.80         19.9961
   386.94         19.9771
   387.08         19.8971
   387.22         19.7489
   387.36         19.5307
   387.50         19.2462
   387.64         18.9037
   387.78         18.5151
   387.92         18.0961
   388.06         17.6677
   388.20         17.2545
   388.34         16.8826
   388.48         16.5786
   388.62         16.3698
   388.76         16.2810
   388.90         16.3302
   389.04         16.5232
   389.18         16.8483
   389.32         17.2791
   389.46         17.7827
   389.60         18.3276
   389.74         18.8877
   389.88         19.4426
   390.02         19.9780
   390.16         20.4866
   390.30         20.9684
   390.44         21.4298
   390.58         21.8782
   390.72         22.3138
   390.86         22.7241
   391.00         23.0872
   391.14         23.3800
   391.28         23.5832
   391.42         23.6806
   391.56         23.6588
   391.70         23.5054
   391.84         23.2076
   391.98         22.7552
   392.12         22.1449
   392.26         21.3840
   392.40         20.4930
   392.54         19.5068
   392.68         18.4746
   392.82         17.4559
   392.96         16.5140
   393.10         15.7093
   393.24         15.0922
   393.38         14.6998
   393.52         14.5561
   393.66         14.6704
   393.80         15.0345
   393.94         15.6200
   394.08         16.3771
   394.22         17.2404
   394.36         18.1385
   394.50         19.0021
   394.64         19.7748
   394.78         20.4180
   394.92         20.9089
   395.06         21.2350
   395.20         21.3875
   395.34         21.3574
   395.48         21.1335
   395.62         20.7050
   395.76         20.0684
   395.90         19.2367
   396.04         18.2454
   396.18         17.1521
   396.32         16.0294
   396.46         14.9600
   396.60         14.0295
   396.74         13.3169
   396.88         12.8868
   397.02         12.7827
   397.16         13.0206
   397.30         13.5870
   397.44         14.4405
   397.58         15.5169
   397.72         16.7403
   397.86         18.0343
   398.00         19.3282
   398.14         20.5620
   398.28         21.6931
   398.42         22.6985
   398.56         23.5712
   398.70         24.3175
   398.84         24.9525
   398.98         25.4952
   399.12         25.9632
   399.26         26.3677
   399.40         26.7121
   399.54         26.9947
   399.68         27.2149
   399.82         27.3769
   399.96         27.4911
   400.10         27.5737
   400.24         27.6436
   400.38         27.7200
   400.52         27.8195
   400.66         27.9528
   400.80         28.1250
   400.94         28.3352
   401.08         28.5764
   401.22         28.8383
   401.36         29.1106
   401.50         29.3817
   401.64         29.6365
   401.78         29.8566
   401.92         30.0222
   402.06         30.1159
   402.20         30.1279
   402.34         30.0600
   402.48         29.9259
   402.62         29.7487
   402.76         29.5577
   402.90         29.3813
   403.04         29.2412
   403.18         29.1482
   403.32         29.0975
   403.46         29.0722
   403.60         29.0557
   403.74         29.0397
   403.88         29.0234
   404.02         29.0055
   404.16         28.9816
   404.30         28.9450
   404.44         28.8890
   404.58         28.8107
   404.72         28.7143
   404.86         28.6103
   405.00         28.5102
   405.14         28.4189
   405.28         28.3319
   405.42         28.2382
   405.56         28.1245
   405.70         27.9825
   405.84         27.8104
   405.98         27.6126
   406.12         27.4034
   406.26         27.2052
   406.40         27.0375
   406.54         26.9055
   406.68         26.8032
   406.82         26.7246
   406.96         26.6701
   407.10         26.6438
   407.24         26.6471
   407.38         26.6771
   407.52         26.7291
   407.66         26.8000
   407.80         26.8889
   407.94         26.9937
   408.08         27.1085
   408.22         27.2222
   408.36         27.3184
   408.50         27.3740
   408.64         27.3625
   408.78         27.2593
   408.92         27.0433
   409.06         26.6991
   409.20         26.2243
   409.34         25.6389
   409.48         24.9855
   409.62         24.3180
   409.76         23.6901
   409.90         23.1499
   410.04         22.7410
   410.18         22.5005
   410.32         22.4537
   410.46         22.6078
   410.60         22.9508
   410.74         23.4552
   410.88         24.0814
   411.02         24.7801
   411.16         25.4983
   411.30         26.1875
   411.44         26.8087
   411.58         27.3347
   411.72         27.7539
   411.86         28.0703
   412.00         28.2951
   412.14         28.4389
   412.28         28.5105
   412.42         28.5210
   412.56         28.4871
   412.70         28.4334
   412.84         28.3876
   412.98         28.3714
   413.12         28.3933
   413.26         28.4494
   413.40         28.5312
   413.54         28.6315
   413.68         28.7443
   413.82         28.8622
   413.96         28.9755
   414.10         29.0717
   414.24         29.1375
   414.38         29.1616
   414.52         29.1370
   414.66         29.0629
   414.80         28.9472
   414.94         28.8082
   415.08         28.6712
   415.22         28.5608
   415.36         28.4962
   415.50         28.4866
   415.64         28.5299
   415.78         28.6175
   415.92         28.7391
   416.06         28.8813
   416.20         29.0243
   416.34         29.1433
   416.48         29.2154
   416.62         29.2246
   416.76         29.1644
   416.90         29.0389
   417.04         28.8612
   417.18         28.6515
   417.32         28.4341
   417.46         28.2326
   417.60         28.0647
   417.74         27.9397
   417.88         27.8609
   418.02         27.8281
   418.16         27.8376
   418.30         27.8816
   418.44         27.9489
   418.58         28.0232
   418.72         28.0861
   418.86         28.1215
   419.00         28.1198
   419.14         28.0770
   419.28         27.9959
   419.42         27.8872
   419.56         27.7682
   419.70         27.6580
   419.84         27.5747
   419.98         27.5346
   420.12         27.5512
   420.26         27.6332
   420.40         27.7827
   420.54         27.9907
   420.68         28.2389
   420.82         28.5038
   420.96         28.7608
   421.10         28.9840
   421.24         29.1491
   421.38         29.2347
   421.52         29.2215
   421.66         29.0988
   421.80         28.8737
   421.94         28.5737
   422.08         28.2367
   422.22         27.8977
   422.36         27.5824
   422.50         27.3090
   422.64         27.0907
   422.78         26.9361
   422.92         26.8485
   423.06         26.8265
   423.20         26.8676
   423.34         26.9684
   423.48         27.1191
   423.62         27.2992
   423.76         27.4791
   423.90         27.6278
   424.04         27.7220
   424.18         27.7526
   424.32         27.7275
   424.46         27.6648
   424.60         27.5814
   424.74         27.4861
   424.88         27.3785
   425.02         27.2569
   425.16         27.1279
   425.30         27.0099
   425.44         26.9262
   425.58         26.8967
   425.72         26.9300
   425.86         27.0195
   426.00         27.1425
   426.14         27.2655
   426.28         27.3547
   426.42         27.3888
   426.56         27.3638
   426.70         27.2919
   426.84         27.1934
   426.98         27.0882
   427.12         26.9940
   427.26         26.9261
   427.40         26.8944
   427.54         26.9027
   427.68         26.9511
   427.82         27.0349
   427.96         27.1400
   428.10         27.2428
   428.24         27.3181
   428.38         27.3435
   428.52         27.3042
   428.66         27.1937
   428.80         27.0120
   428.94         26.7646
   429.08         26.4606
   429.22         26.1087
   429.36         25.7163
   429.50         25.2884
   429.64         24.8281
   429.78         24.3405
   429.92         23.8347
   430.06         23.3263
   430.20         22.8372
   430.34         22.3963
   430.48         22.0408
   430.62         21.8141
   430.76         21.7560
   430.90         21.8899
   431.04         22.2149
   431.18         22.7044
   431.32         23.3076
   431.46         23.9576
   431.60         24.5878
   431.74         25.1475
   431.88         25.6056
   432.02         25.9452
   432.16         26.1603
   432.30         26.2552
   432.44         26.2457
   432.58         26.1535
   432.72         25.9979
   432.86         25.7893
   433.00         25.5301
   433.14         25.2219
   433.28         24.8695
   433.42         24.4804
   433.56         24.0676
   433.70         23.6517
   433.84         23.2593
   433.98         22.9195
   434.12         22.6618
   434.26         22.5160
   434.40         22.5078
   434.54         22.6479
   434.68         22.9284
   434.82         23.3251
   434.96         23.8037
   435.10         24.3264
   435.24         24.8565
   435.38         25.3659
   435.52         25.8408
   435.66         26.2810
   435.80         26.6943
   435.94         27.0875
   436.08         27.4604
   436.22         27.8041
   436.36         28.1006
   436.50         28.3298
   436.64         28.4761
   436.78         28.5360
   436.92         28.5189
   437.06         28.4380
   437.20         28.3013
   437.34         28.1090
   437.48         27.8606
   437.62         27.5658
   437.76         27.2432
   437.90         26.9143
   438.04         26.5998
   438.18         26.3178
   438.32         26.0825
   438.46         25.9063
   438.60         25.8025
   438.74         25.7820
   438.88         25.8482
   439.02         25.9953
   439.16         26.2113
   439.30         26.4751
   439.44         26.7555
   439.58         27.0160
   439.72         27.2245
   439.86         27.3636
   440.00         27.4365
   440.14         27.4657
   440.28         27.4783
   440.42         27.4909
   440.56         27.5109
   440.70         27.5445
   440.84         27.6018
   440.98         27.6921
   441.12         27.8205
   441.26         27.9852
   441.40         28.1762
   441.54         28.3789
   441.68         28.5796
   441.82         28.7671
   441.96         28.9314
   442.10         29.0665
   442.24         29.1724
   442.38         29.2507
   442.52         29.3023
   442.66         29.3299
   442.80         29.3368
   442.94         29.3255
   443.08         29.2990
   443.22         29.2629
   443.36         29.2280
   443.50         29.2058
   443.64         29.2029
   443.78         29.2230
   443.92         29.2681
   444.06         29.3383
   444.20         29.4275
   444.34         29.5205
   444.48         29.5942
   444.62         29.6248
   444.76         29.5958
   444.90         29.5003
   445.04         29.3417
   445.18         29.1339
   445.32         28.8985
   445.46         28.6567
   445.60         28.4260
   445.74         28.2208
   445.88         28.0559
   446.02         27.9484
   446.16         27.9125
   446.30         27.9541
   446.44         28.0700
   446.58         28.2484
   446.72         28.4692
   446.86         28.7040
   447.00         28.9228
   447.14         29.1027
   447.28         29.2348
   447.42         29.3234
   447.56         29.3774
   447.70         29.4060
   447.84         29.4152
   447.98         29.4078
   448.12         29.3863
   448.26         29.3534
   448.40         29.3127
   448.54         29.2698
   448.68         29.2331
   448.82         29.2108
   448.96         29.2068
   449.10         29.2218
   449.24         29.2551
   449.38         29.3079
   449.52         29.3840
   449.66         29.4907
   449.80         29.6356
   449.94         29.8228
   450.08         30.0463
   450.22         30.2883
   450.36         30.5253
   450.50         30.7348
   450.64         30.8997
   450.78         31.0097
   450.92         31.0605
   451.06         31.0531
   451.20         30.9930
   451.34         30.8870
   451.48         30.7401
   451.62         30.5548
   451.76         30.3345
   451.90         30.0853
   452.04         29.8150
   452.18         29.5299
   452.32         29.2363
   452.46         28.9446
   452.60         28.6722
   452.74         28.4379
   452.88         28.2578
   453.02         28.1455
   453.16         28.1112
   453.30         28.1577
   453.44         28.2784
   453.58         28.4560
   453.72         28.6629
   453.86         28.8692
   454.00         29.0506
   454.14         29.1902
   454.28         29.2780
   454.42         29.3124
   454.56         29.3004
   454.70         29.2575
   454.84         29.2045
   454.98         29.1632
   455.12         29.1515
   455.26         29.1752
   455.40         29.2286
   455.54         29.3034
   455.68         29.3930
   455.82         29.4905
   455.96         29.5851
   456.10         29.6661
   456.24         29.7286
   456.38         29.7739
   456.52         29.8091
   456.66         29.8397
   456.80         29.8649
   456.94         29.8796
   457.08         29.8788
   457.22         29.8589
   457.36         29.8177
   457.50         29.7531
   457.64         29.6643
   457.78         29.5537
   457.92         29.4280
   458.06         29.2988
   458.20         29.1778
   458.34         29.0716
   458.48         28.9820
   458.62         28.9093
   458.76         28.8542
   458.90         28.8168
   459.04         28.7942
   459.18         28.7817
   459.32         28.7743
   459.46         28.7697
   459.60         28.7700
   459.74         28.7808
   459.88         28.8091
   460.02         28.8605
   460.16         28.9369
   460.30         29.0359
   460.44         29.1509
   460.58         29.2723
   460.72         29.3906
   460.86         29.5002
   461.00         29.6002
   461.14         29.6916
   461.28         29.7742
   461.42         29.8473
   461.56         29.9111
   461.70         29.9660
   461.84         30.0111
   461.98         30.0456
   462.12         30.0685
   462.26         30.0766
   462.40         30.0648
   462.54         30.0286
   462.68         29.9650
   462.82         29.8756
   462.96         29.7663
   463.10         29.6445
   463.24         29.5158
   463.38         29.3843
   463.52         29.2512
   463.66         29.1146
   463.80         28.9729
   463.94         28.8288
   464.08         28.6891
   464.22         28.5604
   464.36         28.4473
   464.50         28.3546
   464.64         28.2893
   464.78         28.2584
   464.92         28.2659
   465.06         28.3100
   465.20         28.3822
   465.34         28.4688
   465.48         28.5516
   465.62         28.6096
   465.76         28.6250
   465.90         28.5909
   466.04         28.5110
   466.18         28.3955
   466.32         28.2616
   466.46         28.1309
   466.60         28.0231
   466.74         27.9499
   466.88         27.9160
   467.02         27.9230
   467.16         27.9710
   467.30         28.0578
   467.44         28.1753
   467.58         28.3079
   467.72         28.4370
   467.86         28.5466
   468.00         28.6268
   468.14         28.6739
   468.28         28.6918
   468.42         28.6903
   468.56         28.6773
   468.70         28.6541
   468.84         28.6178
   468.98         28.5650
   469.12         28.4905
   469.26         28.3889
   469.40         28.2590
   469.54         28.1064
   469.68         27.9401
   469.82         27.7698
   469.96         27.6071
   470.10         27.4618
   470.24         27.3394
   470.38         27.2438
   470.52         27.1800
   470.66         27.1544
   470.80         27.1729
   470.94         27.2374
   471.08         27.3450
   471.22         27.4887
   471.36         27.6599
   471.50         27.8476
   471.64         28.0387
   471.78         28.2192
   471.92         28.3762
   472.06         28.4995
   472.20         28.5821
   472.34         28.6206
   472.48         28.6162
   472.62         28.5738
   472.76         28.5003
   472.90         28.4043
   473.04         28.2983
   473.18         28.1976
   473.32         28.1161
   473.46         28.0626
   473.60         28.0411
   473.74         28.0521
   473.88         28.0934
   474.02         28.1588
   474.16         28.2381
   474.30         28.3186
   474.44         28.3873
   474.58         28.4342
   474.72         28.4548
   474.86         28.4507
   475.00         28.4257
   475.14         28.3814
   475.28         28.3178
   475.42         28.2355
   475.56         28.1351
   475.70         28.0199
   475.84         27.8973
   475.98         27.7770
   476.12         27.6699
   476.26         27.5874
   476.40         27.5408
   476.54         27.5395
   476.68         27.5896
   476.82         27.6909
   476.96         27.8384
   477.10         28.0235
   477.24         28.2347
   477.38         28.4573
   477.52         28.6727
   477.66         28.8596
   477.80         28.9974
   477.94         29.0738
   478.08         29.0858
   478.22         29.0396
   478.36         28.9501
   478.50         28.8380
   478.64         28.7233
   478.78         28.6217
   478.92         28.5428
   479.06         28.4902
   479.20         28.4632
   479.34         28.4578
   479.48         28.4644
   479.62         28.4701
   479.76         28.4613
   479.90         28.4277
   480.04         28.3640
   480.18         28.2720
   480.32         28.1595
   480.46         28.0387
   480.60         27.9242
   480.74         27.8304
   480.88         27.7696
   481.02         27.7496
   481.16         27.7703
   481.30         27.8223
   481.44         27.8899
   481.58         27.9579
   481.72         28.0147
   481.86         28.0529
   482.00         28.0669
   482.14         28.0526
   482.28         28.0107
   482.42         27.9472
   482.56         27.8705
   482.70         27.7882
   482.84         27.7060
   482.98         27.6284
   483.12         27.5578
   483.26         27.4954
   483.40         27.4415
   483.54         27.3951
   483.68         27.3544
   483.82         27.3155
   483.96         27.2730
   484.10         27.2207
   484.24         27.1516
   484.38         27.0567
   484.52         26.9244
   484.66         26.7407
   484.80         26.4899
   484.94         26.1575
   485.08         25.7376
   485.22         25.2389
   485.36         24.6857
   485.50         24.1141
   485.64         23.5674
   485.78         23.0864
   485.92         22.7016
   486.06         22.4306
   486.20         22.2794
   486.34         22.2466
   486.48         22.3241
   486.62         22.4975
   486.76         22.7487
   486.90         23.0581
   487.04         23.4045
   487.18         23.7653
   487.32         24.1174
   487.46         24.4421
   487.60         24.7294
   487.74         24.9777
   487.88         25.1859
   488.02         25.3505
   488.16         25.4713
   488.30         25.5543
   488.44         25.6099
   488.58         25.6530
   488.72         25.7036
   488.86         25.7852
   489.00         25.9164
   489.14         26.1031
   489.28         26.3388
   489.42         26.6102
   489.56         26.8985
   489.70         27.1790
   489.84         27.4233
   489.98         27.6066
   490.12         27.7146
   490.26         27.7455
   490.40         27.7069
   490.54         27.6132
   490.68         27.4812
   490.82         27.3239
   490.96         27.1478
   491.10         26.9560
   491.24         26.7519
   491.38         26.5418
   491.52         26.3347
   491.66         26.1432
   491.80         25.9820
   491.94         25.8677
   492.08         25.8136
   492.22         25.8234
   492.36         25.8920
   492.50         26.0109
   492.64         26.1690
   492.78         26.3503
   492.92         26.5343
   493.06         26.7003
   493.20         26.8304
   493.34         26.9138
   493.48         26.9507
   493.62         26.9536
   493.76         26.9432
   493.90         26.9419
   494.04         26.9678
   494.18         27.0313
   494.32         27.1334
   494.46         27.2637
   494.60         27.4008
   494.74         27.5161
   494.88         27.5863
   495.02         27.6007
   495.16         27.5589
   495.30         27.4667
   495.44         27.3372
   495.58         27.1896
   495.72         27.0427
   495.86         26.9111
   496.00         26.8046
   496.14         26.7299
   496.28         26.6907
   496.42         26.6887
   496.56         26.7215
   496.70         26.7808
   496.84         26.8530
   496.98         26.9212
   497.12         26.9657
   497.26         26.9666
   497.40         26.9128
   497.54         26.8074
   497.68         26.6629
   497.82         26.4951
   497.96         26.3196
   498.10         26.1507
   498.24         26.0009
   498.38         25.8819
   498.52         25.8050
   498.66         25.7780
   498.80         25.7982
   498.94         25.8485
   499.08         25.9043
   499.22         25.9416
   499.36         25.9400
   499.50         25.8832
   499.64         25.7612
   499.78         25.5759
   499.92         25.3441
   500.06         25.0940
   500.20         24.8563
   500.34         24.6546
   500.48         24.5014
   500.62         24.3996
   500.76         24.3452
   500.90         24.3318
   501.04         24.3529
   501.18         24.4004
   501.32         24.4656
   501.46         24.5414
   501.60         24.6246
   501.74         24.7170
   501.88         24.8221
   502.02         24.9430
   502.16         25.0822
   502.30         25.2406
   502.44         25.4157
   502.58         25.5979
   502.72         25.7707
   502.86         25.9145
   503.00         26.0093
   503.14         26.0401
   503.28         26.0027
   503.42         25.9068
   503.56         25.7732
   503.70         25.6244
   503.84         25.4795
   503.98         25.3532
   504.12         25.2550
   504.26         25.1906
   504.40         25.1660
   504.54         25.1877
   504.68         25.2593
   504.82         25.3771
   504.96         25.5322
   505.10         25.7135
   505.24         25.9100
   505.38         26.1091
   505.52         26.2953
   505.66         26.4549
   505.80         26.5827
   505.94         26.6802
   506.08         26.7484
   506.22         26.7833
   506.36         26.7783
   506.50         26.7298
   506.64         26.6401
   506.78         26.5158
   506.92         26.3636
   507.06         26.1900
   507.20         26.0023
   507.34         25.8092
   507.48         25.6215
   507.62         25.4503
   507.76         25.3045
   507.90         25.1899
   508.04         25.1098
   508.18         25.0687
   508.32         25.0740
   508.46         25.1316
   508.60         25.2383
   508.74         25.3792
   508.88         25.5334
   509.02         25.6818
   509.16         25.8125
   509.30         25.9192
   509.44         25.9972
   509.58         26.0439
   509.72         26.0607
   509.86         26.0531
   510.00         26.0284
   510.14         25.9955
   510.28         25.9647
   510.42         25.9462
   510.56         25.9481
   510.70         25.9757
   510.84         26.0318
   510.98         26.1148
   511.12         26.2150
   511.26         26.3157
   511.40         26.3979
   511.54         26.4479
   511.68         26.4581
   511.82         26.4244
   511.96         26.3432
   512.10         26.2131
   512.24         26.0399
   512.38         25.8383
   512.52         25.6284
   512.66         25.4293
   512.80         25.2544
   512.94         25.1105
   513.08         24.9995
   513.22         24.9195
   513.36         24.8660
   513.50         24.8325
   513.64         24.8104
   513.78         24.7917
   513.92         24.7723
   514.06         24.7527
   514.20         24.7374
   514.34         24.7334
   514.48         24.7468
   514.62         24.7824
   514.76         24.8436
   514.90         24.9293
   515.04         25.0318
   515.18         25.1372
   515.32         25.2269
   515.46         25.2799
   515.60         25.2731
   515.74         25.1858
   515.88         25.0048
   516.02         24.7256
   516.16         24.3512
   516.30         23.8976
   516.44         23.3972
   516.58         22.8941
   516.72         22.4370
   516.86         22.0714
   517.00         21.8279
   517.14         21.7140
   517.28         21.7165
   517.42         21.8092
   517.56         21.9633
   517.70         22.1536
   517.84         22.3573
   517.98         22.5525
   518.12         22.7195
   518.26         22.8485
   518.40         22.9438
   518.54         23.0197
   518.68         23.0952
   518.82         23.1907
   518.96         23.3272
   519.10         23.5174
   519.24         23.7573
   519.38         24.0275
   519.52         24.2979
   519.66         24.5369
   519.80         24.7227
   519.94         24.8513
   520.08         24.9351
   520.22         24.9917
   520.36         25.0318
   520.50         25.0566
   520.64         25.0665
   520.78         25.0669
   520.92         25.0690
   521.06         25.0841
   521.20         25.1182
   521.34         25.1692
   521.48         25.2244
   521.62         25.2642
   521.76         25.2704
   521.90         25.2327
   522.04         25.1495
   522.18         25.0268
   522.32         24.8770
   522.46         24.7184
   522.60         24.5731
   522.74         24.4624
   522.88         24.4025
   523.02         24.4021
   523.16         24.4658
   523.30         24.5967
   523.44         24.7926
   523.58         25.0386
   523.72         25.3100
   523.86         25.5771
   524.00         25.8134
   524.14         26.0011
   524.28         26.1335
   524.42         26.2133
   524.56         26.2486
   524.70         26.2484
   524.84         26.2220
   524.98         26.1761
   525.12         26.1114
   525.26         26.0213
   525.40         25.8937
   525.54         25.7154
   525.68         25.4760
   525.82         25.1710
   525.96         24.8048
   526.10         24.3896
   526.24         23.9458
   526.38         23.5015
   526.52         23.0915
   526.66         22.7536
   526.80         22.5202
   526.94         22.4117
   527.08         22.4335
   527.22         22.5745
   527.36         22.8115
   527.50         23.1151
   527.64         23.4553
   527.78         23.8063
   527.92         24.1499
   528.06         24.4760
   528.20         24.7791
   528.34         25.0548
   528.48         25.2993
   528.62         25.5085
   528.76         25.6785
   528.90         25.8061
   529.04         25.8903
   529.18         25.9333
   529.32         25.9386
   529.46         25.9107
   529.60         25.8561
   529.74         25.7863
   529.88         25.7190
   530.02         25.6749
   530.16         25.6709
   530.30         25.7148
   530.44         25.8030
   530.58         25.9228
   530.72         26.0558
   530.86         26.1826
   531.00         26.2851
   531.14         26.3478
   531.28         26.3597
   531.42         26.3153
   531.56         26.2115
   531.70         26.0464
   531.84         25.8239
   531.98         25.5572
   532.12         25.2669
   532.26         24.9782
   532.40         24.7176
   532.54         24.5082
   532.68         24.3642
   532.82         24.2907
   532.96         24.2858
   533.10         24.3433
   533.24         24.4548
   533.38         24.6093
   533.52         24.7916
   533.66         24.9829
   533.80         25.1629
   533.94         25.3144
   534.08         25.4274
   534.22         25.5008
   534.36         25.5440
   534.50         25.5745
   534.64         25.6098
   534.78         25.6622
   534.92         25.7361
   535.06         25.8284
   535.20         25.9292
   535.34         26.0252
   535.48         26.1035
   535.62         26.1537
   535.76         26.1660
   535.90         26.1296
   536.04         26.0368
   536.18         25.8889
   536.32         25.6977
   536.46         25.4838
   536.60         25.2711
   536.74         25.0825
   536.88         24.9364
   537.02         24.8432
   537.16         24.8048
   537.30         24.8170
   537.44         24.8713
   537.58         24.9563
   537.72         25.0580
   537.86         25.1610
   538.00         25.2509
   538.14         25.3153
   538.28         25.3447
   538.42         25.3346
   538.56         25.2859
   538.70         25.2054
   538.84         25.1041
   538.98         24.9926
   539.12         24.8779
   539.26         24.7612
   539.40         24.6397
   539.54         24.5108
   539.68         24.3767
   539.82         24.2438
   539.96         24.1207
   540.10         24.0151
   540.24         23.9331
   540.38         23.8786
   540.52         23.8545
   540.66         23.8634
   540.80         23.9067
   540.94         23.9838
   541.08         24.0918
   541.22         24.2234
   541.36         24.3688
   541.50         24.5200
   541.64         24.6692
   541.78         24.8055
   541.92         24.9172
   542.06         24.9979
   542.20         25.0477
   542.34         25.0690
   542.48         25.0656
   542.62         25.0442
   542.76         25.0145
   542.90         24.9874
   543.04         24.9731
   543.18         24.9788
   543.32         25.0063
   543.46         25.0513
   543.60         25.1062
   543.74         25.1645
   543.88         25.2231
   544.02         25.2811
   544.16         25.3378
   544.30         25.3877
   544.44         25.4211
   544.58         25.4322
   544.72         25.4223
   544.86         25.3981
   545.00         25.3674
   545.14         25.3365
   545.28         25.3085
   545.42         25.2823
   545.56         25.2554
   545.70         25.2252
   545.84         25.1901
   545.98         25.1498
   546.12         25.1069
   546.26         25.0660
   546.40         25.0306
   546.54         24.9985
   546.68         24.9630
   546.82         24.9186
   546.96         24.8633
   547.10         24.8013
   547.24         24.7416
   547.38         24.6949
   547.52         24.6688
   547.66         24.6654
   547.80         24.6840
   547.94         24.7247
   548.08         24.7892
   548.22         24.8771
   548.36         24.9834
   548.50         25.0981
   548.64         25.2087
   548.78         25.3038
   548.92         25.3746
   549.06         25.4152
   549.20         25.4234
   549.34         25.4014
   549.48         25.3545
   549.62         25.2896
   549.76         25.2145
   549.90         25.1369
   550.04         25.0623
   550.18         24.9927
   550.32         24.9277
   550.46         24.8679
   550.60         24.8167
   550.74         24.7779
   550.88         24.7531
   551.02         24.7434
   551.16         24.7506
   551.30         24.7770
   551.44         24.8221
   551.58         24.8799
   551.72         24.9391
   551.86         24.9872
   552.00         25.0152
   552.14         25.0202
   552.28         25.0044
   552.42         24.9732
   552.56         24.9327
   552.70         24.8893
   552.84         24.8506
   552.98         24.8253
   553.12         24.8217
   553.26         24.8444
   553.40         24.8935
   553.54         24.9650
   553.68         25.0527
   553.82         25.1489
   553.96         25.2451
   554.10         25.3323
   554.24         25.4029
   554.38         25.4523
   554.52         25.4811
   554.66         25.4937
   554.80         25.4958
   554.94         25.4920
   555.08         25.4830
   555.22         25.4669
   555.36         25.4398
   555.50         25.3979
   555.64         25.3383
   555.78         25.2585
   555.92         25.1571
   556.06         25.0350
   556.20         24.8954
   556.34         24.7440
   556.48         24.5886
   556.62         24.4382
   556.76         24.3014
   556.90         24.1857
   557.04         24.0975
   557.18         24.0426
   557.32         24.0235
   557.46         24.0379
   557.60         24.0755
   557.74         24.1203
   557.88         24.1557
   558.02         24.1701
   558.16         24.1579
   558.30         24.1192
   558.44         24.0582
   558.58         23.9835
   558.72         23.9058
   558.86         23.8351
   559.00         23.7774
   559.14         23.7352
   559.28         23.7075
   559.42         23.6940
   559.56         23.6973
   559.70         23.7218
   559.84         23.7697
   559.98         23.8395
   560.12         23.9265
   560.26         24.0240
   560.40         24.1246
   560.54         24.2194
   560.68         24.2987
   560.82         24.3564
   560.96         24.3896
   561.10         24.3978
   561.24         24.3812
   561.38         24.3398
   561.52         24.2756
   561.66         24.1960
   561.80         24.1144
   561.94         24.0468
   562.08         24.0087
   562.22         24.0112
   562.36         24.0553
   562.50         24.1330
   562.64         24.2313
   562.78         24.3359
   562.92         24.4336
   563.06         24.5131
   563.20         24.5677
   563.34         24.5972
   563.48         24.6061
   563.62         24.5999
   563.76         24.5831
   563.90         24.5591
   564.04         24.5314
   564.18         24.5044
   564.32         24.4821
   564.46         24.4647
   564.60         24.4491
   564.74         24.4305
   564.88         24.4027
   565.02         24.3591
   565.16         24.2956
   565.30         24.2120
   565.44         24.1124
   565.58         24.0038
   565.72         23.8945
   565.86         23.7939
   566.00         23.7124
   566.14         23.6602
   566.28         23.6453
   566.42         23.6705
   566.56         23.7333
   566.70         23.8281
   566.84         23.9461
   566.98         24.0769
   567.12         24.2095
   567.26         24.3329
   567.40         24.4374
   567.54         24.5149
   567.68         24.5608
   567.82         24.5734
   567.96         24.5544
   568.10         24.5092
   568.24         24.4450
   568.38         24.3693
   568.52         24.2901
   568.66         24.2155
   568.80         24.1523
   568.94         24.1041
   569.08         24.0715
   569.22         24.0531
   569.36         24.0456
   569.50         24.0444
   569.64         24.0428
   569.78         24.0317
   569.92         24.0009
   570.06         23.9425
   570.20         23.8547
   570.34         23.7426
   570.48         23.6172
   570.62         23.4924
   570.76         23.3829
   570.90         23.3019
   571.04         23.2610
   571.18         23.2689
   571.32         23.3296
   571.46         23.4414
   571.60         23.5968
   571.74         23.7842
   571.88         23.9901
   572.02         24.1993
   572.16         24.3948
   572.30         24.5614
   572.44         24.6891
   572.58         24.7749
   572.72         24.8227
   572.86         24.8414
   573.00         24.8407
   573.14         24.8279
   573.28         24.8090
   573.42         24.7901
   573.56         24.7766
   573.70         24.7708
   573.84         24.7717
   573.98         24.7762
   574.12         24.7800
   574.26         24.7777
   574.40         24.7634
   574.54         24.7328
   574.68         24.6840
   574.82         24.6174
   574.96         24.5364
   575.10         24.4459
   575.24         24.3501
   575.38         24.2537
   575.52         24.1634
   575.66         24.0864
   575.80         24.0288
   575.94         23.9947
   576.08         23.9862
   576.22         24.0022
   576.36         24.0392
   576.50         24.0924
   576.64         24.1565
   576.78         24.2251
   576.92         24.2896
   577.06         24.3403
   577.20         24.3684
   577.34         24.3667
   577.48         24.3294
   577.62         24.2544
   577.76         24.1459
   577.90         24.0137
   578.04         23.8713
   578.18         23.7328
   578.32         23.6106
   578.46         23.5147
   578.60         23.4527
   578.74         23.4292
   578.88         23.4447
   579.02         23.4966
   579.16         23.5790
   579.30         23.6830
   579.44         23.7970
   579.58         23.9081
   579.72         24.0069
   579.86         24.0895
   580.00         24.1557
   580.14         24.2082
   580.28         24.2509
   580.42         24.2866
   580.56         24.3154
   580.70         24.3369
   580.84         24.3522
   580.98         24.3642
   581.12         24.3759
   581.26         24.3902
   581.40         24.4105
   581.54         24.4408
   581.68         24.4840
   581.82         24.5411
   581.96         24.6112
   582.10         24.6931
   582.24         24.7853
   582.38         24.8844
   582.52         24.9840
   582.66         25.0763
   582.80         25.1545
   582.94         25.2128
   583.08         25.2469
   583.22         25.2551
   583.36         25.2392
   583.50         25.2037
   583.64         25.1537
   583.78         25.0945
   583.92         25.0312
   584.06         24.9679
   584.20         24.9061
   584.34         24.8461
   584.48         24.7877
   584.62         24.7294
   584.76         24.6680
   584.90         24.6003
   585.04         24.5250
   585.18         24.4441
   585.32         24.3622
   585.46         24.2850
   585.60         24.2176
   585.74         24.1643
   585.88         24.1293
   586.02         24.1162
   586.16         24.1260
   586.30         24.1560
   586.44         24.2012
   586.58         24.2541
   586.72         24.3056
   586.86         24.3467
   587.00         24.3721
   587.14         24.3788
   587.28         24.3656
   587.42         24.3338
   587.56         24.2860
   587.70         24.2204
   587.84         24.1281
   587.98         23.9995
   588.12         23.8311
   588.26         23.6256
   588.40         23.3877
   588.54         23.1257
   588.68         22.8546
   588.82         22.5935
   588.96         22.3638
   589.10         22.1862
   589.24         22.0785
   589.38         22.0523
   589.52         22.1116
   589.66         22.2533
   589.80         22.4673
   589.94         22.7364
   590.08         23.0373
   590.22         23.3418
   590.36         23.6210
   590.50         23.8552
   590.64         24.0379
   590.78         24.1710
   590.92         24.2597
   591.06         24.3106
   591.20         24.3343
   591.34         24.3432
   591.48         24.3471
   591.62         24.3513
   591.76         24.3567
   591.90         24.3594
   592.04         24.3549
   592.18         24.3408
   592.32         24.3169
   592.46         24.2835
   592.60         24.2404
   592.74         24.1876
   592.88         24.1267
   593.02         24.0615
   593.16         23.9981
   593.30         23.9428
   593.44         23.9007
   593.58         23.8738
   593.72         23.8602
   593.86         23.8571
   594.00         23.8624
   594.14         23.8726
   594.28         23.8826
   594.42         23.8885
   594.56         23.8892
   594.70         23.8859
   594.84         23.8804
   594.98         23.8725
   595.12         23.8621
   595.26         23.8497
   595.40         23.8352
   595.54         23.8192
   595.68         23.8036
   595.82         23.7912
   595.96         23.7840
   596.10         23.7832
   596.24         23.7878
   596.38         23.7945
   596.52         23.7993
   596.66         23.7983
   596.80         23.7883
   596.94         23.7678
   597.08         23.7359
   597.22         23.6909
   597.36         23.6312
   597.50         23.5577
   597.64         23.4742
   597.78         23.3866
   597.92         23.3012
   598.06         23.2241
   598.20         23.1618
   598.34         23.1199
   598.48         23.1002
   598.62         23.1008
   598.76         23.1174
   598.90         23.1445
   599.04         23.1762
   599.18         23.2075
   599.32         23.2344
   599.46         23.2524
   599.60         23.2557
   599.74         23.2387
   599.88         23.2001
   600.02         23.1430
   600.16         23.0732
   600.30         22.9964
   600.44         22.9164
   600.58         22.8360
   600.72         22.7572
   600.86         22.6807
   601.00         22.6056
   601.14         22.5309
   601.28         22.4578
   601.42         22.3889
   601.56         22.3265
   601.70         22.2732
   601.84         22.2315
   601.98         22.2040
   602.12         22.1935
   602.26         22.2023
   602.40         22.2314
   602.54         22.2808
   602.68         22.3471
   602.82         22.4252
   602.96         22.5094
   603.10         22.5945
   603.24         22.6753
   603.38         22.7480
   603.52         22.8094
   603.66         22.8593
   603.80         22.8988
   603.94         22.9282
   604.08         22.9464
   604.22         22.9520
   604.36         22.9439
   604.50         22.9223
   604.64         22.8900
   604.78         22.8522
   604.92         22.8134
   605.06         22.7771
   605.20         22.7459
   605.34         22.7209
   605.48         22.7025
   605.62         22.6913
   605.76         22.6882
   605.90         22.6930
   606.04         22.7046
   606.18         22.7211
   606.32         22.7392
   606.46         22.7534
   606.60         22.7572
   606.74         22.7456
   606.88         22.7164
   607.02         22.6712
   607.16         22.6142
   607.30         22.5501
   607.44         22.4824
   607.58         22.4136
   607.72         22.3458
   607.86         22.2808
   608.00         22.2211
   608.14         22.1706
   608.28         22.1318
   608.42         22.1044
   608.56         22.0854
   608.70         22.0705
   608.84         22.0546
   608.98         22.0321
   609.12         21.9978
   609.26         21.9490
   609.40         21.8867
   609.54         21.8151
   609.68         21.7404
   609.82         21.6701
   609.96         21.6113
   610.10         21.5702
   610.24         21.5511
   610.38         21.5554
   610.52         21.5813
   610.66         21.6258
   610.80         21.6839
   610.94         21.7474
   611.08         21.8062
   611.22         21.8511
   611.36         21.8765
   611.50         21.8806
   611.64         21.8642
   611.78         21.8316
   611.92         21.7895
   612.06         21.7457
   612.20         21.7076
   612.34         21.6790
   612.48         21.6571
   612.62         21.6339
   612.76         21.6033
   612.90         21.5636
   613.04         21.5151
   613.18         21.4593
   613.32         21.3988
   613.46         21.3377
   613.60         21.2810
   613.74         21.2352
   613.88         21.2085
   614.02         21.2073
   614.16         21.2334
   614.30         21.2836
   614.44         21.3507
   614.58         21.4256
   614.72         21.4990
   614.86         21.5604
   615.00         21.5973
   615.14         21.5987
   615.28         21.5608
   615.42         21.4883
   615.56         21.3891
   615.70         21.2700
   615.84         21.1372
   615.98         20.9986
   616.12         20.8652
   616.26         20.7484
   616.40         20.6581
   616.54         20.6011
   616.68         20.5811
   616.82         20.5996
   616.96         20.6552
   617.10         20.7443
   617.24         20.8605
   617.38         20.9942
   617.52         21.1332
   617.66         21.2658
   617.80         21.3833
   617.94         21.4813
   618.08         21.5574
   618.22         21.6106
   618.36         21.6414
   618.50         21.6537
   618.64         21.6563
   618.78         21.6602
   618.92         21.6727
   619.06         21.6972
   619.20         21.7357
   619.34         21.7892
   619.48         21.8565
   619.62         21.9340
   619.76         22.0167
   619.90         22.0987
   620.04         22.1746
   620.18         22.2388
   620.32         22.2853
   620.46         22.3094
   620.60         22.3088
   620.74         22.2839
   620.88         22.2379
   621.02         22.1750
   621.16         22.1001
   621.30         22.0181
   621.44         21.9339
   621.58         21.8525
   621.72         21.7799
   621.86         21.7198
   622.00         21.6716
   622.14         21.6324
   622.28         21.6006
   622.42         21.5748
   622.56         21.5527
   622.70         21.5312
   622.84         21.5060
   622.98         21.4749
   623.12         21.4379
   623.26         21.3966
   623.40         21.3516
   623.54         21.3033
   623.68         21.2534
   623.82         21.2063
   623.96         21.1670
   624.10         21.1380
   624.24         21.1174
   624.38         21.1001
   624.52         21.0811
   624.66         21.0593
   624.80         21.0377
   624.94         21.0203
   625.08         21.0065
   625.22         20.9901
   625.36         20.9652
   625.50         20.9317
   625.64         20.8953
   625.78         20.8635
   625.92         20.8427
   626.06         20.8375
   626.20         20.8517
   626.34         20.8880
   626.48         20.9448
   626.62         21.0147
   626.76         21.0871
   626.90         21.1510
   627.04         21.1984
   627.18         21.2251
   627.32         21.2309
   627.46         21.2189
   627.60         21.1943
   627.74         21.1641
   627.88         21.1373
   628.02         21.1249
   628.16         21.1364
   628.30         21.1750
   628.44         21.2377
   628.58         21.3169
   628.72         21.4024
   628.86         21.4823
   629.00         21.5436
   629.14         21.5748
   629.28         21.5697
   629.42         21.5292
   629.56         21.4603
   629.70         21.3742
   629.84         21.2847
   629.98         21.2039
   630.12         21.1400
   630.26         21.0953
   630.40         21.0664
   630.54         21.0471
   630.68         21.0306
   630.82         21.0105
   630.96         20.9823
   631.10         20.9440
   631.24         20.8967
   631.38         20.8447
   631.52         20.7946
   631.66         20.7543
   631.80         20.7313
   631.94         20.7318
   632.08         20.7585
   632.22         20.8098
   632.36         20.8795
   632.50         20.9569
   632.64         21.0297
   632.78         21.0867
   632.92         21.1207
   633.06         21.1291
   633.20         21.1144
   633.34         21.0817
   633.48         21.0391
   633.62         20.9969
   633.76         20.9632
   633.90         20.9427
   634.04         20.9377
   634.18         20.9476
   634.32         20.9690
   634.46         20.9969
   634.60         21.0264
   634.74         21.0519
   634.88         21.0671
   635.02         21.0664
   635.16         21.0462
   635.30         21.0068
   635.44         20.9519
   635.58         20.8872
   635.72         20.8197
   635.86         20.7566
   636.00         20.7047
   636.14         20.6699
   636.28         20.6564
   636.42         20.6659
   636.56         20.6978
   636.70         20.7494
   636.84         20.8131
   636.98         20.8788
   637.12         20.9377
   637.26         20.9845
   637.40         21.0159
   637.54         21.0302
   637.68         21.0279
   637.82         21.0118
   637.96         20.9870
   638.10         20.9570
   638.24         20.9231
   638.38         20.8859
   638.52         20.8461
   638.66         20.8050
   638.80         20.7626
   638.94         20.7161
   639.08         20.6623
   639.22         20.6011
   639.36         20.5351
   639.50         20.4682
   639.64         20.4045
   639.78         20.3479
   639.92         20.3018
   640.06         20.2672
   640.20         20.2437
   640.34         20.2299
   640.48         20.2226
   640.62         20.2176
   640.76         20.2103
   640.90         20.1977
   641.04         20.1799
   641.18         20.1590
   641.32         20.1381
   641.46         20.1204
   641.60         20.1105
   641.74         20.1140
   641.88         20.1344
   642.02         20.1708
   642.16         20.2190
   642.30         20.2752
   642.44         20.3368
   642.58         20.4010
   642.72         20.4633
   642.86         20.5182
   643.00         20.5618
   643.14         20.5934
   643.28         20.6154
   643.42         20.6313
   643.56         20.6447
   643.70         20.6586
   643.84         20.6743
   643.98         20.6904
   644.12         20.7046
   644.26         20.7137
   644.40         20.7145
   644.54         20.7031
   644.68         20.6782
   644.82         20.6412
   644.96         20.5941
   645.10         20.5369
   645.24         20.4686
   645.38         20.3913
   645.52         20.3119
   645.66         20.2394
   645.80         20.1814
   645.94         20.1416
   646.08         20.1211
   646.22         20.1180
   646.36         20.1285
   646.50         20.1495
   646.64         20.1794
   646.78         20.2169
   646.92         20.2597
   647.06         20.3037
   647.20         20.3445
   647.34         20.3800
   647.48         20.4095
   647.62         20.4333
   647.76         20.4522
   647.90         20.4681
   648.04         20.4817
   648.18         20.4897
   648.32         20.4844
   648.46         20.4580
   648.60         20.4062
   648.74         20.3292
   648.88         20.2317
   649.02         20.1227
   649.16         20.0147
   649.30         19.9206
   649.44         19.8513
   649.58         19.8156
   649.72         19.8198
   649.86         19.8665
   650.00         19.9551
   650.14         20.0804
   650.28         20.2318
   650.42         20.3934
   650.56         20.5477
   650.70         20.6794
   650.84         20.7788
   650.98         20.8430
   651.12         20.8754
   651.26         20.8832
   651.40         20.8751
   651.54         20.8588
   651.68         20.8401
   651.82         20.8235
   651.96         20.8112
   652.10         20.8040
   652.24         20.8015
   652.38         20.8025
   652.52         20.8044
   652.66         20.8051
   652.80         20.8033
   652.94         20.7979
   653.08         20.7895
   653.22         20.7800
   653.36         20.7717
   653.50         20.7647
   653.64         20.7570
   653.78         20.7459
   653.92         20.7294
   654.06         20.7053
   654.20         20.6708
   654.34         20.6228
   654.48         20.5579
   654.62         20.4723
   654.76         20.3619
   654.90         20.2210
   655.04         20.0401
   655.18         19.8075
   655.32         19.5182
   655.46         19.1794
   655.60         18.8092
   655.74         18.4320
   655.88         18.0742
   656.02         17.7616
   656.16         17.5176
   656.30         17.3614
   656.44         17.3060
   656.58         17.3574
   656.72         17.5115
   656.86         17.7546
   657.00         18.0641
   657.14         18.4133
   657.28         18.7743
   657.42         19.1209
   657.56         19.4308
   657.70         19.6902
   657.84         19.8966
   657.98         20.0574
   658.12         20.1809
   658.26         20.2710
   658.40         20.3287
   658.54         20.3564
   658.68         20.3594
   658.82         20.3449
   658.96         20.3213
   659.10         20.2979
   659.24         20.2823
   659.38         20.2787
   659.52         20.2870
   659.66         20.3051
   659.80         20.3312
   659.94         20.3638
   660.08         20.4005
   660.22         20.4374
   660.36         20.4700
   660.50         20.4947
   660.64         20.5093
   660.78         20.5134
   660.92         20.5096
   661.06         20.5020
   661.20         20.4947
   661.34         20.4901
   661.48         20.4885
   661.62         20.4888
   661.76         20.4898
   661.90         20.4893
   662.04         20.4836
   662.18         20.4681
   662.32         20.4397
   662.46         20.3986
   662.60         20.3470
   662.74         20.2879
   662.88         20.2244
   663.02         20.1601
   663.16         20.0984
   663.30         20.0413
   663.44         19.9897
   663.58         19.9451
   663.72         19.9101
   663.86         19.8874
   664.00         19.8786
   664.14         19.8832
   664.28         19.8999
   664.42         19.9261
   664.56         19.9568
   664.70         19.9876
   664.84         20.0159
   664.98         20.0403
   665.12         20.0589
   665.26         20.0678
   665.40         20.0640
   665.54         20.0461
   665.68         20.0146
   665.82         19.9724
   665.96         19.9241
   666.10         19.8750
   666.24         19.8298
   666.38         19.7915
   666.52         19.7603
   666.66         19.7342
   666.80         19.7109
   666.94         19.6893
   667.08         19.6684
   667.22         19.6479
   667.36         19.6290
   667.50         19.6128
   667.64         19.5997
   667.78         19.5911
   667.92         19.5902
   668.06         19.6001
   668.20         19.6208
   668.34         19.6498
   668.48         19.6831
   668.62         19.7157
   668.76         19.7420
   668.90         19.7591
   669.04         19.7655
   669.18         19.7614
   669.32         19.7475
   669.46         19.7254
   669.60         19.6970
   669.74         19.6634
   669.88         19.6261
   670.02         19.5868
   670.16         19.5466
   670.30         19.5066
   670.44         19.4671
   670.58         19.4271
   670.72         19.3848
   670.86         19.3395
   671.00         19.2928
   671.14         19.2481
   671.28         19.2087
   671.42         19.1788
   671.56         19.1611
   671.70         19.1557
   671.84         19.1611
   671.98         19.1745
   672.12         19.1932
   672.26         19.2151
   672.40         19.2389
   672.54         19.2640
   672.68         19.2896
   672.82         19.3143
   672.96         19.3361
   673.10         19.3526
   673.24         19.3630
   673.38         19.3692
   673.52         19.3753
   673.66         19.3842
   673.80         19.3957
   673.94         19.4077
   674.08         19.4181
   674.22         19.4252
   674.36         19.4275
   674.50         19.4241
   674.64         19.4151
   674.78         19.4015
   674.92         19.3851
   675.06         19.3680
   675.20         19.3525
   675.34         19.3412
   675.48         19.3362
   675.62         19.3386
   675.76         19.3484
   675.90         19.3649
   676.04         19.3863
   676.18         19.4094
   676.32         19.4301
   676.46         19.4456
   676.60         19.4560
   676.74         19.4632
   676.88         19.4683
   677.02         19.4710
   677.16         19.4698
   677.30         19.4627
   677.44         19.4486
   677.58         19.4281
   677.72         19.4038
   677.86         19.3780
   678.00         19.3515
   678.14         19.3237
   678.28         19.2940
   678.42         19.2634
   678.56         19.2345
   678.70         19.2104
   678.84         19.1944
   678.98         19.1880
   679.12         19.1902
   679.26         19.1982
   679.40         19.2080
   679.54         19.2167
   679.68         19.2227
   679.82         19.2257
   679.96         19.2270
   680.10         19.2289
   680.24         19.2333
   680.38         19.2409
   680.52         19.2497
   680.66         19.2570
   680.80         19.2607
   680.94         19.2598
   681.08         19.2542
   681.22         19.2446
   681.36         19.2315
   681.50         19.2152
   681.64         19.1948
   681.78         19.1697
   681.92         19.1416
   682.06         19.1133
   682.20         19.0872
   682.34         19.0643
   682.48         19.0438
   682.62         19.0240
   682.76         19.0027
   682.90         18.9767
   683.04         18.9424
   683.18         18.8973
   683.32         18.8406
   683.46         18.7742
   683.60         18.7018
   683.74         18.6290
   683.88         18.5618
   684.02         18.5051
   684.16         18.4628
   684.30         18.4362
   684.44         18.4248
   684.58         18.4259
   684.72         18.4354
   684.86         18.4492
   685.00         18.4625
   685.14         18.4704
   685.28         18.4674
   685.42         18.4466
   685.56         18.3981
   685.70         18.3091
   685.84         18.1675
   685.98         17.9659
   686.12         17.7038
   686.26         17.3876
   686.40         17.0306
   686.54         16.6514
   686.68         16.2727
   686.82         15.9187
   686.96         15.6140
   687.10         15.3810
   687.24         15.2370
   687.38         15.1897
   687.52         15.2356
   687.66         15.3601
   687.80         15.5410
   687.94         15.7521
   688.08         15.9665
   688.22         16.1609
   688.36         16.3196
   688.50         16.4376
   688.64         16.5193
   688.78         16.5736
   688.92         16.6105
   689.06         16.6392
   689.20         16.6676
   689.34         16.7015
   689.48         16.7447
   689.62         16.7982
   689.76         16.8599
   689.90         16.9264
   690.04         16.9946
   690.18         17.0632
   690.32         17.1314
   690.46         17.1988
   690.60         17.2651
   690.74         17.3289
   690.88         17.3887
   691.02         17.4438
   691.16         17.4938
   691.30         17.5378
   691.44         17.5744
   691.58         17.6026
   691.72         17.6234
   691.86         17.6389
   692.00         17.6527
   692.14         17.6676
   692.28         17.6857
   692.42         17.7083
   692.56         17.7361
   692.70         17.7686
   692.84         17.8042
   692.98         17.8421
   693.12         17.8830
   693.26         17.9275
   693.40         17.9753
   693.54         18.0252
   693.68         18.0748
   693.82         18.1209
   693.96         18.1603
   694.10         18.1911
   694.24         18.2131
   694.38         18.2268
   694.52         18.2329
   694.66         18.2323
   694.80         18.2257
   694.94         18.2150
   695.08         18.2033
   695.22         18.1945
   695.36         18.1927
   695.50         18.2024
   695.64         18.2260
   695.78         18.2632
   695.92         18.3111
   696.06         18.3660
   696.20         18.4241
   696.34         18.4811
   696.48         18.5312
   696.62         18.5679
   696.76         18.5845
   696.90         18.5764
   697.04         18.5426
   697.18         18.4863
   697.32         18.4139
   697.46         18.3343
   697.60         18.2566
   697.74         18.1885
   697.88         18.1362
   698.02         18.1034
   698.16         18.0913
   698.30         18.0989
   698.44         18.1238
   698.58         18.1626
   698.72         18.2109
   698.86         18.2618
   699.00         18.3076
   699.14         18.3420
   699.28         18.3606
   699.42         18.3611
   699.56         18.3434
   699.70         18.3105
   699.84         18.2668
   699.98         18.2169
   700.12         18.1648
   700.26         18.1139
   700.40         18.0673
   700.54         18.0269
   700.68         17.9932
   700.82         17.9671
   700.96         17.9498
   701.10         17.9410
   701.24         17.9383
   701.38         17.9385
   701.52         17.9381
   701.66         17.9350
   701.80         17.9290
   701.94         17.9206
   702.08         17.9105
   702.22         17.9002
   702.36         17.8916
   702.50         17.8855
   702.64         17.8812
   702.78         17.8776
   702.92         17.8739
   703.06         17.8713
   703.20         17.8724
   703.34         17.8809
   703.48         17.9000
   703.62         17.9301
   703.76         17.9685
   703.90         18.0115
   704.04         18.0552
   704.18         18.0954
   704.32         18.1285
   704.46         18.1519
   704.60         18.1629
   704.74         18.1597
   704.88         18.1427
   705.02         18.1143
   705.16         18.0779
   705.30         18.0374
   705.44         17.9964
   705.58         17.9568
   705.72         17.9194
   705.86         17.8830
   706.00         17.8466
   706.14         17.8099
   706.28         17.7735
   706.42         17.7390
   706.56         17.7095
   706.70         17.6882
   706.84         17.6783
   706.98         17.6823
   707.12         17.7009
   707.26         17.7318
   707.40         17.7703
   707.54         17.8109
   707.68         17.8480
   707.82         17.8768
   707.96         17.8937
   708.10         17.8961
   708.24         17.8838
   708.38         17.8593
   708.52         17.8273
   708.66         17.7930
   708.80         17.7627
   708.94         17.7420
   709.08         17.7351
   709.22         17.7432
   709.36         17.7651
   709.50         17.7979
   709.64         17.8367
   709.78         17.8748
   709.92         17.9061
   710.06         17.9266
   710.20         17.9357
   710.34         17.9347
   710.48         17.9256
   710.62         17.9105
   710.76         17.8914
   710.90         17.8706
   711.04         17.8509
   711.18         17.8349
   711.32         17.8248
   711.46         17.8223
   711.60         17.8269
   711.74         17.8368
   711.88         17.8495
   712.02         17.8622
   712.16         17.8729
   712.30         17.8811
   712.44         17.8883
   712.58         17.8968
   712.72         17.9084
   712.86         17.9241
   713.00         17.9428
   713.14         17.9606
   713.28         17.9728
   713.42         17.9754
   713.56         17.9656
   713.70         17.9412
   713.84         17.9013
   713.98         17.8471
   714.12         17.7830
   714.26         17.7152
   714.40         17.6508
   714.54         17.5966
   714.68         17.5590
   714.82         17.5437
   714.96         17.5539
   715.10         17.5871
   715.24         17.6349
   715.38         17.6857
   715.52         17.7287
   715.66         17.7564
   715.80         17.7641
   715.94         17.7495
   716.08         17.7128
   716.22         17.6571
   716.36         17.5872
   716.50         17.5077
   716.64         17.4234
   716.78         17.3395
   716.92         17.2585
   717.06         17.1803
   717.20         17.1029
   717.34         17.0221
   717.48         16.9317
   717.62         16.8277
   717.76         16.7103
   717.90         16.5840
   718.04         16.4559
   718.18         16.3349
   718.32         16.2291
   718.46         16.1448
   718.60         16.0868
   718.74         16.0587
   718.88         16.0607
   719.02         16.0891
   719.16         16.1379
   719.30         16.2008
   719.44         16.2695
   719.58         16.3346
   719.72         16.3896
   719.86         16.4328
   720.00         16.4673
   720.14         16.4999
   720.28         16.5395
   720.42         16.5938
   720.56         16.6671
   720.70         16.7609
   720.84         16.8743
   720.98         17.0037
   721.12         17.1422
   721.26         17.2805
   721.40         17.4080
   721.54         17.5153
   721.68         17.5959
   721.82         17.6460
   721.96         17.6641
   722.10         17.6507
   722.24         17.6091
   722.38         17.5454
   722.52         17.4679
   722.66         17.3842
   722.80         17.2994
   722.94         17.2167
   723.08         17.1393
   723.22         17.0699
   723.36         17.0100
   723.50         16.9609
   723.64         16.9243
   723.78         16.9018
   723.92         16.8924
   724.06         16.8921
   724.20         16.8963
   724.34         16.9013
   724.48         16.9047
   724.62         16.9059
   724.76         16.9055
   724.90         16.9048
   725.04         16.9051
   725.18         16.9069
   725.32         16.9093
   725.46         16.9109
   725.60         16.9121
   725.74         16.9142
   725.88         16.9187
   726.02         16.9257
   726.16         16.9335
   726.30         16.9378
   726.44         16.9340
   726.58         16.9192
   726.72         16.8945
   726.86         16.8647
   727.00         16.8345
   727.14         16.8064
   727.28         16.7804
   727.42         16.7552
   727.56         16.7283
   727.70         16.6955
   727.84         16.6523
   727.98         16.5954
   728.12         16.5239
   728.26         16.4405
   728.40         16.3510
   728.54         16.2637
   728.68         16.1862
   728.82         16.1244
   728.96         16.0830
   729.10         16.0654
   729.24         16.0737
   729.38         16.1080
   729.52         16.1641
   729.66         16.2342
   729.80         16.3083
   729.94         16.3770
   730.08         16.4333
   730.22         16.4721
   730.36         16.4910
   730.50         16.4910
   730.64         16.4768
   730.78         16.4544
   730.92         16.4291
   731.06         16.4052
   731.20         16.3847
   731.34         16.3677
   731.48         16.3530
   731.62         16.3392
   731.76         16.3258
   731.90         16.3129
   732.04         16.2998
   732.18         16.2851
   732.32         16.2688
   732.46         16.2534
   732.60         16.2426
   732.74         16.2394
   732.88         16.2449
   733.02         16.2591
   733.16         16.2818
   733.30         16.3131
   733.44         16.3520
   733.58         16.3972
   733.72         16.4454
   733.86         16.4920
   734.00         16.5311
   734.14         16.5578
   734.28         16.5699
   734.42         16.5678
   734.56         16.5529
   734.70         16.5274
   734.84         16.4946
   734.98         16.4588
   735.12         16.4233
   735.26         16.3902
   735.40         16.3602
   735.54         16.3335
   735.68         16.3109
   735.82         16.2923
   735.96         16.2779
   736.10         16.2678
   736.24         16.2624
   736.38         16.2618
   736.52         16.2658
   736.66         16.2743
   736.80         16.2868
   736.94         16.3017
   737.08         16.3162
   737.22         16.3261
   737.36         16.3272
   737.50         16.3158
   737.64         16.2883
   737.78         16.2413
   737.92         16.1741
   738.06         16.0892
   738.20         15.9922
   738.34         15.8902
   738.48         15.7908
   738.62         15.7014
   738.76         15.6283
   738.90         15.5752
   739.04         15.5427
   739.18         15.5289
   739.32         15.5307
   739.46         15.5442
   739.60         15.5647
   739.74         15.5868
   739.88         15.6051
   740.02         15.6144
   740.16         15.6111
   740.30         15.5945
   740.44         15.5669
   740.58         15.5327
   740.72         15.4968
   740.86         15.4636
   741.00         15.4357
   741.14         15.4149
   741.28         15.4020
   741.42         15.3974
   741.56         15.4005
   741.70         15.4107
   741.84         15.4273
   741.98         15.4493
   742.12         15.4739
   742.26         15.4979
   742.40         15.5184
   742.54         15.5337
   742.68         15.5432
   742.82         15.5473
   742.96         15.5473
   743.10         15.5432
   743.24         15.5337
   743.38         15.5184
   743.52         15.4979
   743.66         15.4739
   743.80         15.4493
   743.94         15.4273
   744.08         15.4107
   744.22         15.4005
