# File HD30584
# Wavelength [nm]    Normalized Amplitude
   349.70         73.8325
   349.84         73.8491
   349.98         74.0195
   350.12         74.3399
   350.26         74.7894
   350.40         75.3159
   350.54         75.8449
   350.68         76.3089
   350.82         76.6634
   350.96         76.8830
   351.10         76.9569
   351.24         76.8830
   351.38         76.6634
   351.52         76.3089
   351.66         75.8449
   351.80         75.3159
   351.94         74.7894
   352.08         74.3399
   352.22         74.0195
   352.36         73.8491
   352.50         73.8325
   352.64         73.9753
   352.78         74.2772
   352.92         74.7199
   353.06         75.2737
   353.20         75.9032
   353.34         76.5704
   353.48         77.2350
   353.62         77.8532
   353.76         78.3796
   353.90         78.7757
   354.04         79.0235
   354.18         79.1182
   354.32         79.0566
   354.46         78.8416
   354.60         78.4822
   354.74         77.9915
   354.88         77.3955
   355.02         76.7393
   355.16         76.0748
   355.30         75.4495
   355.44         74.9018
   355.58         74.4497
   355.72         74.0946
   355.86         73.8351
   356.00         73.6683
   356.14         73.5857
   356.28         73.5758
   356.42         73.6305
   356.56         73.7407
   356.70         73.8927
   356.84         74.0674
   356.98         74.2419
   357.12         74.3962
   357.26         74.5202
   357.40         74.6190
   357.54         74.7031
   357.68         74.7774
   357.82         74.8384
   357.96         74.8777
   358.10         74.8851
   358.24         74.8517
   358.38         74.7727
   358.52         74.6510
   358.66         74.4995
   358.80         74.3399
   358.94         74.1971
   359.08         74.0848
   359.22         73.9956
   359.36         73.9118
   359.50         73.8215
   359.64         73.7202
   359.78         73.6121
   359.92         73.5116
   360.06         73.4296
   360.20         73.3614
   360.34         73.3032
   360.48         73.2558
   360.62         73.2180
   360.76         73.1885
   360.90         73.1631
   361.04         73.1365
   361.18         73.1132
   361.32         73.1017
   361.46         73.1037
   361.60         73.1129
   361.74         73.1118
   361.88         73.0761
   362.02         72.9865
   362.16         72.8374
   362.30         72.6386
   362.44         72.4120
   362.58         72.1801
   362.72         71.9596
   362.86         71.7730
   363.00         71.6463
   363.14         71.5876
   363.28         71.5904
   363.42         71.6482
   363.56         71.7537
   363.70         71.8929
   363.84         72.0482
   363.98         72.1974
   364.12         72.3111
   364.26         72.3555
   364.40         72.3036
   364.54         72.1460
   364.68         71.8955
   364.82         71.5833
   364.96         71.2467
   365.10         70.9177
   365.24         70.6232
   365.38         70.3905
   365.52         70.2475
   365.66         70.2126
   365.80         70.2916
   365.94         70.4846
   366.08         70.7823
   366.22         71.1619
   366.36         71.5926
   366.50         72.0513
   366.64         72.5138
   366.78         72.9392
   366.92         73.2797
   367.06         73.4957
   367.20         73.5642
   367.34         73.4802
   367.48         73.2542
   367.62         72.9202
   367.76         72.5345
   367.90         72.1516
   368.04         71.8127
   368.18         71.5554
   368.32         71.4072
   368.46         71.3694
   368.60         71.4247
   368.74         71.5487
   368.88         71.7113
   369.02         71.8760
   369.16         72.0014
   369.30         72.0458
   369.44         71.9892
   369.58         71.8480
   369.72         71.6535
   369.86         71.4332
   370.00         71.2091
   370.14         71.0048
   370.28         70.8588
   370.42         70.8242
   370.56         70.9521
   370.70         71.2679
   370.84         71.7529
   370.98         72.3461
   371.12         72.9738
   371.26         73.5905
   371.40         74.1939
   371.54         74.8226
   371.68         75.5286
   371.82         76.3419
   371.96         77.2535
   372.10         78.2084
   372.24         79.1093
   372.38         79.8474
   372.52         80.3592
   372.66         80.6608
   372.80         80.8430
   372.94         81.0426
   373.08         81.3974
   373.22         81.9923
   373.36         82.8300
   373.50         83.8533
   373.64         84.9729
   373.78         86.0730
   373.92         87.0274
   374.06         87.7327
   374.20         88.1255
   374.34         88.1840
   374.48         87.9511
   374.62         87.5551
   374.76         87.1941
   374.90         87.1069
   375.04         87.5324
   375.18         88.6441
   375.32         90.4888
   375.46         92.9524
   375.60         95.7519
   375.74         98.4742
   375.88         100.6611
   376.02         101.9202
   376.16         102.0333
   376.30         101.0078
   376.44         99.0719
   376.58         96.6413
   376.72         94.2431
   376.86         92.3987
   377.00         91.5326
   377.14         91.9252
   377.28         93.6904
   377.42         96.7778
   377.56         100.9884
   377.70         105.9868
   377.84         111.3270
   377.98         116.5081
   378.12         121.0325
   378.26         124.4546
   378.40         126.4253
   378.54         126.7359
   378.68         125.3606
   378.82         122.4652
   378.96         118.3794
   379.10         113.5530
   379.24         108.5078
   379.38         103.7786
   379.52         99.8560
   379.66         97.1567
   379.80         95.9962
   379.94         96.5469
   380.08         98.8145
   380.22         102.6394
   380.36         107.7218
   380.50         113.6635
   380.64         120.0196
   380.78         126.3449
   380.92         132.2304
   381.06         137.3432
   381.20         141.4707
   381.34         144.5346
   381.48         146.5569
   381.62         147.5953
   381.76         147.6886
   381.90         146.8338
   382.04         144.9912
   382.18         142.1148
   382.32         138.1923
   382.46         133.2804
   382.60         127.5355
   382.74         121.2307
   382.88         114.7437
   383.02         108.5120
   383.16         102.9824
   383.30         98.5714
   383.44         95.6239
   383.58         94.3706
   383.72         94.9055
   383.86         97.1752
   384.00         100.9807
   384.14         105.9934
   384.28         111.7808
   384.42         117.8679
   384.56         123.8191
   384.70         129.2959
   384.84         134.0735
   384.98         138.0326
   385.12         141.1523
   385.26         143.4953
   385.40         145.1810
   385.54         146.3524
   385.68         147.1525
   385.82         147.7113
   385.96         148.1297
   386.10         148.4658
   386.24         148.7288
   386.38         148.8882
   386.52         148.8918
   386.66         148.6788
   386.80         148.1817
   386.94         147.3257
   387.08         146.0340
   387.22         144.2291
   387.36         141.8127
   387.50         138.6633
   387.64         134.6818
   387.78         129.8557
   387.92         124.2906
   388.06         118.2047
   388.20         111.9103
   388.34         105.7863
   388.48         100.2331
   388.62         95.6301
   388.76         92.3078
   388.90         90.5128
   389.04         90.3762
   389.18         91.9002
   389.32         94.9526
   389.46         99.2750
   389.60         104.5208
   389.74         110.2957
   389.88         116.1904
   390.02         121.8255
   390.16         126.9013
   390.30         131.2487
   390.44         134.8322
   390.58         137.7004
   390.72         139.9432
   390.86         141.6639
   391.00         142.9632
   391.14         143.9341
   391.28         144.6583
   391.42         145.2011
   391.56         145.6083
   391.70         145.9094
   391.84         146.1171
   391.98         146.2220
   392.12         146.2019
   392.26         146.0429
   392.40         145.7432
   392.54         145.3163
   392.68         144.7991
   392.82         144.2506
   392.96         143.7387
   393.10         143.3105
   393.24         142.9932
   393.38         142.8108
   393.52         142.7766
   393.66         142.8885
   393.80         143.1198
   393.94         143.4172
   394.08         143.7138
   394.22         143.9338
   394.36         143.9963
   394.50         143.8229
   394.64         143.3503
   394.78         142.5416
   394.92         141.3767
   395.06         139.8365
   395.20         137.8940
   395.34         135.5055
   395.48         132.6023
   395.62         129.0923
   395.76         124.8999
   395.90         120.0224
   396.04         114.5594
   396.18         108.7182
   396.32         102.7995
   396.46         97.1662
   396.60         92.2023
   396.74         88.2637
   396.88         85.6398
   397.02         84.5361
   397.16         85.0491
   397.30         87.1449
   397.44         90.6586
   397.58         95.3100
   397.72         100.7379
   397.86         106.5416
   398.00         112.3234
   398.14         117.7328
   398.28         122.5152
   398.42         126.5404
   398.56         129.7893
   398.70         132.3159
   398.84         134.2164
   398.98         135.6017
   399.12         136.5803
   399.26         137.2517
   399.40         137.7077
   399.54         138.0334
   399.68         138.3045
   399.82         138.5744
   399.96         138.8649
   400.10         139.1765
   400.24         139.5006
   400.38         139.8206
   400.52         140.1133
   400.66         140.3499
   400.80         140.4964
   400.94         140.5242
   401.08         140.4174
   401.22         140.1780
   401.36         139.8325
   401.50         139.4267
   401.64         139.0040
   401.78         138.5971
   401.92         138.2340
   402.06         137.9415
   402.20         137.7348
   402.34         137.6098
   402.48         137.5514
   402.62         137.5469
   402.76         137.5929
   402.90         137.6837
   403.04         137.7956
   403.18         137.8970
   403.32         137.9621
   403.46         137.9708
   403.60         137.9121
   403.74         137.7911
   403.88         137.6263
   404.02         137.4375
   404.16         137.2301
   404.30         136.9957
   404.44         136.7221
   404.58         136.4026
   404.72         136.0363
   404.86         135.6216
   405.00         135.1616
   405.14         134.6727
   405.28         134.1775
   405.42         133.6923
   405.56         133.2291
   405.70         132.8030
   405.84         132.4348
   405.98         132.1413
   406.12         131.9262
   406.26         131.7827
   406.40         131.6908
   406.54         131.6126
   406.68         131.4981
   406.82         131.3089
   406.96         131.0300
   407.10         130.6549
   407.24         130.1766
   407.38         129.5887
   407.52         128.8896
   407.66         128.0897
   407.80         127.2069
   407.94         126.2485
   408.08         125.1939
   408.22         123.9899
   408.36         122.5565
   408.50         120.7935
   408.64         118.5882
   408.78         115.8264
   408.92         112.4167
   409.06         108.3325
   409.20         103.6517
   409.34         98.5691
   409.48         93.3700
   409.62         88.3850
   409.76         83.9551
   409.90         80.4117
   410.04         78.0380
   410.18         77.0305
   410.32         77.4710
   410.46         79.3036
   410.60         82.3399
   410.74         86.2953
   410.88         90.8306
   411.02         95.5901
   411.16         100.2379
   411.30         104.4880
   411.44         108.1291
   411.58         111.0463
   411.72         113.2254
   411.86         114.7333
   412.00         115.6859
   412.14         116.2203
   412.28         116.4715
   412.42         116.5620
   412.56         116.5967
   412.70         116.6608
   412.84         116.8166
   412.98         117.0964
   413.12         117.5037
   413.26         118.0279
   413.40         118.6507
   413.54         119.3390
   413.68         120.0435
   413.82         120.7145
   413.96         121.3152
   414.10         121.8207
   414.24         122.2183
   414.38         122.5115
   414.52         122.7184
   414.66         122.8633
   414.80         122.9673
   414.94         123.0419
   415.08         123.0926
   415.22         123.1203
   415.36         123.1186
   415.50         123.0735
   415.64         122.9761
   415.78         122.8348
   415.92         122.6611
   416.06         122.4556
   416.20         122.2094
   416.34         121.9203
   416.48         121.6010
   416.62         121.2615
   416.76         120.8943
   416.90         120.4896
   417.04         120.0503
   417.18         119.5882
   417.32         119.1221
   417.46         118.6753
   417.60         118.2707
   417.74         117.9222
   417.88         117.6354
   418.02         117.4130
   418.16         117.2578
   418.30         117.1745
   418.44         117.1586
   418.58         117.1864
   418.72         117.2311
   418.86         117.2775
   419.00         117.3163
   419.14         117.3339
   419.28         117.3110
   419.42         117.2341
   419.56         117.1031
   419.70         116.9240
   419.84         116.7080
   419.98         116.4732
   420.12         116.2387
   420.26         116.0216
   420.40         115.8368
   420.54         115.7003
   420.68         115.6262
   420.82         115.6234
   420.96         115.6930
   421.10         115.8234
   421.24         115.9959
   421.38         116.1886
   421.52         116.3753
   421.66         116.5267
   421.80         116.6180
   421.94         116.6320
   422.08         116.5559
   422.22         116.3818
   422.36         116.1124
   422.50         115.7649
   422.64         115.3641
   422.78         114.9360
   422.92         114.5073
   423.06         114.1038
   423.20         113.7493
   423.34         113.4579
   423.48         113.2302
   423.62         113.0596
   423.76         112.9365
   423.90         112.8472
   424.04         112.7685
   424.18         112.6748
   424.32         112.5512
   424.46         112.3967
   424.60         112.2180
   424.74         112.0244
   424.88         111.8271
   425.02         111.6414
   425.16         111.4800
   425.30         111.3473
   425.44         111.2400
   425.58         111.1528
   425.72         111.0795
   425.86         111.0106
   426.00         110.9317
   426.14         110.8311
   426.28         110.7093
   426.42         110.5756
   426.56         110.4379
   426.70         110.3034
   426.84         110.1817
   426.98         110.0836
   427.12         110.0180
   427.26         109.9856
   427.40         109.9776
   427.54         109.9816
   427.68         109.9871
   427.82         109.9868
   427.96         109.9719
   428.10         109.9321
   428.24         109.8640
   428.38         109.7697
   428.52         109.6518
   428.66         109.5116
   428.80         109.3502
   428.94         109.1688
   429.08         108.9711
   429.22         108.7664
   429.36         108.5674
   429.50         108.3864
   429.64         108.2338
   429.78         108.1144
   429.92         108.0212
   430.06         107.9411
   430.20         107.8609
   430.34         107.7674
   430.48         107.6473
   430.62         107.4860
   430.76         107.2728
   430.90         107.0025
   431.04         106.6728
   431.18         106.2870
   431.32         105.8515
   431.46         105.3712
   431.60         104.8510
   431.74         104.2942
   431.88         103.6899
   432.02         103.0048
   432.16         102.1891
   432.30         101.1793
   432.44         99.8950
   432.58         98.2443
   432.72         96.1373
   432.86         93.5059
   433.00         90.3352
   433.14         86.6874
   433.28         82.7073
   433.42         78.6128
   433.56         74.6680
   433.70         71.1530
   433.84         68.3303
   433.98         66.4080
   434.12         65.5202
   434.26         65.7223
   434.40         66.9825
   434.54         69.1846
   434.68         72.1460
   434.82         75.6352
   434.96         79.3951
   435.10         83.1751
   435.24         86.7629
   435.38         90.0074
   435.52         92.8288
   435.66         95.2151
   435.80         97.2012
   435.94         98.8415
   436.08         100.1878
   436.22         101.2799
   436.36         102.1480
   436.50         102.8142
   436.64         103.2941
   436.78         103.6053
   436.92         103.7736
   437.06         103.8282
   437.20         103.7930
   437.34         103.6847
   437.48         103.5212
   437.62         103.3247
   437.76         103.1197
   437.90         102.9297
   438.04         102.7749
   438.18         102.6681
   438.32         102.6163
   438.46         102.6276
   438.60         102.7073
   438.74         102.8514
   438.88         103.0468
   439.02         103.2686
   439.16         103.4828
   439.30         103.6578
   439.44         103.7728
   439.58         103.8185
   439.72         103.7883
   439.86         103.6755
   440.00         103.4887
   440.14         103.2524
   440.28         102.9892
   440.42         102.7104
   440.56         102.4186
   440.70         102.1163
   440.84         101.8115
   440.98         101.5106
   441.12         101.2136
   441.26         100.9157
   441.40         100.6105
   441.54         100.2989
   441.68         99.9904
   441.82         99.7038
   441.96         99.4600
   442.10         99.2737
   442.24         99.1523
   442.38         99.0925
   442.52         99.0840
   442.66         99.1159
   442.80         99.1767
   442.94         99.2517
   443.08         99.3235
   443.22         99.3772
   443.36         99.3969
   443.50         99.3650
   443.64         99.2672
   443.78         99.1053
   443.92         98.9015
   444.06         98.6825
   444.20         98.4712
   444.34         98.2831
   444.48         98.1280
   444.62         98.0124
   444.76         97.9411
   444.90         97.9136
   445.04         97.9223
   445.18         97.9594
   445.32         98.0203
   445.46         98.0977
   445.60         98.1749
   445.74         98.2312
   445.88         98.2532
   446.02         98.2372
   446.16         98.1878
   446.30         98.1146
   446.44         98.0325
   446.58         97.9545
   446.72         97.8770
   446.86         97.7801
   447.00         97.6419
   447.14         97.4496
   447.28         97.2036
   447.42         96.9175
   447.56         96.6133
   447.70         96.3137
   447.84         96.0401
   447.98         95.8044
   448.12         95.6122
   448.26         95.4725
   448.40         95.3951
   448.54         95.3825
   448.68         95.4258
   448.82         95.5070
   448.96         95.6066
   449.10         95.7053
   449.24         95.7849
   449.38         95.8295
   449.52         95.8285
   449.66         95.7835
   449.80         95.7085
   449.94         95.6207
   450.08         95.5296
   450.22         95.4335
   450.36         95.3311
   450.50         95.2281
   450.64         95.1263
   450.78         95.0248
   450.92         94.9236
   451.06         94.8178
   451.20         94.7030
   451.34         94.5834
   451.48         94.4697
   451.62         94.3796
   451.76         94.3369
   451.90         94.3552
   452.04         94.4274
   452.18         94.5343
   452.32         94.6597
   452.46         94.7927
   452.60         94.9201
   452.74         95.0237
   452.88         95.0835
   453.02         95.0886
   453.16         95.0351
   453.30         94.9188
   453.44         94.7401
   453.58         94.5078
   453.72         94.2329
   453.86         93.9297
   454.00         93.6173
   454.14         93.3090
   454.28         93.0079
   454.42         92.7037
   454.56         92.3777
   454.70         92.0232
   454.84         91.6551
   454.98         91.2986
   455.12         90.9768
   455.26         90.7068
   455.40         90.4961
   455.54         90.3451
   455.68         90.2562
   455.82         90.2276
   455.96         90.2457
   456.10         90.2916
   456.24         90.3464
   456.38         90.3952
   456.52         90.4291
   456.66         90.4433
   456.80         90.4339
   456.94         90.3962
   457.08         90.3254
   457.22         90.2234
   457.36         90.1021
   457.50         89.9741
   457.64         89.8428
   457.78         89.7101
   457.92         89.5842
   458.06         89.4717
   458.20         89.3754
   458.34         89.2968
   458.48         89.2336
   458.62         89.1813
   458.76         89.1383
   458.90         89.1077
   459.04         89.0902
   459.18         89.0799
   459.32         89.0681
   459.46         89.0455
   459.60         89.0006
   459.74         88.9262
   459.88         88.8281
   460.02         88.7216
   460.16         88.6163
   460.30         88.5126
   460.44         88.4131
   460.58         88.3196
   460.72         88.2249
   460.86         88.1194
   461.00         87.9979
   461.14         87.8646
   461.28         87.7330
   461.42         87.6162
   461.56         87.5191
   461.70         87.4404
   461.84         87.3805
   461.98         87.3437
   462.12         87.3311
   462.26         87.3370
   462.40         87.3482
   462.54         87.3492
   462.68         87.3302
   462.82         87.2850
   462.96         87.2073
   463.10         87.0945
   463.24         86.9473
   463.38         86.7771
   463.52         86.6090
   463.66         86.4693
   463.80         86.3787
   463.94         86.3462
   464.08         86.3670
   464.22         86.4293
   464.36         86.5200
   464.50         86.6257
   464.64         86.7318
   464.78         86.8228
   464.92         86.8830
   465.06         86.9008
   465.20         86.8765
   465.34         86.8218
   465.48         86.7476
   465.62         86.6595
   465.76         86.5614
   465.90         86.4555
   466.04         86.3417
   466.18         86.2186
   466.32         86.0860
   466.46         85.9489
   466.60         85.8198
   466.74         85.7172
   466.88         85.6518
   467.02         85.6198
   467.16         85.6102
   467.30         85.6103
   467.44         85.6083
   467.58         85.5949
   467.72         85.5665
   467.86         85.5242
   468.00         85.4674
   468.14         85.3903
   468.28         85.2883
   468.42         85.1619
   468.56         85.0199
   468.70         84.8782
   468.84         84.7516
   468.98         84.6476
   469.12         84.5662
   469.26         84.5062
   469.40         84.4645
   469.54         84.4315
   469.68         84.4025
   469.82         84.3866
   469.96         84.3958
   470.10         84.4388
   470.24         84.5192
   470.38         84.6280
   470.52         84.7455
   470.66         84.8468
   470.80         84.9076
   470.94         84.9111
   471.08         84.8441
   471.22         84.7014
   471.36         84.4915
   471.50         84.2325
   471.64         83.9469
   471.78         83.6523
   471.92         83.3591
   472.06         83.0782
   472.20         82.8225
   472.34         82.6005
   472.48         82.4121
   472.62         82.2520
   472.76         82.1193
   472.90         82.0156
   473.04         81.9393
   473.18         81.8900
   473.32         81.8716
   473.46         81.8852
   473.60         81.9227
   473.74         81.9695
   473.88         82.0147
   474.02         82.0510
   474.16         82.0679
   474.30         82.0550
   474.44         82.0071
   474.58         81.9270
   474.72         81.8274
   474.86         81.7253
   475.00         81.6315
   475.14         81.5492
   475.28         81.4809
   475.42         81.4285
   475.56         81.3901
   475.70         81.3614
   475.84         81.3381
   475.98         81.3135
   476.12         81.2753
   476.26         81.2095
   476.40         81.1093
   476.54         80.9762
   476.68         80.8115
   476.82         80.6128
   476.96         80.3791
   477.10         80.1130
   477.24         79.8185
   477.38         79.5037
   477.52         79.1820
   477.66         78.8638
   477.80         78.5592
   477.94         78.2864
   478.08         78.0659
   478.22         77.9094
   478.36         77.8162
   478.50         77.7784
   478.64         77.7832
   478.78         77.8140
   478.92         77.8495
   479.06         77.8681
   479.20         77.8541
   479.34         77.7980
   479.48         77.6977
   479.62         77.5592
   479.76         77.3930
   479.90         77.2104
   480.04         77.0274
   480.18         76.8650
   480.32         76.7402
   480.46         76.6631
   480.60         76.6360
   480.74         76.6496
   480.88         76.6860
   481.02         76.7266
   481.16         76.7557
   481.30         76.7590
   481.44         76.7264
   481.58         76.6536
   481.72         76.5430
   481.86         76.4057
   482.00         76.2571
   482.14         76.1084
   482.28         75.9654
   482.42         75.8311
   482.56         75.7067
   482.70         75.5916
   482.84         75.4850
   482.98         75.3846
   483.12         75.2878
   483.26         75.1868
   483.40         75.0669
   483.54         74.9069
   483.68         74.6812
   483.82         74.3631
   483.96         73.9270
   484.10         73.3479
   484.24         72.6003
   484.38         71.6601
   484.52         70.5063
   484.66         69.1163
   484.80         67.4659
   484.94         65.5428
   485.08         63.3608
   485.22         60.9694
   485.36         58.4621
   485.50         55.9683
   485.64         53.6318
   485.78         51.5949
   485.92         49.9910
   486.06         48.9312
   486.20         48.4916
   486.34         48.7060
   486.48         49.5601
   486.62         50.9892
   486.76         52.8869
   486.90         55.1155
   487.04         57.5201
   487.18         59.9492
   487.32         62.2726
   487.46         64.3923
   487.60         66.2498
   487.74         67.8281
   487.88         69.1492
   488.02         70.2571
   488.16         71.1935
   488.30         71.9886
   488.44         72.6663
   488.58         73.2423
   488.72         73.7216
   488.86         74.1084
   489.00         74.4119
   489.14         74.6405
   489.28         74.8018
   489.42         74.9015
   489.56         74.9408
   489.70         74.9232
   489.84         74.8596
   489.98         74.7630
   490.12         74.6420
   490.26         74.5009
   490.40         74.3463
   490.54         74.1930
   490.68         74.0600
   490.82         73.9617
   490.96         73.9056
   491.10         73.8930
   491.24         73.9186
   491.38         73.9745
   491.52         74.0526
   491.66         74.1393
   491.80         74.2182
   491.94         74.2771
   492.08         74.3081
   492.22         74.3080
   492.36         74.2812
   492.50         74.2384
   492.64         74.1930
   492.78         74.1608
   492.92         74.1561
   493.06         74.1875
   493.20         74.2549
   493.34         74.3422
   493.48         74.4217
   493.62         74.4655
   493.76         74.4519
   493.90         74.3700
   494.04         74.2200
   494.18         74.0066
   494.32         73.7375
   494.46         73.4285
   494.60         73.1029
   494.74         72.7880
   494.88         72.5098
   495.02         72.2878
   495.16         72.1312
   495.30         72.0406
   495.44         72.0063
   495.58         72.0048
   495.72         72.0100
   495.86         72.0061
   496.00         71.9896
   496.14         71.9639
   496.28         71.9336
   496.42         71.8998
   496.56         71.8588
   496.70         71.8033
   496.84         71.7301
   496.98         71.6457
   497.12         71.5600
   497.26         71.4780
   497.40         71.4000
   497.54         71.3270
   497.68         71.2623
   497.82         71.2105
   497.96         71.1730
   498.10         71.1444
   498.24         71.1173
   498.38         71.0918
   498.52         71.0718
   498.66         71.0573
   498.80         71.0403
   498.94         71.0000
   499.08         70.9031
   499.22         70.7120
   499.36         70.4071
   499.50         69.9980
   499.64         69.5096
   499.78         68.9709
   499.92         68.4158
   500.06         67.8843
   500.20         67.4136
   500.34         67.0306
   500.48         66.7496
   500.62         66.5750
   500.76         66.5005
   500.90         66.5117
   501.04         66.5872
   501.18         66.6972
   501.32         66.8078
   501.46         66.8890
   501.60         66.9223
   501.74         66.9069
   501.88         66.8608
   502.02         66.8136
   502.16         66.7874
   502.30         66.7858
   502.44         66.8052
   502.58         66.8390
   502.72         66.8749
   502.86         66.8982
   503.00         66.8916
   503.14         66.8403
   503.28         66.7381
   503.42         66.5901
   503.56         66.4129
   503.70         66.2259
   503.84         66.0413
   503.98         65.8651
   504.12         65.7019
   504.26         65.5579
   504.40         65.4307
   504.54         65.3035
   504.68         65.1554
   504.82         64.9768
   504.96         64.7743
   505.10         64.5635
   505.24         64.3595
   505.38         64.1785
   505.52         64.0383
   505.66         63.9515
   505.80         63.9233
   505.94         63.9515
   506.08         64.0270
   506.22         64.1348
   506.36         64.2518
   506.50         64.3517
   506.64         64.4213
   506.78         64.4645
   506.92         64.4918
   507.06         64.5091
   507.20         64.5201
   507.34         64.5346
   507.48         64.5644
   507.62         64.6133
   507.76         64.6759
   507.90         64.7433
   508.04         64.8055
   508.18         64.8513
   508.32         64.8708
   508.46         64.8595
   508.60         64.8208
   508.74         64.7638
   508.88         64.6972
   509.02         64.6265
   509.16         64.5614
   509.30         64.5181
   509.44         64.5075
   509.58         64.5267
   509.72         64.5632
   509.86         64.6054
   510.00         64.6471
   510.14         64.6842
   510.28         64.7123
   510.42         64.7280
   510.56         64.7265
   510.70         64.6997
   510.84         64.6414
   510.98         64.5488
   511.12         64.4202
   511.26         64.2549
   511.40         64.0549
   511.54         63.8224
   511.68         63.5597
   511.82         63.2744
   511.96         62.9803
   512.10         62.6911
   512.24         62.4173
   512.38         62.1689
   512.52         61.9570
   512.66         61.7880
   512.80         61.6597
   512.94         61.5677
   513.08         61.5060
   513.22         61.4645
   513.36         61.4329
   513.50         61.4049
   513.64         61.3730
   513.78         61.3270
   513.92         61.2557
   514.06         61.1499
   514.20         61.0018
   514.34         60.8057
   514.48         60.5620
   514.62         60.2777
   514.76         59.9628
   514.90         59.6319
   515.04         59.3064
   515.18         59.0079
   515.32         58.7522
   515.46         58.5497
   515.60         58.4066
   515.74         58.3233
   515.88         58.2955
   516.02         58.3177
   516.16         58.3833
   516.30         58.4811
   516.44         58.5959
   516.58         58.7092
   516.72         58.8027
   516.86         58.8613
   517.00         58.8776
   517.14         58.8556
   517.28         58.8064
   517.42         58.7393
   517.56         58.6580
   517.70         58.5608
   517.84         58.4456
   517.98         58.3136
   518.12         58.1698
   518.26         58.0223
   518.40         57.8819
   518.54         57.7602
   518.68         57.6643
   518.82         57.5929
   518.96         57.5396
   519.10         57.4974
   519.24         57.4609
   519.38         57.4299
   519.52         57.4085
   519.66         57.3992
   519.80         57.3990
   519.94         57.4027
   520.08         57.4051
   520.22         57.4007
   520.36         57.3849
   520.50         57.3533
   520.64         57.3018
   520.78         57.2304
   520.92         57.1436
   521.06         57.0492
   521.20         56.9564
   521.34         56.8717
   521.48         56.7967
   521.62         56.7284
   521.76         56.6649
   521.90         56.6078
   522.04         56.5603
   522.18         56.5207
   522.32         56.4817
   522.46         56.4368
   522.60         56.3854
   522.74         56.3292
   522.88         56.2713
   523.02         56.2224
   523.16         56.1983
   523.30         56.2114
   523.44         56.2672
   523.58         56.3650
   523.72         56.4987
   523.86         56.6561
   524.00         56.8203
   524.14         56.9760
   524.28         57.1166
   524.42         57.2403
   524.56         57.3418
   524.70         57.4108
   524.84         57.4377
   524.98         57.4191
   525.12         57.3585
   525.26         57.2634
   525.40         57.1412
   525.54         57.0002
   525.68         56.8491
   525.82         56.6911
   525.96         56.5249
   526.10         56.3534
   526.24         56.1861
   526.38         56.0314
   526.52         55.8917
   526.66         55.7674
   526.80         55.6608
   526.94         55.5760
   527.08         55.5153
   527.22         55.4773
   527.36         55.4588
   527.50         55.4580
   527.64         55.4743
   527.78         55.5063
   527.92         55.5521
   528.06         55.6086
   528.20         55.6711
   528.34         55.7337
   528.48         55.7890
   528.62         55.8307
   528.76         55.8545
   528.90         55.8570
   529.04         55.8345
   529.18         55.7843
   529.32         55.7058
   529.46         55.6005
   529.60         55.4707
   529.74         55.3205
   529.88         55.1560
   530.02         54.9860
   530.16         54.8224
   530.30         54.6750
   530.44         54.5444
   530.58         54.4262
   530.72         54.3165
   530.86         54.2127
   531.00         54.1144
   531.14         54.0246
   531.28         53.9491
   531.42         53.8949
   531.56         53.8658
   531.70         53.8596
   531.84         53.8684
   531.98         53.8858
   532.12         53.9113
   532.26         53.9467
   532.40         53.9923
   532.54         54.0461
   532.68         54.1038
   532.82         54.1592
   532.96         54.2035
   533.10         54.2290
   533.24         54.2377
   533.38         54.2375
   533.52         54.2323
   533.66         54.2226
   533.80         54.2079
   533.94         54.1863
   534.08         54.1556
   534.22         54.1144
   534.36         54.0637
   534.50         54.0083
   534.64         53.9560
   534.78         53.9125
   534.92         53.8799
   535.06         53.8593
   535.20         53.8527
   535.34         53.8598
   535.48         53.8766
   535.62         53.8969
   535.76         53.9115
   535.90         53.9090
   536.04         53.8794
   536.18         53.8176
   536.32         53.7260
   536.46         53.6130
   536.60         53.4897
   536.74         53.3696
   536.88         53.2654
   537.02         53.1846
   537.16         53.1284
   537.30         53.0962
   537.44         53.0881
   537.58         53.1022
   537.72         53.1325
   537.86         53.1696
   538.00         53.2013
   538.14         53.2159
   538.28         53.2064
   538.42         53.1701
   538.56         53.1101
   538.70         53.0328
   538.84         52.9436
   538.98         52.8467
   539.12         52.7438
   539.26         52.6377
   539.40         52.5341
   539.54         52.4374
   539.68         52.3490
   539.82         52.2712
   539.96         52.2089
   540.10         52.1653
   540.24         52.1403
   540.38         52.1330
   540.52         52.1429
   540.66         52.1692
   540.80         52.2088
   540.94         52.2563
   541.08         52.3050
   541.22         52.3516
   541.36         52.3962
   541.50         52.4383
   541.64         52.4734
   541.78         52.4970
   541.92         52.5098
   542.06         52.5147
   542.20         52.5106
   542.34         52.4945
   542.48         52.4671
   542.62         52.4317
   542.76         52.3932
   542.90         52.3576
   543.04         52.3256
   543.18         52.2901
   543.32         52.2412
   543.46         52.1690
   543.60         52.0669
   543.74         51.9338
   543.88         51.7728
   544.02         51.5875
   544.16         51.3833
   544.30         51.1702
   544.44         50.9606
   544.58         50.7656
   544.72         50.5915
   544.86         50.4413
   545.00         50.3168
   545.14         50.2205
   545.28         50.1541
   545.42         50.1155
   545.56         50.0958
   545.70         50.0800
   545.84         50.0597
   545.98         50.0364
   546.12         50.0149
   546.26         50.0002
   546.40         49.9961
   546.54         50.0045
   546.68         50.0239
   546.82         50.0497
   546.96         50.0753
   547.10         50.0937
   547.24         50.1009
   547.38         50.0974
   547.52         50.0859
   547.66         50.0675
   547.80         50.0421
   547.94         50.0105
   548.08         49.9716
   548.22         49.9233
   548.36         49.8678
   548.50         49.8122
   548.64         49.7618
   548.78         49.7151
   548.92         49.6684
   549.06         49.6189
   549.20         49.5626
   549.34         49.4959
   549.48         49.4163
   549.62         49.3211
   549.76         49.2074
   549.90         49.0772
   550.04         48.9377
   550.18         48.7985
   550.32         48.6709
   550.46         48.5707
   550.60         48.5139
   550.74         48.5084
   550.88         48.5526
   551.02         48.6401
   551.16         48.7633
   551.30         48.9122
   551.44         49.0751
   551.58         49.2415
   551.72         49.3997
   551.86         49.5343
   552.00         49.6314
   552.14         49.6820
   552.28         49.6837
   552.42         49.6421
   552.56         49.5686
   552.70         49.4749
   552.84         49.3727
   552.98         49.2728
   553.12         49.1802
   553.26         49.0915
   553.40         48.9988
   553.54         48.8958
   553.68         48.7819
   553.82         48.6607
   553.96         48.5365
   554.10         48.4140
   554.24         48.2983
   554.38         48.1942
   554.52         48.1071
   554.66         48.0450
   554.80         48.0159
   554.94         48.0215
   555.08         48.0543
   555.22         48.1009
   555.36         48.1482
   555.50         48.1841
   555.64         48.1975
   555.78         48.1778
   555.92         48.1164
   556.06         48.0123
   556.20         47.8764
   556.34         47.7277
   556.48         47.5839
   556.62         47.4560
   556.76         47.3505
   556.90         47.2695
   557.04         47.2092
   557.18         47.1623
   557.32         47.1204
   557.46         47.0745
   557.60         47.0182
   557.74         46.9498
   557.88         46.8737
   558.02         46.7982
   558.16         46.7311
   558.30         46.6767
   558.44         46.6358
   558.58         46.6080
   558.72         46.5928
   558.86         46.5901
   559.00         46.5970
   559.14         46.6057
   559.28         46.6054
   559.42         46.5882
   559.56         46.5494
   559.70         46.4897
   559.84         46.4161
   559.98         46.3377
   560.12         46.2607
   560.26         46.1872
   560.40         46.1173
   560.54         46.0512
   560.68         45.9878
   560.82         45.9231
   560.96         45.8534
   561.10         45.7756
   561.24         45.6867
   561.38         45.5862
   561.52         45.4775
   561.66         45.3636
   561.80         45.2451
   561.94         45.1256
   562.08         45.0155
   562.22         44.9270
   562.36         44.8669
   562.50         44.8346
   562.64         44.8240
   562.78         44.8280
   562.92         44.8415
   563.06         44.8629
   563.20         44.8922
   563.34         44.9267
   563.48         44.9595
   563.62         44.9826
   563.76         44.9888
   563.90         44.9723
   564.04         44.9303
   564.18         44.8650
   564.32         44.7833
   564.46         44.6931
   564.60         44.6016
   564.74         44.5158
   564.88         44.4411
   565.02         44.3815
   565.16         44.3426
   565.30         44.3303
   565.44         44.3457
   565.58         44.3855
   565.72         44.4445
   565.86         44.5152
   566.00         44.5850
   566.14         44.6394
   566.28         44.6676
   566.42         44.6629
   566.56         44.6218
   566.70         44.5472
   566.84         44.4471
   566.98         44.3291
   567.12         44.2003
   567.26         44.0704
   567.40         43.9498
   567.54         43.8454
   567.68         43.7611
   567.82         43.6985
   567.96         43.6550
   568.10         43.6249
   568.24         43.6022
   568.38         43.5804
   568.52         43.5541
   568.66         43.5221
   568.80         43.4876
   568.94         43.4553
   569.08         43.4272
   569.22         43.4037
   569.36         43.3869
   569.50         43.3788
   569.64         43.3793
   569.78         43.3851
   569.92         43.3894
   570.06         43.3840
   570.20         43.3630
   570.34         43.3250
   570.48         43.2708
   570.62         43.2028
   570.76         43.1261
   570.90         43.0478
   571.04         42.9749
   571.18         42.9121
   571.32         42.8603
   571.46         42.8174
   571.60         42.7792
   571.74         42.7426
   571.88         42.7083
   572.02         42.6791
   572.16         42.6565
   572.30         42.6391
   572.44         42.6218
   572.58         42.5980
   572.72         42.5632
   572.86         42.5158
   573.00         42.4559
   573.14         42.3846
   573.28         42.3051
   573.42         42.2222
   573.56         42.1394
   573.70         42.0608
   573.84         41.9948
   573.98         41.9509
   574.12         41.9356
   574.26         41.9475
   574.40         41.9797
   574.54         42.0255
   574.68         42.0805
   574.82         42.1393
   574.96         42.1937
   575.10         42.2340
   575.24         42.2551
   575.38         42.2586
   575.52         42.2487
   575.66         42.2288
   575.80         42.2004
   575.94         42.1648
   576.08         42.1227
   576.22         42.0745
   576.36         42.0214
   576.50         41.9640
   576.64         41.8994
   576.78         41.8231
   576.92         41.7343
   577.06         41.6371
   577.20         41.5366
   577.34         41.4334
   577.48         41.3244
   577.62         41.2080
   577.76         41.0858
   577.90         40.9604
   578.04         40.8337
   578.18         40.7103
   578.32         40.5981
   578.46         40.5032
   578.60         40.4262
   578.74         40.3644
   578.88         40.3151
   579.02         40.2771
   579.16         40.2464
   579.30         40.2155
   579.44         40.1779
   579.58         40.1309
   579.72         40.0767
   579.86         40.0185
   580.00         39.9591
   580.14         39.9013
   580.28         39.8485
   580.42         39.8042
   580.56         39.7740
   580.70         39.7668
   580.84         39.7904
   580.98         39.8449
   581.12         39.9221
   581.26         40.0124
   581.40         40.1077
   581.54         40.1967
   581.68         40.2629
   581.82         40.2911
   581.96         40.2747
   582.10         40.2181
   582.24         40.1326
   582.38         40.0323
   582.52         39.9307
   582.66         39.8378
   582.80         39.7629
   582.94         39.7164
   583.08         39.7072
   583.22         39.7381
   583.36         39.8024
   583.50         39.8837
   583.64         39.9627
   583.78         40.0244
   583.92         40.0602
   584.06         40.0679
   584.20         40.0494
   584.34         40.0119
   584.48         39.9685
   584.62         39.9335
   584.76         39.9177
   584.90         39.9255
   585.04         39.9555
   585.18         40.0016
   585.32         40.0564
   585.46         40.1141
   585.60         40.1692
   585.74         40.2133
   585.88         40.2360
   586.02         40.2318
   586.16         40.2031
   586.30         40.1571
   586.44         40.1019
   586.58         40.0458
   586.72         39.9950
   586.86         39.9521
   587.00         39.9155
   587.14         39.8820
   587.28         39.8488
   587.42         39.8128
   587.56         39.7665
   587.70         39.6952
   587.84         39.5788
   587.98         39.3992
   588.12         39.1490
   588.26         38.8330
   588.40         38.4649
   588.54         38.0646
   588.68         37.6610
   588.82         37.2873
   588.96         36.9731
   589.10         36.7418
   589.24         36.6073
   589.38         36.5713
   589.52         36.6263
   589.66         36.7597
   589.80         36.9579
   589.94         37.2037
   590.08         37.4718
   590.22         37.7339
   590.36         37.9680
   590.50         38.1657
   590.64         38.3299
   590.78         38.4671
   590.92         38.5789
   591.06         38.6622
   591.20         38.7144
   591.34         38.7366
   591.48         38.7289
   591.62         38.6879
   591.76         38.6140
   591.90         38.5153
   592.04         38.4054
   592.18         38.2994
   592.32         38.2101
   592.46         38.1462
   592.60         38.1120
   592.74         38.1057
   592.88         38.1207
   593.02         38.1479
   593.16         38.1748
   593.30         38.1872
   593.44         38.1729
   593.58         38.1242
   593.72         38.0363
   593.86         37.9084
   594.00         37.7447
   594.14         37.5558
   594.28         37.3562
   594.42         37.1600
   594.56         36.9755
   594.70         36.8078
   594.84         36.6614
   594.98         36.5405
   595.12         36.4481
   595.26         36.3856
   595.40         36.3497
   595.54         36.3347
   595.68         36.3349
   595.82         36.3450
   595.96         36.3620
   596.10         36.3844
   596.24         36.4090
   596.38         36.4308
   596.52         36.4446
   596.66         36.4455
   596.80         36.4294
   596.94         36.3944
   597.08         36.3421
   597.22         36.2818
   597.36         36.2255
   597.50         36.1808
   597.64         36.1505
   597.78         36.1343
   597.92         36.1295
   598.06         36.1318
   598.20         36.1377
   598.34         36.1456
   598.48         36.1568
   598.62         36.1742
   598.76         36.1966
   598.90         36.2174
   599.04         36.2313
   599.18         36.2387
   599.32         36.2421
   599.46         36.2426
   599.60         36.2401
   599.74         36.2343
   599.88         36.2231
   600.02         36.2006
   600.16         36.1611
   600.30         36.1049
   600.44         36.0375
   600.58         35.9671
   600.72         35.9020
   600.86         35.8483
   601.00         35.8077
   601.14         35.7810
   601.28         35.7680
   601.42         35.7643
   601.56         35.7638
   601.70         35.7621
   601.84         35.7565
   601.98         35.7458
   602.12         35.7319
   602.26         35.7191
   602.40         35.7115
   602.54         35.7102
   602.68         35.7147
   602.82         35.7250
   602.96         35.7409
   603.10         35.7582
   603.24         35.7683
   603.38         35.7618
   603.52         35.7319
   603.66         35.6757
   603.80         35.5947
   603.94         35.4921
   604.08         35.3720
   604.22         35.2416
   604.36         35.1117
   604.50         34.9947
   604.64         34.9017
   604.78         34.8390
   604.92         34.8080
   605.06         34.8068
   605.20         34.8310
   605.34         34.8734
   605.48         34.9251
   605.62         34.9759
   605.76         35.0167
   605.90         35.0429
   606.04         35.0547
   606.18         35.0526
   606.32         35.0361
   606.46         35.0047
   606.60         34.9607
   606.74         34.9100
   606.88         34.8588
   607.02         34.8116
   607.16         34.7726
   607.30         34.7443
   607.44         34.7271
   607.58         34.7183
   607.72         34.7123
   607.86         34.7048
   608.00         34.6948
   608.14         34.6826
   608.28         34.6681
   608.42         34.6508
   608.56         34.6303
   608.70         34.6063
   608.84         34.5790
   608.98         34.5501
   609.12         34.5225
   609.26         34.4984
   609.40         34.4768
   609.54         34.4547
   609.68         34.4287
   609.82         34.3973
   609.96         34.3605
   610.10         34.3192
   610.24         34.2738
   610.38         34.2257
   610.52         34.1781
   610.66         34.1329
   610.80         34.0900
   610.94         34.0484
   611.08         34.0083
   611.22         33.9704
   611.36         33.9356
   611.50         33.9037
   611.64         33.8746
   611.78         33.8478
   611.92         33.8226
   612.06         33.8002
   612.20         33.7847
   612.34         33.7787
   612.48         33.7803
   612.62         33.7842
   612.76         33.7830
   612.90         33.7709
   613.04         33.7451
   613.18         33.7043
   613.32         33.6466
   613.46         33.5713
   613.60         33.4800
   613.74         33.3775
   613.88         33.2715
   614.02         33.1712
   614.16         33.0854
   614.30         33.0215
   614.44         32.9833
   614.58         32.9717
   614.72         32.9857
   614.86         33.0211
   615.00         33.0696
   615.14         33.1227
   615.28         33.1740
   615.42         33.2194
   615.56         33.2567
   615.70         33.2837
   615.84         33.2973
   615.98         33.2952
   616.12         33.2782
   616.26         33.2502
   616.40         33.2162
   616.54         33.1796
   616.68         33.1416
   616.82         33.1015
   616.96         33.0580
   617.10         33.0111
   617.24         32.9616
   617.38         32.9106
   617.52         32.8601
   617.66         32.8131
   617.80         32.7721
   617.94         32.7395
   618.08         32.7171
   618.22         32.7059
   618.36         32.7060
   618.50         32.7176
   618.64         32.7425
   618.78         32.7829
   618.92         32.8375
   619.06         32.9024
   619.20         32.9720
   619.34         33.0401
   619.48         33.0992
   619.62         33.1436
   619.76         33.1712
   619.90         33.1820
   620.04         33.1767
   620.18         33.1569
   620.32         33.1253
   620.46         33.0844
   620.60         33.0375
   620.74         32.9886
   620.88         32.9428
   621.02         32.9036
   621.16         32.8714
   621.30         32.8426
   621.44         32.8112
   621.58         32.7718
   621.72         32.7211
   621.86         32.6569
   622.00         32.5791
   622.14         32.4905
   622.28         32.3958
   622.42         32.3001
   622.56         32.2057
   622.70         32.1121
   622.84         32.0183
   622.98         31.9259
   623.12         31.8385
   623.26         31.7583
   623.40         31.6850
   623.54         31.6163
   623.68         31.5496
   623.82         31.4859
   623.96         31.4305
   624.10         31.3917
   624.24         31.3760
   624.38         31.3857
   624.52         31.4200
   624.66         31.4785
   624.80         31.5602
   624.94         31.6610
   625.08         31.7700
   625.22         31.8694
   625.36         31.9418
   625.50         31.9800
   625.64         31.9860
   625.78         31.9617
   625.92         31.9080
   626.06         31.8290
   626.20         31.7341
   626.34         31.6357
   626.48         31.5444
   626.62         31.4639
   626.76         31.3908
   626.90         31.3188
   627.04         31.2416
   627.18         31.1559
   627.32         31.0607
   627.46         30.9557
   627.60         30.8422
   627.74         30.7258
   627.88         30.6181
   628.02         30.5357
   628.16         30.4938
   628.30         30.4965
   628.44         30.5382
   628.58         30.6109
   628.72         30.7061
   628.86         30.8123
   629.00         30.9178
   629.14         31.0114
   629.28         31.0829
   629.42         31.1277
   629.56         31.1472
   629.70         31.1458
   629.84         31.1299
   629.98         31.1049
   630.12         31.0755
   630.26         31.0448
   630.40         31.0131
   630.54         30.9794
   630.68         30.9421
   630.82         30.9015
   630.96         30.8610
   631.10         30.8242
   631.24         30.7951
   631.38         30.7758
   631.52         30.7660
   631.66         30.7628
   631.80         30.7607
   631.94         30.7539
   632.08         30.7397
   632.22         30.7183
   632.36         30.6906
   632.50         30.6561
   632.64         30.6146
   632.78         30.5680
   632.92         30.5200
   633.06         30.4763
   633.20         30.4416
   633.34         30.4156
   633.48         30.3919
   633.62         30.3600
   633.76         30.3094
   633.90         30.2348
   634.04         30.1372
   634.18         30.0234
   634.32         29.9030
   634.46         29.7877
   634.60         29.6899
   634.74         29.6219
   634.88         29.5925
   635.02         29.6045
   635.16         29.6541
   635.30         29.7338
   635.44         29.8345
   635.58         29.9462
   635.72         30.0558
   635.86         30.1452
   636.00         30.1961
   636.14         30.1972
   636.28         30.1499
   636.42         30.0657
   636.56         29.9606
   636.70         29.8497
   636.84         29.7422
   636.98         29.6412
   637.12         29.5486
   637.26         29.4676
   637.40         29.4014
   637.54         29.3511
   637.68         29.3148
   637.82         29.2898
   637.96         29.2756
   638.10         29.2724
   638.24         29.2772
   638.38         29.2827
   638.52         29.2846
   638.66         29.2858
   638.80         29.2947
   638.94         29.3169
   639.08         29.3523
   639.22         29.3962
   639.36         29.4423
   639.50         29.4855
   639.64         29.5240
   639.78         29.5580
   639.92         29.5873
   640.06         29.6108
   640.20         29.6261
   640.34         29.6285
   640.48         29.6127
   640.62         29.5737
   640.76         29.5109
   640.90         29.4298
   641.04         29.3407
   641.18         29.2564
   641.32         29.1880
   641.46         29.1410
   641.60         29.1150
   641.74         29.1068
   641.88         29.1144
   642.02         29.1346
   642.16         29.1614
   642.30         29.1861
   642.44         29.2009
   642.58         29.2019
   642.72         29.1893
   642.86         29.1653
   643.00         29.1326
   643.14         29.0965
   643.28         29.0645
   643.42         29.0431
   643.56         29.0333
   643.70         29.0294
   643.84         29.0242
   643.98         29.0119
   644.12         28.9874
   644.26         28.9480
   644.40         28.8939
   644.54         28.8274
   644.68         28.7523
   644.82         28.6749
   644.96         28.6037
   645.10         28.5476
   645.24         28.5126
   645.38         28.4999
   645.52         28.5066
   645.66         28.5281
   645.80         28.5601
   645.94         28.5987
   646.08         28.6414
   646.22         28.6850
   646.36         28.7263
   646.50         28.7630
   646.64         28.7942
   646.78         28.8183
   646.92         28.8324
   647.06         28.8345
   647.20         28.8225
   647.34         28.7956
   647.48         28.7541
   647.62         28.7010
   647.76         28.6408
   647.90         28.5764
   648.04         28.5090
   648.18         28.4404
   648.32         28.3733
   648.46         28.3115
   648.60         28.2592
   648.74         28.2200
   648.88         28.1966
   649.02         28.1918
   649.16         28.2077
   649.30         28.2429
   649.44         28.2915
   649.58         28.3466
   649.72         28.4036
   649.86         28.4587
   650.00         28.5083
   650.14         28.5494
   650.28         28.5778
   650.42         28.5874
   650.56         28.5742
   650.70         28.5412
   650.84         28.4974
   650.98         28.4520
   651.12         28.4124
   651.26         28.3836
   651.40         28.3682
   651.54         28.3653
   651.68         28.3705
   651.82         28.3787
   651.96         28.3860
   652.10         28.3896
   652.24         28.3888
   652.38         28.3824
   652.52         28.3668
   652.66         28.3387
   652.80         28.2973
   652.94         28.2434
   653.08         28.1786
   653.22         28.1052
   653.36         28.0235
   653.50         27.9295
   653.64         27.8173
   653.78         27.6820
   653.92         27.5213
   654.06         27.3337
   654.20         27.1161
   654.34         26.8645
   654.48         26.5736
   654.62         26.2370
   654.76         25.8464
   654.90         25.3916
   655.04         24.8612
   655.18         24.2503
   655.32         23.5693
   655.46         22.8456
   655.60         22.1178
   655.74         21.4311
   655.88         20.8325
   656.02         20.3648
   656.16         20.0624
   656.30         19.9492
   656.44         20.0363
   656.58         20.3202
   656.72         20.7809
   656.86         21.3839
   657.00         22.0844
   657.14         22.8319
   657.28         23.5754
   657.42         24.2677
   657.56         24.8720
   657.70         25.3680
   657.84         25.7534
   657.98         26.0395
   658.12         26.2430
   658.26         26.3811
   658.40         26.4713
   658.54         26.5308
   658.68         26.5745
   658.82         26.6147
   658.96         26.6613
   659.10         26.7205
   659.24         26.7945
   659.38         26.8805
   659.52         26.9718
   659.66         27.0601
   659.80         27.1386
   659.94         27.2030
   660.08         27.2512
   660.22         27.2809
   660.36         27.2909
   660.50         27.2816
   660.64         27.2556
   660.78         27.2158
   660.92         27.1650
   661.06         27.1069
   661.20         27.0449
   661.34         26.9824
   661.48         26.9241
   661.62         26.8757
   661.76         26.8424
   661.90         26.8258
   662.04         26.8241
   662.18         26.8333
   662.32         26.8487
   662.46         26.8665
   662.60         26.8823
   662.74         26.8897
   662.88         26.8828
   663.02         26.8588
   663.16         26.8188
   663.30         26.7648
   663.44         26.6983
   663.58         26.6220
   663.72         26.5408
   663.86         26.4595
   664.00         26.3817
   664.14         26.3103
   664.28         26.2477
   664.42         26.1947
   664.56         26.1513
   664.70         26.1182
   664.84         26.0964
   664.98         26.0864
   665.12         26.0869
   665.26         26.0950
   665.40         26.1061
   665.54         26.1147
   665.68         26.1166
   665.82         26.1095
   665.96         26.0907
   666.10         26.0572
   666.24         26.0083
   666.38         25.9452
   666.52         25.8689
   666.66         25.7814
   666.80         25.6867
   666.94         25.5907
   667.08         25.4990
   667.22         25.4163
   667.36         25.3458
   667.50         25.2893
   667.64         25.2487
   667.78         25.2271
   667.92         25.2261
   668.06         25.2445
   668.20         25.2788
   668.34         25.3254
   668.48         25.3801
   668.62         25.4367
   668.76         25.4887
   668.90         25.5322
   669.04         25.5663
   669.18         25.5909
   669.32         25.6060
   669.46         25.6116
   669.60         25.6069
   669.74         25.5917
   669.88         25.5683
   670.02         25.5402
   670.16         25.5109
   670.30         25.4837
   670.44         25.4598
   670.58         25.4387
   670.72         25.4193
   670.86         25.4011
   671.00         25.3840
   671.14         25.3687
   671.28         25.3556
   671.42         25.3453
   671.56         25.3383
   671.70         25.3330
   671.84         25.3253
   671.98         25.3106
   672.12         25.2860
   672.26         25.2515
   672.40         25.2106
   672.54         25.1664
   672.68         25.1213
   672.82         25.0776
   672.96         25.0372
   673.10         25.0022
   673.24         24.9736
   673.38         24.9517
   673.52         24.9375
   673.66         24.9319
   673.80         24.9344
   673.94         24.9423
   674.08         24.9525
   674.22         24.9630
   674.36         24.9718
   674.50         24.9771
   674.64         24.9784
   674.78         24.9761
   674.92         24.9711
   675.06         24.9644
   675.20         24.9578
   675.34         24.9536
   675.48         24.9541
   675.62         24.9597
   675.76         24.9705
   675.90         24.9849
   676.04         25.0011
   676.18         25.0162
   676.32         25.0259
   676.46         25.0259
   676.60         25.0142
   676.74         24.9907
   676.88         24.9553
   677.02         24.9090
   677.16         24.8545
   677.30         24.7954
   677.44         24.7357
   677.58         24.6797
   677.72         24.6318
   677.86         24.5952
   678.00         24.5696
   678.14         24.5532
   678.28         24.5443
   678.42         24.5405
   678.56         24.5395
   678.70         24.5389
   678.84         24.5370
   678.98         24.5324
   679.12         24.5248
   679.26         24.5143
   679.40         24.5005
   679.54         24.4828
   679.68         24.4605
   679.82         24.4328
   679.96         24.3993
   680.10         24.3608
   680.24         24.3200
   680.38         24.2784
   680.52         24.2354
   680.66         24.1888
   680.80         24.1373
   680.94         24.0815
   681.08         24.0234
   681.22         23.9665
   681.36         23.9141
   681.50         23.8694
   681.64         23.8348
   681.78         23.8113
   681.92         23.7980
   682.06         23.7926
   682.20         23.7924
   682.34         23.7954
   682.48         23.8004
   682.62         23.8064
   682.76         23.8130
   682.90         23.8197
   683.04         23.8257
   683.18         23.8294
   683.32         23.8298
   683.46         23.8264
   683.60         23.8208
   683.74         23.8152
   683.88         23.8106
   684.02         23.8078
   684.16         23.8072
   684.30         23.8080
   684.44         23.8081
   684.58         23.8048
   684.72         23.7974
   684.86         23.7875
   685.00         23.7750
   685.14         23.7573
   685.28         23.7299
   685.42         23.6845
   685.56         23.6051
   685.70         23.4689
   685.84         23.2533
   685.98         22.9448
   686.12         22.5424
   686.26         22.0590
   686.40         21.5180
   686.54         20.9495
   686.68         20.3888
   686.82         19.8729
   686.96         19.4375
   687.10         19.1127
   687.24         18.9190
   687.38         18.8637
   687.52         18.9381
   687.66         19.1182
   687.80         19.3698
   687.94         19.6550
   688.08         19.9369
   688.22         20.1843
   688.36         20.3779
   688.50         20.5124
   688.64         20.5942
   688.78         20.6357
   688.92         20.6506
   689.06         20.6513
   689.20         20.6492
   689.34         20.6534
   689.48         20.6704
   689.62         20.7025
   689.76         20.7477
   689.90         20.8016
   690.04         20.8621
   690.18         20.9290
   690.32         21.0025
   690.46         21.0836
   690.60         21.1740
   690.74         21.2747
   690.88         21.3843
   691.02         21.4997
   691.16         21.6156
   691.30         21.7263
   691.44         21.8275
   691.58         21.9176
   691.72         21.9976
   691.86         22.0679
   692.00         22.1275
   692.14         22.1765
   692.28         22.2170
   692.42         22.2523
   692.56         22.2860
   692.70         22.3202
   692.84         22.3553
   692.98         22.3918
   693.12         22.4309
   693.26         22.4732
   693.40         22.5175
   693.54         22.5613
   693.68         22.6023
   693.82         22.6382
   693.96         22.6684
   694.10         22.6929
   694.24         22.7101
   694.38         22.7155
   694.52         22.7046
   694.66         22.6749
   694.80         22.6265
   694.94         22.5610
   695.08         22.4826
   695.22         22.3966
   695.36         22.3104
   695.50         22.2325
   695.64         22.1710
   695.78         22.1310
   695.92         22.1154
   696.06         22.1255
   696.20         22.1621
   696.34         22.2236
   696.48         22.3049
   696.62         22.3987
   696.76         22.4968
   696.90         22.5907
   697.04         22.6727
   697.18         22.7369
   697.32         22.7803
   697.46         22.8028
   697.60         22.8055
   697.74         22.7898
   697.88         22.7570
   698.02         22.7096
   698.16         22.6512
   698.30         22.5857
   698.44         22.5168
   698.58         22.4474
   698.72         22.3793
   698.86         22.3133
   699.00         22.2490
   699.14         22.1860
   699.28         22.1247
   699.42         22.0652
   699.56         22.0090
   699.70         21.9576
   699.84         21.9124
   699.98         21.8753
   700.12         21.8480
   700.26         21.8312
   700.40         21.8257
   700.54         21.8325
   700.68         21.8514
   700.82         21.8790
   700.96         21.9112
   701.10         21.9445
   701.24         21.9760
   701.38         22.0035
   701.52         22.0240
   701.66         22.0350
   701.80         22.0358
   701.94         22.0281
   702.08         22.0140
   702.22         21.9959
   702.36         21.9756
   702.50         21.9547
   702.64         21.9369
   702.78         21.9257
   702.92         21.9215
   703.06         21.9233
   703.20         21.9294
   703.34         21.9359
   703.48         21.9386
   703.62         21.9353
   703.76         21.9264
   703.90         21.9119
   704.04         21.8908
   704.18         21.8632
   704.32         21.8323
   704.46         21.8029
   704.60         21.7785
   704.74         21.7603
   704.88         21.7482
   705.02         21.7407
   705.16         21.7366
   705.30         21.7352
   705.44         21.7349
   705.58         21.7331
   705.72         21.7276
   705.86         21.7180
   706.00         21.7053
   706.14         21.6904
   706.28         21.6738
   706.42         21.6536
   706.56         21.6265
   706.70         21.5910
   706.84         21.5485
   706.98         21.5023
   707.12         21.4563
   707.26         21.4151
   707.40         21.3824
   707.54         21.3601
   707.68         21.3501
   707.82         21.3520
   707.96         21.3623
   708.10         21.3766
   708.24         21.3908
   708.38         21.4028
   708.52         21.4128
   708.66         21.4202
   708.80         21.4225
   708.94         21.4182
   709.08         21.4085
   709.22         21.3972
   709.36         21.3887
   709.50         21.3866
   709.64         21.3922
   709.78         21.4034
   709.92         21.4167
   710.06         21.4286
   710.20         21.4380
   710.34         21.4451
   710.48         21.4500
   710.62         21.4532
   710.76         21.4569
   710.90         21.4632
   711.04         21.4716
   711.18         21.4794
   711.32         21.4828
   711.46         21.4809
   711.60         21.4766
   711.74         21.4742
   711.88         21.4759
   712.02         21.4817
   712.16         21.4899
   712.30         21.4969
   712.44         21.4996
   712.58         21.4956
   712.72         21.4827
   712.86         21.4589
   713.00         21.4216
   713.14         21.3695
   713.28         21.3027
   713.42         21.2230
   713.56         21.1340
   713.70         21.0413
   713.84         20.9535
   713.98         20.8813
   714.12         20.8335
   714.26         20.8139
   714.40         20.8203
   714.54         20.8491
   714.68         20.8973
   714.82         20.9627
   714.96         21.0423
   715.10         21.1304
   715.24         21.2190
   715.38         21.2998
   715.52         21.3634
   715.66         21.3999
   715.80         21.4011
   715.94         21.3625
   716.08         21.2851
   716.22         21.1752
   716.36         21.0407
   716.50         20.8898
   716.64         20.7302
   716.78         20.5686
   716.92         20.4106
   717.06         20.2628
   717.20         20.1310
   717.34         20.0176
   717.48         19.9209
   717.62         19.8383
   717.76         19.7676
   717.90         19.7066
   718.04         19.6543
   718.18         19.6102
   718.32         19.5751
   718.46         19.5513
   718.60         19.5414
   718.74         19.5459
   718.88         19.5625
   719.02         19.5875
   719.16         19.6172
   719.30         19.6487
   719.44         19.6802
   719.58         19.7130
   719.72         19.7510
   719.86         19.7998
   720.00         19.8657
   720.14         19.9537
   720.28         20.0648
   720.42         20.1958
   720.56         20.3406
   720.70         20.4922
   720.84         20.6408
   720.98         20.7730
   721.12         20.8759
   721.26         20.9395
   721.40         20.9588
   721.54         20.9350
   721.68         20.8751
   721.82         20.7898
   721.96         20.6902
   722.10         20.5859
   722.24         20.4837
   722.38         20.3896
   722.52         20.3078
   722.66         20.2377
   722.80         20.1736
   722.94         20.1104
   723.08         20.0467
   723.22         19.9819
   723.36         19.9157
   723.50         19.8481
   723.64         19.7826
   723.78         19.7256
   723.92         19.6835
   724.06         19.6595
   724.20         19.6536
   724.34         19.6629
   724.48         19.6823
   724.62         19.7071
   724.76         19.7346
   724.90         19.7657
   725.04         19.8023
   725.18         19.8420
   725.32         19.8780
   725.46         19.9040
   725.60         19.9168
   725.74         19.9150
   725.88         19.8976
   726.02         19.8643
   726.16         19.8155
   726.30         19.7512
   726.44         19.6721
   726.58         19.5817
   726.72         19.4879
   726.86         19.3999
   727.00         19.3272
   727.14         19.2778
   727.28         19.2567
   727.42         19.2634
   727.56         19.2922
   727.70         19.3339
   727.84         19.3757
   727.98         19.4059
   728.12         19.4187
   728.26         19.4126
   728.40         19.3896
   728.54         19.3539
   728.68         19.3107
   728.82         19.2650
   728.96         19.2210
   729.10         19.1825
   729.24         19.1524
   729.38         19.1323
   729.52         19.1203
   729.66         19.1118
   729.80         19.1033
   729.94         19.0927
   730.08         19.0794
   730.22         19.0638
   730.36         19.0483
   730.50         19.0358
   730.64         19.0292
   730.78         19.0291
   730.92         19.0325
   731.06         19.0372
   731.20         19.0419
   731.34         19.0452
   731.48         19.0449
   731.62         19.0388
   731.76         19.0265
   731.90         19.0106
   732.04         18.9966
   732.18         18.9898
   732.32         18.9947
   732.46         19.0146
   732.60         19.0499
   732.74         19.0963
   732.88         19.1462
   733.02         19.1910
   733.16         19.2231
   733.30         19.2376
   733.44         19.2340
   733.58         19.2164
   733.72         19.1899
   733.86         19.1580
   734.00         19.1230
   734.14         19.0876
   734.28         19.0553
   734.42         19.0310
   734.56         19.0190
   734.70         19.0210
   734.84         19.0339
   734.98         19.0504
   735.12         19.0620
   735.26         19.0626
   735.40         19.0478
   735.54         19.0157
   735.68         18.9666
   735.82         18.9033
   735.96         18.8310
   736.10         18.7561
   736.24         18.6839
   736.38         18.6171
   736.52         18.5578
   736.66         18.5074
   736.80         18.4656
   736.94         18.4308
   737.08         18.3996
   737.22         18.3672
   737.36         18.3281
   737.50         18.2773
   737.64         18.2125
   737.78         18.1360
   737.92         18.0534
   738.06         17.9704
   738.20         17.8913
   738.34         17.8190
   738.48         17.7556
   738.62         17.7026
   738.76         17.6614
   738.90         17.6318
   739.04         17.6130
   739.18         17.6046
   739.32         17.6063
   739.46         17.6183
   739.60         17.6422
   739.74         17.6793
   739.88         17.7297
   740.02         17.7918
   740.16         17.8627
   740.30         17.9382
   740.44         18.0141
   740.58         18.0862
   740.72         18.1510
   740.86         18.2040
   741.00         18.2417
   741.14         18.2642
   741.28         18.2753
   741.42         18.2796
   741.56         18.2797
   741.70         18.2770
   741.84         18.2733
   741.98         18.2721
   742.12         18.2768
   742.26         18.2878
   742.40         18.3023
   742.54         18.3167
   742.68         18.3282
   742.82         18.3347
   742.96         18.3347
   743.10         18.3282
   743.24         18.3167
   743.38         18.3023
   743.52         18.2878
   743.66         18.2768
   743.80         18.2721
   743.94         18.2733
   744.08         18.2770
   744.22         18.2797
