# File HD31084
# Wavelength [nm]    Normalized Amplitude
   349.70         9.3892
   349.84         9.3572
   349.98         9.3495
   350.12         9.3603
   350.26         9.3836
   350.40         9.4150
   350.54         9.4513
   350.68         9.4901
   350.82         9.5269
   350.96         9.5540
   351.10         9.5640
   351.24         9.5540
   351.38         9.5269
   351.52         9.4901
   351.66         9.4513
   351.80         9.4150
   351.94         9.3836
   352.08         9.3603
   352.22         9.3495
   352.36         9.3572
   352.50         9.3892
   352.64         9.4499
   352.78         9.5409
   352.92         9.6606
   353.06         9.8027
   353.20         9.9540
   353.34         10.0983
   353.48         10.2226
   353.62         10.3204
   353.76         10.3904
   353.90         10.4342
   354.04         10.4550
   354.18         10.4550
   354.32         10.4348
   354.46         10.3976
   354.60         10.3486
   354.74         10.2923
   354.88         10.2326
   355.02         10.1724
   355.16         10.1125
   355.30         10.0501
   355.44         9.9800
   355.58         9.8951
   355.72         9.7890
   355.86         9.6572
   356.00         9.5012
   356.14         9.3278
   356.28         9.1448
   356.42         8.9604
   356.56         8.7817
   356.70         8.6148
   356.84         8.4644
   356.98         8.3352
   357.12         8.2277
   357.26         8.1364
   357.40         8.0536
   357.54         7.9742
   357.68         7.8952
   357.82         7.8175
   357.96         7.7479
   358.10         7.6975
   358.24         7.6788
   358.38         7.7033
   358.52         7.7813
   358.66         7.9189
   358.80         8.1148
   358.94         8.3591
   359.08         8.6330
   359.22         8.9115
   359.36         9.1696
   359.50         9.3869
   359.64         9.5478
   359.78         9.6422
   359.92         9.6678
   360.06         9.6316
   360.20         9.5476
   360.34         9.4343
   360.48         9.3090
   360.62         9.1833
   360.76         9.0639
   360.90         8.9568
   361.04         8.8693
   361.18         8.8084
   361.32         8.7791
   361.46         8.7856
   361.60         8.8303
   361.74         8.9092
   361.88         9.0119
   362.02         9.1253
   362.16         9.2349
   362.30         9.3273
   362.44         9.3943
   362.58         9.4334
   362.72         9.4475
   362.86         9.4430
   363.00         9.4273
   363.14         9.4052
   363.28         9.3818
   363.42         9.3641
   363.56         9.3580
   363.70         9.3664
   363.84         9.3893
   363.98         9.4265
   364.12         9.4768
   364.26         9.5369
   364.40         9.6042
   364.54         9.6812
   364.68         9.7760
   364.82         9.8983
   364.96         10.0536
   365.10         10.2415
   365.24         10.4544
   365.38         10.6790
   365.52         10.8976
   365.66         11.0896
   365.80         11.2360
   365.94         11.3256
   366.08         11.3568
   366.22         11.3374
   366.36         11.2818
   366.50         11.2059
   366.64         11.1238
   366.78         11.0466
   366.92         10.9821
   367.06         10.9350
   367.20         10.9051
   367.34         10.8858
   367.48         10.8662
   367.62         10.8354
   367.76         10.7875
   367.90         10.7239
   368.04         10.6497
   368.18         10.5720
   368.32         10.4988
   368.46         10.4405
   368.60         10.4096
   368.74         10.4165
   368.88         10.4664
   369.02         10.5582
   369.16         10.6836
   369.30         10.8270
   369.44         10.9688
   369.58         11.0898
   369.72         11.1742
   369.86         11.2121
   370.00         11.2022
   370.14         11.1544
   370.28         11.0869
   370.42         11.0204
   370.56         10.9705
   370.70         10.9434
   370.84         10.9352
   370.98         10.9353
   371.12         10.9332
   371.26         10.9229
   371.40         10.9011
   371.54         10.8655
   371.68         10.8148
   371.82         10.7480
   371.96         10.6651
   372.10         10.5679
   372.24         10.4575
   372.38         10.3360
   372.52         10.2078
   372.66         10.0800
   372.80         9.9608
   372.94         9.8566
   373.08         9.7694
   373.22         9.6954
   373.36         9.6279
   373.50         9.5615
   373.64         9.4946
   373.78         9.4297
   373.92         9.3734
   374.06         9.3335
   374.20         9.3171
   374.34         9.3300
   374.48         9.3720
   374.62         9.4357
   374.76         9.5121
   374.90         9.5979
   375.04         9.6978
   375.18         9.8187
   375.32         9.9627
   375.46         10.1230
   375.60         10.2854
   375.74         10.4313
   375.88         10.5443
   376.02         10.6178
   376.16         10.6571
   376.30         10.6773
   376.44         10.7000
   376.58         10.7485
   376.72         10.8412
   376.86         10.9866
   377.00         11.1850
   377.14         11.4293
   377.28         11.7082
   377.42         12.0076
   377.56         12.3090
   377.70         12.5898
   377.84         12.8270
   377.98         12.9999
   378.12         13.0914
   378.26         13.0914
   378.40         12.9989
   378.54         12.8208
   378.68         12.5720
   378.82         12.2743
   378.96         11.9551
   379.10         11.6458
   379.24         11.3781
   379.38         11.1797
   379.52         11.0697
   379.66         11.0568
   379.80         11.1393
   379.94         11.3038
   380.08         11.5277
   380.22         11.7841
   380.36         12.0467
   380.50         12.2912
   380.64         12.4939
   380.78         12.6335
   380.92         12.6943
   381.06         12.6692
   381.20         12.5598
   381.34         12.3744
   381.48         12.1260
   381.62         11.8292
   381.76         11.4982
   381.90         11.1449
   382.04         10.7780
   382.18         10.4029
   382.32         10.0248
   382.46         9.6492
   382.60         9.2813
   382.74         8.9293
   382.88         8.6063
   383.02         8.3307
   383.16         8.1229
   383.30         8.0007
   383.44         7.9763
   383.58         8.0544
   383.72         8.2321
   383.86         8.4988
   384.00         8.8377
   384.14         9.2289
   384.28         9.6502
   384.42         10.0755
   384.56         10.4770
   384.70         10.8281
   384.84         11.1093
   384.98         11.3137
   385.12         11.4461
   385.26         11.5196
   385.40         11.5523
   385.54         11.5633
   385.68         11.5680
   385.82         11.5741
   385.96         11.5816
   386.10         11.5876
   386.24         11.5900
   386.38         11.5885
   386.52         11.5832
   386.66         11.5715
   386.80         11.5486
   386.94         11.5085
   387.08         11.4479
   387.22         11.3665
   387.36         11.2657
   387.50         11.1486
   387.64         11.0196
   387.78         10.8834
   387.92         10.7446
   388.06         10.6099
   388.20         10.4884
   388.34         10.3908
   388.48         10.3295
   388.62         10.3176
   388.76         10.3662
   388.90         10.4799
   389.04         10.6542
   389.18         10.8752
   389.32         11.1248
   389.46         11.3858
   389.60         11.6455
   389.74         11.8943
   389.88         12.1245
   390.02         12.3314
   390.16         12.5148
   390.30         12.6786
   390.44         12.8278
   390.58         12.9646
   390.72         13.0872
   390.86         13.1893
   391.00         13.2619
   391.14         13.2968
   391.28         13.2862
   391.42         13.2202
   391.56         13.0869
   391.70         12.8731
   391.84         12.5670
   391.98         12.1621
   392.12         11.6583
   392.26         11.0635
   392.40         10.3952
   392.54         9.6827
   392.68         8.9667
   392.82         8.2941
   392.96         7.7111
   393.10         7.2570
   393.24         6.9615
   393.38         6.8453
   393.52         6.9175
   393.66         7.1736
   393.80         7.5951
   393.94         8.1488
   394.08         8.7906
   394.22         9.4728
   394.36         10.1502
   394.50         10.7849
   394.64         11.3487
   394.78         11.8216
   394.92         12.1899
   395.06         12.4442
   395.20         12.5770
   395.34         12.5798
   395.48         12.4428
   395.62         12.1592
   395.76         11.7329
   395.90         11.1850
   396.04         10.5535
   396.18         9.8883
   396.32         9.2467
   396.46         8.6880
   396.60         8.2679
   396.74         8.0314
   396.88         8.0077
   397.02         8.2062
   397.16         8.6152
   397.30         9.2034
   397.44         9.9246
   397.58         10.7233
   397.72         11.5427
   397.86         12.3312
   398.00         13.0478
   398.14         13.6654
   398.28         14.1719
   398.42         14.5694
   398.56         14.8706
   398.70         15.0961
   398.84         15.2690
   398.98         15.4109
   399.12         15.5375
   399.26         15.6560
   399.40         15.7659
   399.54         15.8645
   399.68         15.9500
   399.82         16.0228
   399.96         16.0859
   400.10         16.1428
   400.24         16.1963
   400.38         16.2484
   400.52         16.3009
   400.66         16.3554
   400.80         16.4126
   400.94         16.4738
   401.08         16.5403
   401.22         16.6142
   401.36         16.6969
   401.50         16.7863
   401.64         16.8748
   401.78         16.9506
   401.92         17.0012
   402.06         17.0191
   402.20         17.0044
   402.34         16.9634
   402.48         16.9062
   402.62         16.8446
   402.76         16.7892
   402.90         16.7473
   403.04         16.7209
   403.18         16.7061
   403.32         16.6959
   403.46         16.6826
   403.60         16.6602
   403.74         16.6264
   403.88         16.5819
   404.02         16.5288
   404.16         16.4674
   404.30         16.3962
   404.44         16.3149
   404.58         16.2278
   404.72         16.1445
   404.86         16.0757
   405.00         16.0267
   405.14         15.9945
   405.28         15.9706
   405.42         15.9445
   405.56         15.9086
   405.70         15.8603
   405.84         15.8022
   405.98         15.7422
   406.12         15.6916
   406.26         15.6591
   406.40         15.6453
   406.54         15.6441
   406.68         15.6473
   406.82         15.6510
   406.96         15.6567
   407.10         15.6679
   407.24         15.6881
   407.38         15.7207
   407.52         15.7686
   407.66         15.8343
   407.80         15.9201
   407.94         16.0284
   408.08         16.1574
   408.22         16.2989
   408.36         16.4373
   408.50         16.5508
   408.64         16.6163
   408.78         16.6115
   408.92         16.5169
   409.06         16.3241
   409.20         16.0434
   409.34         15.7013
   409.48         15.3320
   409.62         14.9694
   409.76         14.6441
   409.90         14.3859
   410.04         14.2215
   410.18         14.1691
   410.32         14.2344
   410.46         14.4091
   410.60         14.6719
   410.74         14.9928
   410.88         15.3389
   411.02         15.6787
   411.16         15.9859
   411.30         16.2431
   411.44         16.4413
   411.58         16.5820
   411.72         16.6753
   411.86         16.7343
   412.00         16.7679
   412.14         16.7801
   412.28         16.7744
   412.42         16.7574
   412.56         16.7387
   412.70         16.7279
   412.84         16.7318
   412.98         16.7506
   413.12         16.7802
   413.26         16.8171
   413.40         16.8616
   413.54         16.9143
   413.68         16.9730
   413.82         17.0334
   413.96         17.0902
   414.10         17.1367
   414.24         17.1657
   414.38         17.1711
   414.52         17.1495
   414.66         17.1027
   414.80         17.0382
   414.94         16.9690
   415.08         16.9093
   415.22         16.8708
   415.36         16.8591
   415.50         16.8720
   415.64         16.9041
   415.78         16.9504
   415.92         17.0043
   416.06         17.0556
   416.20         17.0907
   416.34         17.0981
   416.48         17.0717
   416.62         17.0109
   416.76         16.9187
   416.90         16.8022
   417.04         16.6727
   417.18         16.5439
   417.32         16.4303
   417.46         16.3427
   417.60         16.2865
   417.74         16.2621
   417.88         16.2659
   418.02         16.2923
   418.16         16.3352
   418.30         16.3887
   418.44         16.4439
   418.58         16.4885
   418.72         16.5119
   418.86         16.5081
   419.00         16.4764
   419.14         16.4197
   419.28         16.3445
   419.42         16.2603
   419.56         16.1785
   419.70         16.1107
   419.84         16.0684
   419.98         16.0610
   420.12         16.0939
   420.26         16.1674
   420.40         16.2769
   420.54         16.4146
   420.68         16.5702
   420.82         16.7316
   420.96         16.8858
   421.10         17.0183
   421.24         17.1136
   421.38         17.1568
   421.52         17.1389
   421.66         17.0612
   421.80         16.9359
   421.94         16.7815
   422.08         16.6163
   422.22         16.4549
   422.36         16.3083
   422.50         16.1852
   422.64         16.0912
   422.78         16.0298
   422.92         16.0022
   423.06         16.0090
   423.20         16.0505
   423.34         16.1220
   423.48         16.2121
   423.62         16.3041
   423.76         16.3797
   423.90         16.4271
   424.04         16.4464
   424.18         16.4475
   424.32         16.4439
   424.46         16.4443
   424.60         16.4492
   424.74         16.4521
   424.88         16.4465
   425.02         16.4316
   425.16         16.4138
   425.30         16.4028
   425.44         16.4065
   425.58         16.4268
   425.72         16.4590
   425.86         16.4926
   426.00         16.5137
   426.14         16.5112
   426.28         16.4813
   426.42         16.4281
   426.56         16.3612
   426.70         16.2901
   426.84         16.2207
   426.98         16.1566
   427.12         16.0998
   427.26         16.0512
   427.40         16.0113
   427.54         15.9812
   427.68         15.9601
   427.82         15.9428
   427.96         15.9204
   428.10         15.8829
   428.24         15.8227
   428.38         15.7354
   428.52         15.6190
   428.66         15.4736
   428.80         15.3003
   428.94         15.1010
   429.08         14.8774
   429.22         14.6315
   429.36         14.3649
   429.50         14.0794
   429.64         13.7795
   429.78         13.4731
   429.92         13.1730
   430.06         12.8968
   430.20         12.6666
   430.34         12.5083
   430.48         12.4490
   430.62         12.5101
   430.76         12.7003
   430.90         13.0112
   431.04         13.4188
   431.18         13.8858
   431.32         14.3694
   431.46         14.8309
   431.60         15.2427
   431.74         15.5881
   431.88         15.8584
   432.02         16.0511
   432.16         16.1723
   432.30         16.2351
   432.44         16.2542
   432.58         16.2396
   432.72         16.1934
   432.86         16.1123
   433.00         15.9934
   433.14         15.8370
   433.28         15.6462
   433.42         15.4294
   433.56         15.2012
   433.70         14.9811
   433.84         14.7913
   433.98         14.6545
   434.12         14.5910
   434.26         14.6159
   434.40         14.7324
   434.54         14.9326
   434.68         15.2008
   434.82         15.5152
   434.96         15.8501
   435.10         16.1807
   435.24         16.4892
   435.38         16.7668
   435.52         17.0132
   435.66         17.2337
   435.80         17.4328
   435.94         17.6097
   436.08         17.7583
   436.22         17.8689
   436.36         17.9331
   436.50         17.9488
   436.64         17.9200
   436.78         17.8560
   436.92         17.7663
   437.06         17.6545
   437.20         17.5188
   437.34         17.3575
   437.48         17.1745
   437.62         16.9787
   437.76         16.7810
   437.90         16.5914
   438.04         16.4198
   438.18         16.2755
   438.32         16.1678
   438.46         16.1052
   438.60         16.0924
   438.74         16.1287
   438.88         16.2094
   439.02         16.3263
   439.16         16.4664
   439.30         16.6124
   439.44         16.7464
   439.58         16.8537
   439.72         16.9267
   439.86         16.9682
   440.00         16.9913
   440.14         17.0097
   440.28         17.0316
   440.42         17.0610
   440.56         17.1027
   440.70         17.1628
   440.84         17.2466
   440.98         17.3544
   441.12         17.4805
   441.26         17.6156
   441.40         17.7495
   441.54         17.8746
   441.68         17.9863
   441.82         18.0822
   441.96         18.1608
   442.10         18.2199
   442.24         18.2554
   442.38         18.2652
   442.52         18.2514
   442.66         18.2197
   442.80         18.1759
   442.94         18.1255
   443.08         18.0745
   443.22         18.0297
   443.36         17.9966
   443.50         17.9770
   443.64         17.9693
   443.78         17.9721
   443.92         17.9849
   444.06         18.0049
   444.20         18.0255
   444.34         18.0365
   444.48         18.0267
   444.62         17.9862
   444.76         17.9100
   444.90         17.7998
   445.04         17.6650
   445.18         17.5192
   445.32         17.3750
   445.46         17.2422
   445.60         17.1294
   445.74         17.0468
   445.88         17.0058
   446.02         17.0150
   446.16         17.0781
   446.30         17.1930
   446.44         17.3539
   446.58         17.5502
   446.72         17.7642
   446.86         17.9744
   447.00         18.1628
   447.14         18.3186
   447.28         18.4377
   447.42         18.5208
   447.56         18.5702
   447.70         18.5890
   447.84         18.5817
   447.98         18.5537
   448.12         18.5114
   448.26         18.4619
   448.40         18.4125
   448.54         18.3713
   448.68         18.3457
   448.82         18.3395
   448.96         18.3544
   449.10         18.3920
   449.24         18.4530
   449.38         18.5363
   449.52         18.6403
   449.66         18.7635
   449.80         18.9020
   449.94         19.0474
   450.08         19.1875
   450.22         19.3094
   450.36         19.4039
   450.50         19.4660
   450.64         19.4921
   450.78         19.4811
   450.92         19.4354
   451.06         19.3597
   451.20         19.2601
   451.34         19.1412
   451.48         19.0052
   451.62         18.8533
   451.76         18.6878
   451.90         18.5099
   452.04         18.3206
   452.18         18.1239
   452.32         17.9293
   452.46         17.7506
   452.60         17.6024
   452.74         17.4978
   452.88         17.4455
   453.02         17.4481
   453.16         17.5023
   453.30         17.5981
   453.44         17.7210
   453.58         17.8526
   453.72         17.9740
   453.86         18.0692
   454.00         18.1274
   454.14         18.1442
   454.28         18.1227
   454.42         18.0724
   454.56         18.0066
   454.70         17.9412
   454.84         17.8934
   454.98         17.8758
   455.12         17.8931
   455.26         17.9433
   455.40         18.0201
   455.54         18.1154
   455.68         18.2214
   455.82         18.3306
   455.96         18.4363
   456.10         18.5336
   456.24         18.6201
   456.38         18.6956
   456.52         18.7609
   456.66         18.8166
   456.80         18.8614
   456.94         18.8916
   457.08         18.9018
   457.22         18.8870
   457.36         18.8450
   457.50         18.7769
   457.64         18.6854
   457.78         18.5767
   457.92         18.4601
   458.06         18.3453
   458.20         18.2405
   458.34         18.1527
   458.48         18.0870
   458.62         18.0459
   458.76         18.0286
   458.90         18.0309
   459.04         18.0461
   459.18         18.0669
   459.32         18.0881
   459.46         18.1077
   459.60         18.1262
   459.74         18.1460
   459.88         18.1719
   460.02         18.2078
   460.16         18.2540
   460.30         18.3065
   460.44         18.3605
   460.58         18.4125
   460.72         18.4613
   460.86         18.5081
   461.00         18.5533
   461.14         18.5962
   461.28         18.6358
   461.42         18.6716
   461.56         18.7034
   461.70         18.7327
   461.84         18.7624
   461.98         18.7945
   462.12         18.8272
   462.26         18.8544
   462.40         18.8684
   462.54         18.8621
   462.68         18.8316
   462.82         18.7773
   462.96         18.7030
   463.10         18.6136
   463.24         18.5136
   463.38         18.4064
   463.52         18.2952
   463.66         18.1828
   463.80         18.0741
   463.94         17.9746
   464.08         17.8888
   464.22         17.8195
   464.36         17.7676
   464.50         17.7333
   464.64         17.7168
   464.78         17.7190
   464.92         17.7399
   465.06         17.7779
   465.20         17.8308
   465.34         17.8931
   465.48         17.9545
   465.62         18.0035
   465.76         18.0330
   465.90         18.0419
   466.04         18.0334
   466.18         18.0136
   466.32         17.9913
   466.46         17.9764
   466.60         17.9758
   466.74         17.9919
   466.88         18.0241
   467.02         18.0711
   467.16         18.1322
   467.30         18.2050
   467.44         18.2840
   467.58         18.3602
   467.72         18.4241
   467.86         18.4680
   468.00         18.4874
   468.14         18.4831
   468.28         18.4620
   468.42         18.4326
   468.56         18.3984
   468.70         18.3598
   468.84         18.3154
   468.98         18.2637
   469.12         18.2036
   469.26         18.1352
   469.40         18.0599
   469.54         17.9817
   469.68         17.9063
   469.82         17.8388
   469.96         17.7815
   470.10         17.7353
   470.24         17.7006
   470.38         17.6794
   470.52         17.6759
   470.66         17.6945
   470.80         17.7368
   470.94         17.8004
   471.08         17.8791
   471.22         17.9654
   471.36         18.0531
   471.50         18.1365
   471.64         18.2104
   471.78         18.2692
   471.92         18.3071
   472.06         18.3216
   472.20         18.3149
   472.34         18.2922
   472.48         18.2597
   472.62         18.2242
   472.76         18.1932
   472.90         18.1750
   473.04         18.1752
   473.18         18.1961
   473.32         18.2360
   473.46         18.2917
   473.60         18.3586
   473.74         18.4313
   473.88         18.5038
   474.02         18.5690
   474.16         18.6191
   474.30         18.6476
   474.44         18.6505
   474.58         18.6287
   474.72         18.5881
   474.86         18.5347
   475.00         18.4715
   475.14         18.3998
   475.28         18.3216
   475.42         18.2409
   475.56         18.1624
   475.70         18.0921
   475.84         18.0359
   475.98         17.9979
   476.12         17.9784
   476.26         17.9752
   476.40         17.9863
   476.54         18.0119
   476.68         18.0522
   476.82         18.1058
   476.96         18.1709
   477.10         18.2446
   477.24         18.3214
   477.38         18.3941
   477.52         18.4534
   477.66         18.4906
   477.80         18.5016
   477.94         18.4887
   478.08         18.4575
   478.22         18.4146
   478.36         18.3651
   478.50         18.3132
   478.64         18.2634
   478.78         18.2205
   478.92         18.1879
   479.06         18.1681
   479.20         18.1609
   479.34         18.1619
   479.48         18.1652
   479.62         18.1658
   479.76         18.1611
   479.90         18.1522
   480.04         18.1429
   480.18         18.1395
   480.32         18.1489
   480.46         18.1778
   480.60         18.2294
   480.74         18.3017
   480.88         18.3880
   481.02         18.4786
   481.16         18.5625
   481.30         18.6292
   481.44         18.6699
   481.58         18.6782
   481.72         18.6516
   481.86         18.5913
   482.00         18.5016
   482.14         18.3910
   482.28         18.2719
   482.42         18.1578
   482.56         18.0574
   482.70         17.9741
   482.84         17.9083
   482.98         17.8593
   483.12         17.8246
   483.26         17.8006
   483.40         17.7829
   483.54         17.7666
   483.68         17.7468
   483.82         17.7211
   483.96         17.6871
   484.10         17.6412
   484.24         17.5773
   484.38         17.4891
   484.52         17.3710
   484.66         17.2167
   484.80         17.0172
   484.94         16.7653
   485.08         16.4596
   485.22         16.1091
   485.36         15.7348
   485.50         15.3666
   485.64         15.0352
   485.78         14.7658
   485.92         14.5743
   486.06         14.4688
   486.20         14.4514
   486.34         14.5187
   486.48         14.6621
   486.62         14.8681
   486.76         15.1207
   486.90         15.4024
   487.04         15.6960
   487.18         15.9866
   487.32         16.2600
   487.46         16.5045
   487.60         16.7145
   487.74         16.8890
   487.88         17.0283
   488.02         17.1334
   488.16         17.2078
   488.30         17.2575
   488.44         17.2907
   488.58         17.3177
   488.72         17.3508
   488.86         17.4008
   489.00         17.4746
   489.14         17.5737
   489.28         17.6951
   489.42         17.8319
   489.56         17.9732
   489.70         18.1063
   489.84         18.2180
   489.98         18.2968
   490.12         18.3378
   490.26         18.3439
   490.40         18.3226
   490.54         18.2822
   490.68         18.2298
   490.82         18.1686
   490.96         18.0988
   491.10         18.0204
   491.24         17.9345
   491.38         17.8444
   491.52         17.7575
   491.66         17.6839
   491.80         17.6333
   491.94         17.6133
   492.08         17.6262
   492.22         17.6682
   492.36         17.7316
   492.50         17.8082
   492.64         17.8894
   492.78         17.9650
   492.92         18.0247
   493.06         18.0610
   493.20         18.0708
   493.34         18.0551
   493.48         18.0201
   493.62         17.9776
   493.76         17.9404
   493.90         17.9181
   494.04         17.9185
   494.18         17.9456
   494.32         17.9966
   494.46         18.0612
   494.60         18.1251
   494.74         18.1756
   494.88         18.2074
   495.02         18.2219
   495.16         18.2232
   495.30         18.2168
   495.44         18.2077
   495.58         18.2010
   495.72         18.2005
   495.86         18.2078
   496.00         18.2236
   496.14         18.2491
   496.28         18.2855
   496.42         18.3312
   496.56         18.3811
   496.70         18.4262
   496.84         18.4561
   496.98         18.4610
   497.12         18.4313
   497.26         18.3608
   497.40         18.2511
   497.54         18.1102
   497.68         17.9490
   497.82         17.7798
   497.96         17.6145
   498.10         17.4631
   498.24         17.3360
   498.38         17.2445
   498.52         17.1968
   498.66         17.1949
   498.80         17.2327
   498.94         17.2964
   499.08         17.3651
   499.22         17.4157
   499.36         17.4301
   499.50         17.3993
   499.64         17.3228
   499.78         17.2080
   499.92         17.0699
   500.06         16.9265
   500.20         16.7926
   500.34         16.6767
   500.48         16.5838
   500.62         16.5154
   500.76         16.4703
   500.90         16.4467
   501.04         16.4414
   501.18         16.4482
   501.32         16.4605
   501.46         16.4726
   501.60         16.4806
   501.74         16.4849
   501.88         16.4926
   502.02         16.5151
   502.16         16.5625
   502.30         16.6397
   502.44         16.7440
   502.58         16.8647
   502.72         16.9864
   502.86         17.0917
   503.00         17.1651
   503.14         17.1979
   503.28         17.1895
   503.42         17.1464
   503.56         17.0802
   503.70         17.0025
   503.84         16.9233
   503.98         16.8515
   504.12         16.7953
   504.26         16.7616
   504.40         16.7572
   504.54         16.7864
   504.68         16.8487
   504.82         16.9385
   504.96         17.0471
   505.10         17.1634
   505.24         17.2766
   505.38         17.3779
   505.52         17.4625
   505.66         17.5303
   505.80         17.5840
   505.94         17.6246
   506.08         17.6503
   506.22         17.6573
   506.36         17.6422
   506.50         17.6049
   506.64         17.5482
   506.78         17.4751
   506.92         17.3879
   507.06         17.2912
   507.20         17.1914
   507.34         17.0952
   507.48         17.0104
   507.62         16.9451
   507.76         16.9054
   507.90         16.8947
   508.04         16.9153
   508.18         16.9684
   508.32         17.0514
   508.46         17.1565
   508.60         17.2717
   508.74         17.3820
   508.88         17.4719
   509.02         17.5302
   509.16         17.5526
   509.30         17.5400
   509.44         17.4968
   509.58         17.4311
   509.72         17.3528
   509.86         17.2718
   510.00         17.1984
   510.14         17.1424
   510.28         17.1115
   510.42         17.1101
   510.56         17.1395
   510.70         17.1974
   510.84         17.2767
   510.98         17.3652
   511.12         17.4492
   511.26         17.5175
   511.40         17.5639
   511.54         17.5870
   511.68         17.5879
   511.82         17.5672
   511.96         17.5240
   512.10         17.4596
   512.24         17.3784
   512.38         17.2881
   512.52         17.1975
   512.66         17.1148
   512.80         17.0449
   512.94         16.9896
   513.08         16.9472
   513.22         16.9132
   513.36         16.8824
   513.50         16.8511
   513.64         16.8181
   513.78         16.7853
   513.92         16.7558
   514.06         16.7314
   514.20         16.7126
   514.34         16.6988
   514.48         16.6901
   514.62         16.6884
   514.76         16.6959
   514.90         16.7126
   515.04         16.7358
   515.18         16.7604
   515.32         16.7788
   515.46         16.7794
   515.60         16.7492
   515.74         16.6786
   515.88         16.5637
   516.02         16.4041
   516.16         16.2040
   516.30         15.9758
   516.44         15.7389
   516.58         15.5153
   516.72         15.3262
   516.86         15.1892
   517.00         15.1131
   517.14         15.0948
   517.28         15.1225
   517.42         15.1826
   517.56         15.2637
   517.70         15.3553
   517.84         15.4474
   517.98         15.5299
   518.12         15.5964
   518.26         15.6470
   518.40         15.6876
   518.54         15.7252
   518.68         15.7667
   518.82         15.8210
   518.96         15.8953
   519.10         15.9900
   519.24         16.0973
   519.38         16.2055
   519.52         16.3022
   519.66         16.3776
   519.80         16.4293
   519.94         16.4662
   520.08         16.5010
   520.22         16.5402
   520.36         16.5814
   520.50         16.6182
   520.64         16.6464
   520.78         16.6660
   520.92         16.6793
   521.06         16.6896
   521.20         16.6981
   521.34         16.7022
   521.48         16.6961
   521.62         16.6754
   521.76         16.6396
   521.90         16.5911
   522.04         16.5329
   522.18         16.4676
   522.32         16.4001
   522.46         16.3380
   522.60         16.2889
   522.74         16.2570
   522.88         16.2448
   523.02         16.2558
   523.16         16.2941
   523.30         16.3606
   523.44         16.4501
   523.58         16.5525
   523.72         16.6557
   523.86         16.7481
   524.00         16.8218
   524.14         16.8749
   524.28         16.9103
   524.42         16.9322
   524.56         16.9428
   524.70         16.9441
   524.84         16.9386
   524.98         16.9275
   525.12         16.9083
   525.26         16.8749
   525.40         16.8211
   525.54         16.7431
   525.68         16.6386
   525.82         16.5055
   525.96         16.3459
   526.10         16.1683
   526.24         15.9852
   526.38         15.8102
   526.52         15.6579
   526.66         15.5426
   526.80         15.4751
   526.94         15.4599
   527.08         15.4952
   527.22         15.5747
   527.36         15.6899
   527.50         15.8313
   527.64         15.9887
   527.78         16.1537
   527.92         16.3206
   528.06         16.4858
   528.20         16.6459
   528.34         16.7954
   528.48         16.9276
   528.62         17.0362
   528.76         17.1169
   528.90         17.1671
   529.04         17.1877
   529.18         17.1833
   529.32         17.1589
   529.46         17.1190
   529.60         17.0687
   529.74         17.0165
   529.88         16.9731
   530.02         16.9477
   530.16         16.9453
   530.30         16.9653
   530.44         17.0021
   530.58         17.0490
   530.72         17.0992
   530.86         17.1461
   531.00         17.1823
   531.14         17.2010
   531.28         17.1978
   531.42         17.1703
   531.56         17.1158
   531.70         17.0331
   531.84         16.9248
   531.98         16.7975
   532.12         16.6610
   532.26         16.5275
   532.40         16.4095
   532.54         16.3164
   532.68         16.2533
   532.82         16.2206
   532.96         16.2153
   533.10         16.2339
   533.24         16.2739
   533.38         16.3306
   533.52         16.3949
   533.66         16.4556
   533.80         16.5039
   533.94         16.5366
   534.08         16.5551
   534.22         16.5647
   534.36         16.5747
   534.50         16.5951
   534.64         16.6317
   534.78         16.6846
   534.92         16.7496
   535.06         16.8190
   535.20         16.8844
   535.34         16.9388
   535.48         16.9768
   535.62         16.9946
   535.76         16.9883
   535.90         16.9553
   536.04         16.8974
   536.18         16.8222
   536.32         16.7418
   536.46         16.6693
   536.60         16.6151
   536.74         16.5843
   536.88         16.5775
   537.02         16.5924
   537.16         16.6236
   537.30         16.6643
   537.44         16.7090
   537.58         16.7544
   537.72         16.7983
   537.86         16.8386
   538.00         16.8722
   538.14         16.8954
   538.28         16.9057
   538.42         16.9027
   538.56         16.8894
   538.70         16.8699
   538.84         16.8460
   538.98         16.8160
   539.12         16.7749
   539.26         16.7172
   539.40         16.6397
   539.54         16.5438
   539.68         16.4337
   539.82         16.3155
   539.96         16.1969
   540.10         16.0859
   540.24         15.9891
   540.38         15.9114
   540.52         15.8572
   540.66         15.8304
   540.80         15.8321
   540.94         15.8593
   541.08         15.9064
   541.22         15.9677
   541.36         16.0382
   541.50         16.1126
   541.64         16.1837
   541.78         16.2439
   541.92         16.2892
   542.06         16.3202
   542.20         16.3387
   542.34         16.3466
   542.48         16.3474
   542.62         16.3463
   542.76         16.3484
   542.90         16.3564
   543.04         16.3719
   543.18         16.3939
   543.32         16.4173
   543.46         16.4347
   543.60         16.4419
   543.74         16.4397
   543.88         16.4306
   544.02         16.4161
   544.16         16.3956
   544.30         16.3674
   544.44         16.3326
   544.58         16.2963
   544.72         16.2649
   544.86         16.2438
   545.00         16.2369
   545.14         16.2457
   545.28         16.2686
   545.42         16.3023
   545.56         16.3422
   545.70         16.3838
   545.84         16.4229
   545.98         16.4570
   546.12         16.4855
   546.26         16.5085
   546.40         16.5233
   546.54         16.5243
   546.68         16.5076
   546.82         16.4725
   546.96         16.4215
   547.10         16.3599
   547.24         16.2947
   547.38         16.2336
   547.52         16.1826
   547.66         16.1447
   547.80         16.1222
   547.94         16.1182
   548.08         16.1346
   548.22         16.1696
   548.36         16.2183
   548.50         16.2734
   548.64         16.3272
   548.78         16.3734
   548.92         16.4073
   549.06         16.4263
   549.20         16.4302
   549.34         16.4215
   549.48         16.4038
   549.62         16.3807
   549.76         16.3566
   549.90         16.3362
   550.04         16.3226
   550.18         16.3161
   550.32         16.3163
   550.46         16.3243
   550.60         16.3406
   550.74         16.3633
   550.88         16.3890
   551.02         16.4150
   551.16         16.4398
   551.30         16.4628
   551.44         16.4816
   551.58         16.4920
   551.72         16.4900
   551.86         16.4751
   552.00         16.4502
   552.14         16.4202
   552.28         16.3901
   552.42         16.3641
   552.56         16.3447
   552.70         16.3338
   552.84         16.3336
   552.98         16.3460
   553.12         16.3698
   553.26         16.3995
   553.40         16.4281
   553.54         16.4499
   553.68         16.4620
   553.82         16.4635
   553.96         16.4562
   554.10         16.4431
   554.24         16.4278
   554.38         16.4141
   554.52         16.4053
   554.66         16.4027
   554.80         16.4053
   554.94         16.4102
   555.08         16.4140
   555.22         16.4129
   555.36         16.4038
   555.50         16.3840
   555.64         16.3509
   555.78         16.3023
   555.92         16.2382
   556.06         16.1619
   556.20         16.0785
   556.34         15.9941
   556.48         15.9145
   556.62         15.8446
   556.76         15.7874
   556.90         15.7452
   557.04         15.7202
   557.18         15.7135
   557.32         15.7243
   557.46         15.7492
   557.60         15.7810
   557.74         15.8108
   557.88         15.8310
   558.02         15.8371
   558.16         15.8276
   558.30         15.8020
   558.44         15.7618
   558.58         15.7110
   558.72         15.6555
   558.86         15.6011
   559.00         15.5529
   559.14         15.5151
   559.28         15.4910
   559.42         15.4840
   559.56         15.4961
   559.70         15.5264
   559.84         15.5710
   559.98         15.6258
   560.12         15.6856
   560.26         15.7447
   560.40         15.7974
   560.54         15.8393
   560.68         15.8676
   560.82         15.8802
   560.96         15.8753
   561.10         15.8538
   561.24         15.8186
   561.38         15.7728
   561.52         15.7202
   561.66         15.6666
   561.80         15.6193
   561.94         15.5855
   562.08         15.5701
   562.22         15.5730
   562.36         15.5896
   562.50         15.6130
   562.64         15.6365
   562.78         15.6544
   562.92         15.6625
   563.06         15.6583
   563.20         15.6432
   563.34         15.6213
   563.48         15.5975
   563.62         15.5761
   563.76         15.5608
   563.90         15.5530
   564.04         15.5524
   564.18         15.5580
   564.32         15.5683
   564.46         15.5802
   564.60         15.5885
   564.74         15.5875
   564.88         15.5727
   565.02         15.5429
   565.16         15.5005
   565.30         15.4497
   565.44         15.3943
   565.58         15.3372
   565.72         15.2824
   565.86         15.2349
   566.00         15.1990
   566.14         15.1769
   566.28         15.1681
   566.42         15.1704
   566.56         15.1816
   566.70         15.2006
   566.84         15.2264
   566.98         15.2571
   567.12         15.2894
   567.26         15.3198
   567.40         15.3467
   567.54         15.3692
   567.68         15.3862
   567.82         15.3957
   567.96         15.3965
   568.10         15.3898
   568.24         15.3784
   568.38         15.3648
   568.52         15.3504
   568.66         15.3359
   568.80         15.3222
   568.94         15.3111
   569.08         15.3056
   569.22         15.3079
   569.36         15.3178
   569.50         15.3315
   569.64         15.3435
   569.78         15.3476
   569.92         15.3388
   570.06         15.3138
   570.20         15.2718
   570.34         15.2155
   570.48         15.1509
   570.62         15.0853
   570.76         15.0268
   570.90         14.9827
   571.04         14.9600
   571.18         14.9638
   571.32         14.9958
   571.46         15.0549
   571.60         15.1375
   571.74         15.2374
   571.88         15.3453
   572.02         15.4503
   572.16         15.5440
   572.30         15.6216
   572.44         15.6801
   572.58         15.7185
   572.72         15.7386
   572.86         15.7449
   573.00         15.7418
   573.14         15.7316
   573.28         15.7175
   573.42         15.7031
   573.56         15.6901
   573.70         15.6773
   573.84         15.6628
   573.98         15.6455
   574.12         15.6250
   574.26         15.6012
   574.40         15.5741
   574.54         15.5453
   574.68         15.5193
   574.82         15.5012
   574.96         15.4928
   575.10         15.4923
   575.24         15.4978
   575.38         15.5097
   575.52         15.5296
   575.66         15.5581
   575.80         15.5950
   575.94         15.6379
   576.08         15.6819
   576.22         15.7203
   576.36         15.7476
   576.50         15.7619
   576.64         15.7632
   576.78         15.7521
   576.92         15.7295
   577.06         15.6978
   577.20         15.6585
   577.34         15.6114
   577.48         15.5546
   577.62         15.4885
   577.76         15.4177
   577.90         15.3494
   578.04         15.2890
   578.18         15.2394
   578.32         15.2018
   578.46         15.1763
   578.60         15.1633
   578.74         15.1631
   578.88         15.1759
   579.02         15.2009
   579.16         15.2359
   579.30         15.2758
   579.44         15.3138
   579.58         15.3439
   579.72         15.3626
   579.86         15.3695
   580.00         15.3664
   580.14         15.3568
   580.28         15.3448
   580.42         15.3332
   580.56         15.3242
   580.70         15.3213
   580.84         15.3295
   580.98         15.3514
   581.12         15.3861
   581.26         15.4304
   581.40         15.4806
   581.54         15.5316
   581.68         15.5786
   581.82         15.6172
   581.96         15.6441
   582.10         15.6576
   582.24         15.6590
   582.38         15.6521
   582.52         15.6411
   582.66         15.6289
   582.80         15.6181
   582.94         15.6118
   583.08         15.6139
   583.22         15.6273
   583.36         15.6522
   583.50         15.6844
   583.64         15.7173
   583.78         15.7449
   583.92         15.7632
   584.06         15.7687
   584.20         15.7589
   584.34         15.7324
   584.48         15.6884
   584.62         15.6273
   584.76         15.5533
   584.90         15.4730
   585.04         15.3929
   585.18         15.3177
   585.32         15.2515
   585.46         15.2003
   585.60         15.1700
   585.74         15.1625
   585.88         15.1763
   586.02         15.2089
   586.16         15.2587
   586.30         15.3241
   586.44         15.4027
   586.58         15.4897
   586.72         15.5782
   586.86         15.6613
   587.00         15.7327
   587.14         15.7871
   587.28         15.8215
   587.42         15.8350
   587.56         15.8242
   587.70         15.7822
   587.84         15.7043
   587.98         15.5916
   588.12         15.4490
   588.26         15.2807
   588.40         15.0907
   588.54         14.8884
   588.68         14.6885
   588.82         14.5063
   588.96         14.3553
   589.10         14.2468
   589.24         14.1884
   589.38         14.1835
   589.52         14.2315
   589.66         14.3269
   589.80         14.4594
   589.94         14.6155
   590.08         14.7791
   590.22         14.9332
   590.36         15.0661
   590.50         15.1753
   590.64         15.2635
   590.78         15.3321
   590.92         15.3825
   591.06         15.4187
   591.20         15.4461
   591.34         15.4684
   591.48         15.4854
   591.62         15.4946
   591.76         15.4928
   591.90         15.4771
   592.04         15.4469
   592.18         15.4050
   592.32         15.3563
   592.46         15.3067
   592.60         15.2620
   592.74         15.2269
   592.88         15.2051
   593.02         15.1990
   593.16         15.2080
   593.30         15.2268
   593.44         15.2470
   593.58         15.2605
   593.72         15.2612
   593.86         15.2455
   594.00         15.2115
   594.14         15.1611
   594.28         15.1005
   594.42         15.0384
   594.56         14.9831
   594.70         14.9414
   594.84         14.9178
   594.98         14.9130
   595.12         14.9245
   595.26         14.9486
   595.40         14.9815
   595.54         15.0200
   595.68         15.0599
   595.82         15.0969
   595.96         15.1269
   596.10         15.1475
   596.24         15.1574
   596.38         15.1554
   596.52         15.1411
   596.66         15.1163
   596.80         15.0844
   596.94         15.0473
   597.08         15.0052
   597.22         14.9593
   597.36         14.9125
   597.50         14.8678
   597.64         14.8282
   597.78         14.7965
   597.92         14.7747
   598.06         14.7631
   598.20         14.7606
   598.34         14.7642
   598.48         14.7712
   598.62         14.7791
   598.76         14.7856
   598.90         14.7885
   599.04         14.7859
   599.18         14.7767
   599.32         14.7597
   599.46         14.7329
   599.60         14.6953
   599.74         14.6487
   599.88         14.5973
   600.02         14.5452
   600.16         14.4942
   600.30         14.4461
   600.44         14.4036
   600.58         14.3688
   600.72         14.3426
   600.86         14.3240
   601.00         14.3112
   601.14         14.3037
   601.28         14.3019
   601.42         14.3064
   601.56         14.3173
   601.70         14.3339
   601.84         14.3551
   601.98         14.3816
   602.12         14.4149
   602.26         14.4553
   602.40         14.5015
   602.54         14.5500
   602.68         14.5959
   602.82         14.6348
   602.96         14.6640
   603.10         14.6810
   603.24         14.6831
   603.38         14.6697
   603.52         14.6433
   603.66         14.6097
   603.80         14.5754
   603.94         14.5452
   604.08         14.5215
   604.22         14.5050
   604.36         14.4959
   604.50         14.4935
   604.64         14.4976
   604.78         14.5071
   604.92         14.5198
   605.06         14.5345
   605.20         14.5504
   605.34         14.5671
   605.48         14.5838
   605.62         14.5998
   605.76         14.6154
   605.90         14.6314
   606.04         14.6481
   606.18         14.6648
   606.32         14.6788
   606.46         14.6856
   606.60         14.6806
   606.74         14.6619
   606.88         14.6292
   607.02         14.5842
   607.16         14.5302
   607.30         14.4718
   607.44         14.4131
   607.58         14.3571
   607.72         14.3055
   607.86         14.2595
   608.00         14.2209
   608.14         14.1915
   608.28         14.1726
   608.42         14.1633
   608.56         14.1612
   608.70         14.1619
   608.84         14.1598
   608.98         14.1500
   609.12         14.1308
   609.26         14.1037
   609.40         14.0707
   609.54         14.0350
   609.68         14.0008
   609.82         13.9725
   609.96         13.9533
   610.10         13.9446
   610.24         13.9469
   610.38         13.9596
   610.52         13.9820
   610.66         14.0120
   610.80         14.0451
   610.94         14.0756
   611.08         14.0979
   611.22         14.1088
   611.36         14.1073
   611.50         14.0941
   611.64         14.0728
   611.78         14.0480
   611.92         14.0242
   612.06         14.0040
   612.20         13.9881
   612.34         13.9741
   612.48         13.9585
   612.62         13.9393
   612.76         13.9168
   612.90         13.8917
   613.04         13.8653
   613.18         13.8390
   613.32         13.8135
   613.46         13.7892
   613.60         13.7677
   613.74         13.7517
   613.88         13.7443
   614.02         13.7462
   614.16         13.7562
   614.30         13.7726
   614.44         13.7929
   614.58         13.8131
   614.72         13.8281
   614.86         13.8328
   615.00         13.8244
   615.14         13.8040
   615.28         13.7752
   615.42         13.7403
   615.56         13.7001
   615.70         13.6548
   615.84         13.6055
   615.98         13.5545
   616.12         13.5061
   616.26         13.4665
   616.40         13.4415
   616.54         13.4348
   616.68         13.4481
   616.82         13.4812
   616.96         13.5323
   617.10         13.5976
   617.24         13.6717
   617.38         13.7471
   617.52         13.8163
   617.66         13.8735
   617.80         13.9147
   617.94         13.9367
   618.08         13.9380
   618.22         13.9199
   618.36         13.8883
   618.50         13.8519
   618.64         13.8204
   618.78         13.8019
   618.92         13.8016
   619.06         13.8218
   619.20         13.8608
   619.34         13.9149
   619.48         13.9789
   619.62         14.0472
   619.76         14.1142
   619.90         14.1742
   620.04         14.2216
   620.18         14.2522
   620.32         14.2640
   620.46         14.2573
   620.60         14.2332
   620.74         14.1945
   620.88         14.1456
   621.02         14.0921
   621.16         14.0394
   621.30         13.9917
   621.44         13.9511
   621.58         13.9194
   621.72         13.8965
   621.86         13.8810
   622.00         13.8711
   622.14         13.8657
   622.28         13.8632
   622.42         13.8613
   622.56         13.8570
   622.70         13.8479
   622.84         13.8337
   622.98         13.8161
   623.12         13.7968
   623.26         13.7764
   623.40         13.7553
   623.54         13.7341
   623.68         13.7141
   623.82         13.6962
   623.96         13.6802
   624.10         13.6648
   624.24         13.6490
   624.38         13.6323
   624.52         13.6157
   624.66         13.6021
   624.80         13.5943
   624.94         13.5935
   625.08         13.5981
   625.22         13.6031
   625.36         13.6028
   625.50         13.5951
   625.64         13.5809
   625.78         13.5624
   625.92         13.5417
   626.06         13.5219
   626.20         13.5073
   626.34         13.5018
   626.48         13.5068
   626.62         13.5195
   626.76         13.5350
   626.90         13.5488
   627.04         13.5577
   627.18         13.5607
   627.32         13.5581
   627.46         13.5506
   627.60         13.5392
   627.74         13.5245
   627.88         13.5089
   628.02         13.4982
   628.16         13.4994
   628.30         13.5169
   628.44         13.5501
   628.58         13.5950
   628.72         13.6462
   628.86         13.6968
   629.00         13.7392
   629.14         13.7665
   629.28         13.7750
   629.42         13.7658
   629.56         13.7434
   629.70         13.7140
   629.84         13.6841
   629.98         13.6584
   630.12         13.6398
   630.26         13.6287
   630.40         13.6239
   630.54         13.6234
   630.68         13.6247
   630.82         13.6245
   630.96         13.6186
   631.10         13.6037
   631.24         13.5789
   631.38         13.5465
   631.52         13.5117
   631.66         13.4812
   631.80         13.4607
   631.94         13.4543
   632.08         13.4629
   632.22         13.4850
   632.36         13.5171
   632.50         13.5547
   632.64         13.5923
   632.78         13.6248
   632.92         13.6477
   633.06         13.6578
   633.20         13.6542
   633.34         13.6392
   633.48         13.6169
   633.62         13.5924
   633.76         13.5702
   633.90         13.5538
   634.04         13.5450
   634.18         13.5430
   634.32         13.5446
   634.46         13.5455
   634.60         13.5417
   634.74         13.5305
   634.88         13.5114
   635.02         13.4854
   635.16         13.4545
   635.30         13.4207
   635.44         13.3865
   635.58         13.3536
   635.72         13.3239
   635.86         13.2995
   636.00         13.2827
   636.14         13.2743
   636.28         13.2746
   636.42         13.2832
   636.56         13.2993
   636.70         13.3211
   636.84         13.3463
   636.98         13.3728
   637.12         13.3994
   637.26         13.4261
   637.40         13.4530
   637.54         13.4796
   637.68         13.5042
   637.82         13.5241
   637.96         13.5371
   638.10         13.5416
   638.24         13.5369
   638.38         13.5240
   638.52         13.5044
   638.66         13.4792
   638.80         13.4497
   638.94         13.4178
   639.08         13.3853
   639.22         13.3535
   639.36         13.3228
   639.50         13.2931
   639.64         13.2641
   639.78         13.2353
   639.92         13.2064
   640.06         13.1772
   640.20         13.1476
   640.34         13.1177
   640.48         13.0875
   640.62         13.0574
   640.76         13.0286
   640.90         13.0033
   641.04         12.9844
   641.18         12.9738
   641.32         12.9729
   641.46         12.9831
   641.60         13.0039
   641.74         13.0324
   641.88         13.0650
   642.02         13.0977
   642.16         13.1278
   642.30         13.1535
   642.44         13.1742
   642.58         13.1895
   642.72         13.2000
   642.86         13.2070
   643.00         13.2126
   643.14         13.2197
   643.28         13.2305
   643.42         13.2457
   643.56         13.2650
   643.70         13.2867
   643.84         13.3082
   643.98         13.3272
   644.12         13.3417
   644.26         13.3495
   644.40         13.3486
   644.54         13.3388
   644.68         13.3217
   644.82         13.2992
   644.96         13.2725
   645.10         13.2424
   645.24         13.2105
   645.38         13.1798
   645.52         13.1533
   645.66         13.1329
   645.80         13.1181
   645.94         13.1074
   646.08         13.1001
   646.22         13.0961
   646.36         13.0953
   646.50         13.0986
   646.64         13.1061
   646.78         13.1163
   646.92         13.1279
   647.06         13.1407
   647.20         13.1559
   647.34         13.1731
   647.48         13.1905
   647.62         13.2065
   647.76         13.2199
   647.90         13.2290
   648.04         13.2294
   648.18         13.2153
   648.32         13.1825
   648.46         13.1311
   648.60         13.0655
   648.74         12.9927
   648.88         12.9199
   649.02         12.8551
   649.16         12.8060
   649.30         12.7794
   649.44         12.7798
   649.58         12.8094
   649.72         12.8670
   649.86         12.9469
   650.00         13.0403
   650.14         13.1374
   650.28         13.2287
   650.42         13.3058
   650.56         13.3622
   650.70         13.3953
   650.84         13.4085
   650.98         13.4088
   651.12         13.4036
   651.26         13.3990
   651.40         13.3989
   651.54         13.4053
   651.68         13.4186
   651.82         13.4372
   651.96         13.4573
   652.10         13.4745
   652.24         13.4856
   652.38         13.4883
   652.52         13.4817
   652.66         13.4664
   652.80         13.4444
   652.94         13.4181
   653.08         13.3904
   653.22         13.3637
   653.36         13.3389
   653.50         13.3161
   653.64         13.2935
   653.78         13.2682
   653.92         13.2369
   654.06         13.1962
   654.20         13.1429
   654.34         13.0747
   654.48         12.9896
   654.62         12.8850
   654.76         12.7561
   654.90         12.5963
   655.04         12.3996
   655.18         12.1668
   655.32         11.9077
   655.46         11.6385
   655.60         11.3782
   655.74         11.1465
   655.88         10.9618
   656.02         10.8396
   656.16         10.7904
   656.30         10.8183
   656.44         10.9206
   656.58         11.0877
   656.72         11.3040
   656.86         11.5505
   657.00         11.8064
   657.14         12.0522
   657.28         12.2712
   657.42         12.4523
   657.56         12.5928
   657.70         12.6982
   657.84         12.7777
   657.98         12.8384
   658.12         12.8836
   658.26         12.9152
   658.40         12.9347
   658.54         12.9444
   658.68         12.9466
   658.82         12.9442
   658.96         12.9400
   659.10         12.9373
   659.24         12.9389
   659.38         12.9472
   659.52         12.9628
   659.66         12.9853
   659.80         13.0127
   659.94         13.0419
   660.08         13.0698
   660.22         13.0936
   660.36         13.1115
   660.50         13.1229
   660.64         13.1286
   660.78         13.1309
   660.92         13.1327
   661.06         13.1365
   661.20         13.1435
   661.34         13.1539
   661.48         13.1663
   661.62         13.1787
   661.76         13.1889
   661.90         13.1932
   662.04         13.1879
   662.18         13.1698
   662.32         13.1385
   662.46         13.0957
   662.60         13.0453
   662.74         12.9917
   662.88         12.9394
   663.02         12.8914
   663.16         12.8489
   663.30         12.8116
   663.44         12.7794
   663.58         12.7514
   663.72         12.7265
   663.86         12.7031
   664.00         12.6800
   664.14         12.6566
   664.28         12.6329
   664.42         12.6092
   664.56         12.5872
   664.70         12.5697
   664.84         12.5598
   664.98         12.5588
   665.12         12.5659
   665.26         12.5788
   665.40         12.5951
   665.54         12.6128
   665.68         12.6297
   665.82         12.6449
   665.96         12.6592
   666.10         12.6737
   666.24         12.6886
   666.38         12.7023
   666.52         12.7136
   666.66         12.7221
   666.80         12.7279
   666.94         12.7314
   667.08         12.7320
   667.22         12.7286
   667.36         12.7196
   667.50         12.7038
   667.64         12.6810
   667.78         12.6538
   667.92         12.6264
   668.06         12.6026
   668.20         12.5843
   668.34         12.5721
   668.48         12.5654
   668.62         12.5631
   668.76         12.5632
   668.90         12.5628
   669.04         12.5595
   669.18         12.5517
   669.32         12.5380
   669.46         12.5180
   669.60         12.4922
   669.74         12.4619
   669.88         12.4291
   670.02         12.3965
   670.16         12.3663
   670.30         12.3401
   670.44         12.3187
   670.58         12.3021
   670.72         12.2895
   670.86         12.2800
   671.00         12.2732
   671.14         12.2695
   671.28         12.2694
   671.42         12.2734
   671.56         12.2821
   671.70         12.2955
   671.84         12.3125
   671.98         12.3322
   672.12         12.3541
   672.26         12.3774
   672.40         12.4006
   672.54         12.4218
   672.68         12.4398
   672.82         12.4539
   672.96         12.4639
   673.10         12.4697
   673.24         12.4720
   673.38         12.4717
   673.52         12.4692
   673.66         12.4647
   673.80         12.4585
   673.94         12.4506
   674.08         12.4411
   674.22         12.4305
   674.36         12.4197
   674.50         12.4099
   674.64         12.4036
   674.78         12.4021
   674.92         12.4048
   675.06         12.4098
   675.20         12.4153
   675.34         12.4197
   675.48         12.4216
   675.62         12.4192
   675.76         12.4115
   675.90         12.3984
   676.04         12.3805
   676.18         12.3587
   676.32         12.3348
   676.46         12.3112
   676.60         12.2905
   676.74         12.2753
   676.88         12.2672
   677.02         12.2660
   677.16         12.2693
   677.30         12.2731
   677.44         12.2736
   677.58         12.2692
   677.72         12.2611
   677.86         12.2516
   678.00         12.2430
   678.14         12.2368
   678.28         12.2337
   678.42         12.2348
   678.56         12.2410
   678.70         12.2531
   678.84         12.2709
   678.98         12.2930
   679.12         12.3173
   679.26         12.3409
   679.40         12.3604
   679.54         12.3727
   679.68         12.3758
   679.82         12.3697
   679.96         12.3563
   680.10         12.3393
   680.24         12.3223
   680.38         12.3078
   680.52         12.2969
   680.66         12.2893
   680.80         12.2842
   680.94         12.2808
   681.08         12.2787
   681.22         12.2768
   681.36         12.2741
   681.50         12.2689
   681.64         12.2595
   681.78         12.2443
   681.92         12.2225
   682.06         12.1948
   682.20         12.1628
   682.34         12.1284
   682.48         12.0926
   682.62         12.0562
   682.76         12.0203
   682.90         11.9858
   683.04         11.9533
   683.18         11.9240
   683.32         11.8996
   683.46         11.8817
   683.60         11.8718
   683.74         11.8704
   683.88         11.8774
   684.02         11.8917
   684.16         11.9121
   684.30         11.9358
   684.44         11.9597
   684.58         11.9808
   684.72         11.9972
   684.86         12.0072
   685.00         12.0102
   685.14         12.0063
   685.28         11.9965
   685.42         11.9796
   685.56         11.9503
   685.70         11.8995
   685.84         11.8175
   685.98         11.6961
   686.12         11.5312
   686.26         11.3240
   686.40         11.0806
   686.54         10.8117
   686.68         10.5324
   686.82         10.2603
   686.96         10.0136
   687.10         9.8109
   687.24         9.6687
   687.38         9.5979
   687.52         9.6011
   687.66         9.6722
   687.80         9.7982
   687.94         9.9606
   688.08         10.1384
   688.22         10.3116
   688.36         10.4653
   688.50         10.5911
   688.64         10.6862
   688.78         10.7521
   688.92         10.7922
   689.06         10.8110
   689.20         10.8146
   689.34         10.8104
   689.48         10.8051
   689.62         10.8048
   689.76         10.8134
   689.90         10.8321
   690.04         10.8603
   690.18         10.8952
   690.32         10.9334
   690.46         10.9723
   690.60         11.0105
   690.74         11.0464
   690.88         11.0790
   691.02         11.1074
   691.16         11.1311
   691.30         11.1501
   691.44         11.1655
   691.58         11.1789
   691.72         11.1920
   691.86         11.2060
   692.00         11.2217
   692.14         11.2391
   692.28         11.2578
   692.42         11.2777
   692.56         11.2987
   692.70         11.3205
   692.84         11.3425
   692.98         11.3648
   693.12         11.3885
   693.26         11.4135
   693.40         11.4393
   693.54         11.4653
   693.68         11.4907
   693.82         11.5137
   693.96         11.5328
   694.10         11.5474
   694.24         11.5574
   694.38         11.5624
   694.52         11.5625
   694.66         11.5587
   694.80         11.5526
   694.94         11.5461
   695.08         11.5409
   695.22         11.5389
   695.36         11.5418
   695.50         11.5515
   695.64         11.5693
   695.78         11.5949
   695.92         11.6269
   696.06         11.6631
   696.20         11.7012
   696.34         11.7373
   696.48         11.7667
   696.62         11.7856
   696.76         11.7914
   696.90         11.7832
   697.04         11.7631
   697.18         11.7350
   697.32         11.7041
   697.46         11.6762
   697.60         11.6562
   697.74         11.6473
   697.88         11.6512
   698.02         11.6667
   698.16         11.6908
   698.30         11.7191
   698.44         11.7462
   698.58         11.7677
   698.72         11.7797
   698.86         11.7796
   699.00         11.7661
   699.14         11.7396
   699.28         11.7024
   699.42         11.6586
   699.56         11.6133
   699.70         11.5723
   699.84         11.5398
   699.98         11.5187
   700.12         11.5093
   700.26         11.5098
   700.40         11.5161
   700.54         11.5246
   700.68         11.5327
   700.82         11.5386
   700.96         11.5407
   701.10         11.5377
   701.24         11.5287
   701.38         11.5142
   701.52         11.4957
   701.66         11.4750
   701.80         11.4536
   701.94         11.4329
   702.08         11.4132
   702.22         11.3942
   702.36         11.3755
   702.50         11.3560
   702.64         11.3349
   702.78         11.3122
   702.92         11.2889
   703.06         11.2676
   703.20         11.2520
   703.34         11.2449
   703.48         11.2476
   703.62         11.2601
   703.76         11.2815
   703.90         11.3103
   704.04         11.3437
   704.18         11.3781
   704.32         11.4096
   704.46         11.4347
   704.60         11.4505
   704.74         11.4554
   704.88         11.4505
   705.02         11.4390
   705.16         11.4240
   705.30         11.4081
   705.44         11.3930
   705.58         11.3792
   705.72         11.3668
   705.86         11.3556
   706.00         11.3459
   706.14         11.3385
   706.28         11.3335
   706.42         11.3300
   706.56         11.3277
   706.70         11.3268
   706.84         11.3277
   706.98         11.3312
   707.12         11.3380
   707.26         11.3486
   707.40         11.3626
   707.54         11.3788
   707.68         11.3951
   707.82         11.4088
   707.96         11.4178
   708.10         11.4212
   708.24         11.4192
   708.38         11.4136
   708.52         11.4070
   708.66         11.4014
   708.80         11.3975
   708.94         11.3954
   709.08         11.3957
   709.22         11.3990
   709.36         11.4056
   709.50         11.4155
   709.64         11.4273
   709.78         11.4383
   709.92         11.4449
   710.06         11.4450
   710.20         11.4391
   710.34         11.4286
   710.48         11.4154
   710.62         11.4018
   710.76         11.3892
   710.90         11.3783
   711.04         11.3700
   711.18         11.3643
   711.32         11.3597
   711.46         11.3548
   711.60         11.3490
   711.74         11.3423
   711.88         11.3357
   712.02         11.3302
   712.16         11.3264
   712.30         11.3247
   712.44         11.3257
   712.58         11.3301
   712.72         11.3384
   712.86         11.3501
   713.00         11.3625
   713.14         11.3715
   713.28         11.3728
   713.42         11.3632
   713.56         11.3424
   713.70         11.3123
   713.84         11.2762
   713.98         11.2383
   714.12         11.2040
   714.26         11.1783
   714.40         11.1651
   714.54         11.1662
   714.68         11.1816
   714.82         11.2090
   714.96         11.2438
   715.10         11.2787
   715.24         11.3059
   715.38         11.3200
   715.52         11.3180
   715.66         11.2986
   715.80         11.2619
   715.94         11.2104
   716.08         11.1490
   716.22         11.0839
   716.36         11.0205
   716.50         10.9621
   716.64         10.9105
   716.78         10.8668
   716.92         10.8313
   717.06         10.8033
   717.20         10.7791
   717.34         10.7528
   717.48         10.7186
   717.62         10.6734
   717.76         10.6181
   717.90         10.5556
   718.04         10.4896
   718.18         10.4245
   718.32         10.3655
   718.46         10.3181
   718.60         10.2880
   718.74         10.2792
   718.88         10.2930
   719.02         10.3279
   719.16         10.3805
   719.30         10.4451
   719.44         10.5151
   719.58         10.5854
   719.72         10.6522
   719.86         10.7135
   720.00         10.7701
   720.14         10.8251
   720.28         10.8814
   720.42         10.9403
   720.56         11.0020
   720.70         11.0665
   720.84         11.1339
   720.98         11.2021
   721.12         11.2668
   721.26         11.3233
   721.40         11.3671
   721.54         11.3955
   721.68         11.4079
   721.82         11.4047
   721.96         11.3870
   722.10         11.3556
   722.24         11.3122
   722.38         11.2589
   722.52         11.1982
   722.66         11.1323
   722.80         11.0633
   722.94         10.9946
   723.08         10.9301
   723.22         10.8735
   723.36         10.8269
   723.50         10.7918
   723.64         10.7683
   723.78         10.7554
   723.92         10.7516
   724.06         10.7539
   724.20         10.7586
   724.34         10.7631
   724.48         10.7665
   724.62         10.7691
   724.76         10.7724
   724.90         10.7787
   725.04         10.7897
   725.18         10.8047
   725.32         10.8216
   725.46         10.8387
   725.60         10.8549
   725.74         10.8687
   725.88         10.8771
   726.02         10.8768
   726.16         10.8648
   726.30         10.8387
   726.44         10.7985
   726.58         10.7474
   726.72         10.6907
   726.86         10.6346
   727.00         10.5847
   727.14         10.5465
   727.28         10.5231
   727.42         10.5135
   727.56         10.5137
   727.70         10.5190
   727.84         10.5243
   727.98         10.5251
   728.12         10.5188
   728.26         10.5040
   728.40         10.4811
   728.54         10.4530
   728.68         10.4235
   728.82         10.3965
   728.96         10.3762
   729.10         10.3667
   729.24         10.3698
   729.38         10.3850
   729.52         10.4104
   729.66         10.4432
   729.80         10.4806
   729.94         10.5187
   730.08         10.5531
   730.22         10.5815
   730.36         10.6030
   730.50         10.6173
   730.64         10.6249
   730.78         10.6266
   730.92         10.6227
   731.06         10.6134
   731.20         10.5980
   731.34         10.5753
   731.48         10.5452
   731.62         10.5097
   731.76         10.4713
   731.90         10.4330
   732.04         10.3988
   732.18         10.3728
   732.32         10.3583
   732.46         10.3571
   732.60         10.3698
   732.74         10.3954
   732.88         10.4313
   733.02         10.4733
   733.16         10.5166
   733.30         10.5578
   733.44         10.5938
   733.58         10.6226
   733.72         10.6420
   733.86         10.6505
   734.00         10.6490
   734.14         10.6398
   734.28         10.6255
   734.42         10.6079
   734.56         10.5891
   734.70         10.5719
   734.84         10.5585
   734.98         10.5502
   735.12         10.5474
   735.26         10.5494
   735.40         10.5553
   735.54         10.5640
   735.68         10.5750
   735.82         10.5880
   735.96         10.6017
   736.10         10.6149
   736.24         10.6258
   736.38         10.6318
   736.52         10.6312
   736.66         10.6233
   736.80         10.6068
   736.94         10.5809
   737.08         10.5459
   737.22         10.5031
   737.36         10.4540
   737.50         10.3993
   737.64         10.3400
   737.78         10.2781
   737.92         10.2160
   738.06         10.1575
   738.20         10.1053
   738.34         10.0609
   738.48         10.0246
   738.62         9.9974
   738.76         9.9807
   738.90         9.9754
   739.04         9.9813
   739.18         9.9970
   739.32         10.0197
   739.46         10.0460
   739.60         10.0718
   739.74         10.0928
   739.88         10.1049
   740.02         10.1059
   740.16         10.0957
   740.30         10.0756
   740.44         10.0484
   740.58         10.0183
   740.72         9.9893
   740.86         9.9639
   741.00         9.9443
   741.14         9.9322
   741.28         9.9286
   741.42         9.9344
   741.56         9.9485
   741.70         9.9696
   741.84         9.9960
   741.98         10.0265
   742.12         10.0588
   742.26         10.0899
   742.40         10.1173
   742.54         10.1390
   742.68         10.1541
   742.82         10.1619
   742.96         10.1619
   743.10         10.1541
   743.24         10.1390
   743.38         10.1173
   743.52         10.0899
   743.66         10.0588
   743.80         10.0265
   743.94         9.9960
   744.08         9.9696
   744.22         9.9485
