# File HD33278
# Wavelength [nm]    Normalized Amplitude
   349.70         10.8492
   349.84         10.7042
   349.98         10.6583
   350.12         10.6944
   350.26         10.7833
   350.40         10.8963
   350.54         11.0154
   350.68         11.1293
   350.82         11.2286
   350.96         11.3002
   351.10         11.3268
   351.24         11.3002
   351.38         11.2286
   351.52         11.1293
   351.66         11.0154
   351.80         10.8963
   351.94         10.7833
   352.08         10.6944
   352.22         10.6583
   352.36         10.7042
   352.50         10.8492
   352.64         11.0966
   352.78         11.4379
   352.92         11.8588
   353.06         12.3439
   353.20         12.8655
   353.34         13.3724
   353.48         13.8060
   353.62         14.1216
   353.76         14.3025
   353.90         14.3549
   354.04         14.2938
   354.18         14.1357
   354.32         13.8977
   354.46         13.5998
   354.60         13.2621
   354.74         12.9013
   354.88         12.5331
   355.02         12.1714
   355.16         11.8232
   355.30         11.4888
   355.44         11.1629
   355.58         10.8451
   355.72         10.5380
   355.86         10.2354
   356.00         9.9357
   356.14         9.6535
   356.28         9.4089
   356.42         9.2093
   356.56         9.0454
   356.70         8.9019
   356.84         8.7624
   356.98         8.6085
   357.12         8.4218
   357.26         8.1905
   357.40         7.9097
   357.54         7.5824
   357.68         7.2211
   357.82         6.8484
   357.96         6.4966
   358.10         6.2071
   358.24         6.0288
   358.38         6.0066
   358.52         6.1742
   358.66         6.5545
   358.80         7.1518
   358.94         7.9427
   359.08         8.8759
   359.22         9.8863
   359.36         10.9041
   359.50         11.8560
   359.64         12.6718
   359.78         13.3014
   359.92         13.7243
   360.06         13.9448
   360.20         13.9844
   360.34         13.8830
   360.48         13.6928
   360.62         13.4599
   360.76         13.2181
   360.90         12.9954
   361.04         12.8171
   361.18         12.7034
   361.32         12.6709
   361.46         12.7338
   361.60         12.8995
   361.74         13.1614
   361.88         13.4977
   362.02         13.8716
   362.16         14.2391
   362.30         14.5615
   362.44         14.8182
   362.58         15.0062
   362.72         15.1315
   362.86         15.2041
   363.00         15.2405
   363.14         15.2607
   363.28         15.2810
   363.42         15.3163
   363.56         15.3809
   363.70         15.4822
   363.84         15.6150
   363.98         15.7709
   364.12         15.9404
   364.26         16.1088
   364.40         16.2615
   364.54         16.3930
   364.68         16.5120
   364.82         16.6445
   364.96         16.8246
   365.10         17.0776
   365.24         17.4102
   365.38         17.8122
   365.52         18.2572
   365.66         18.7016
   365.80         19.0944
   365.94         19.3899
   366.08         19.5588
   366.22         19.5979
   366.36         19.5325
   366.50         19.4040
   366.64         19.2516
   366.78         19.0985
   366.92         18.9563
   367.06         18.8328
   367.20         18.7324
   367.34         18.6530
   367.48         18.5797
   367.62         18.4842
   367.76         18.3391
   367.90         18.1376
   368.04         17.8945
   368.18         17.6326
   368.32         17.3756
   368.46         17.1525
   368.60         16.9972
   368.74         16.9414
   368.88         17.0073
   369.02         17.1990
   369.16         17.4936
   369.30         17.8455
   369.44         18.1994
   369.58         18.5022
   369.72         18.7061
   369.86         18.7746
   370.00         18.6917
   370.14         18.4708
   370.28         18.1574
   370.42         17.8169
   370.56         17.5097
   370.70         17.2680
   370.84         17.0859
   370.98         16.9347
   371.12         16.7883
   371.26         16.6348
   371.40         16.4682
   371.54         16.2779
   371.68         16.0477
   371.82         15.7625
   371.96         15.4146
   372.10         15.0061
   372.24         14.5479
   372.38         14.0550
   372.52         13.5464
   372.66         13.0476
   372.80         12.5830
   372.94         12.1679
   373.08         11.8062
   373.22         11.4899
   373.36         11.2036
   373.50         10.9375
   373.64         10.6970
   373.78         10.4966
   373.92         10.3458
   374.06         10.2513
   374.20         10.2258
   374.34         10.2856
   374.48         10.4397
   374.62         10.6803
   374.76         10.9867
   374.90         11.3379
   375.04         11.7180
   375.18         12.1134
   375.32         12.5087
   375.46         12.8822
   375.60         13.2070
   375.74         13.4633
   375.88         13.6489
   376.02         13.7806
   376.16         13.8919
   376.30         14.0250
   376.44         14.2192
   376.58         14.5046
   376.72         14.9008
   376.86         15.4056
   377.00         15.9893
   377.14         16.6050
   377.28         17.2025
   377.42         17.7361
   377.56         18.1640
   377.70         18.4457
   377.84         18.5519
   377.98         18.4738
   378.12         18.2197
   378.26         17.8092
   378.40         17.2719
   378.54         16.6414
   378.68         15.9481
   378.82         15.2239
   378.96         14.5084
   379.10         13.8480
   379.24         13.2946
   379.38         12.8944
   379.52         12.6732
   379.66         12.6315
   379.80         12.7473
   379.94         12.9789
   380.08         13.2726
   380.22         13.5727
   380.36         13.8293
   380.50         14.0043
   380.64         14.0689
   380.78         13.9992
   380.92         13.7781
   381.06         13.4046
   381.20         12.8952
   381.34         12.2775
   381.48         11.5859
   381.62         10.8621
   381.76         10.1497
   381.90         9.4846
   382.04         8.8884
   382.18         8.3709
   382.32         7.9385
   382.46         7.5988
   382.60         7.3540
   382.74         7.1973
   382.88         7.1147
   383.02         7.0939
   383.16         7.1264
   383.30         7.2034
   383.44         7.3144
   383.58         7.4519
   383.72         7.6143
   383.86         7.8015
   384.00         8.0104
   384.14         8.2349
   384.28         8.4702
   384.42         8.7110
   384.56         8.9462
   384.70         9.1579
   384.84         9.3260
   384.98         9.4376
   385.12         9.4903
   385.26         9.4860
   385.40         9.4285
   385.54         9.3275
   385.68         9.1967
   385.82         9.0484
   385.96         8.8940
   386.10         8.7465
   386.24         8.6206
   386.38         8.5316
   386.52         8.4902
   386.66         8.4978
   386.80         8.5480
   386.94         8.6337
   387.08         8.7495
   387.22         8.8904
   387.36         9.0535
   387.50         9.2401
   387.64         9.4575
   387.78         9.7158
   387.92         10.0244
   388.06         10.3953
   388.20         10.8419
   388.34         11.3738
   388.48         11.9918
   388.62         12.6878
   388.76         13.4455
   388.90         14.2401
   389.04         15.0384
   389.18         15.8003
   389.32         16.4856
   389.46         17.0641
   389.60         17.5193
   389.74         17.8483
   389.88         18.0622
   390.02         18.1830
   390.16         18.2422
   390.30         18.2763
   390.44         18.3165
   390.58         18.3814
   390.72         18.4711
   390.86         18.5638
   391.00         18.6233
   391.14         18.6118
   391.28         18.4991
   391.42         18.2647
   391.56         17.8946
   391.70         17.3773
   391.84         16.7052
   391.98         15.8812
   392.12         14.9231
   392.26         13.8640
   392.40         12.7515
   392.54         11.6402
   392.68         10.5850
   392.82         9.6363
   392.96         8.8368
   393.10         8.2189
   393.24         7.8074
   393.38         7.6206
   393.52         7.6690
   393.66         7.9554
   393.80         8.4729
   393.94         9.1981
   394.08         10.0892
   394.22         11.0933
   394.36         12.1545
   394.50         13.2206
   394.64         14.2459
   394.78         15.1897
   394.92         16.0113
   395.06         16.6681
   395.20         17.1181
   395.34         17.3247
   395.48         17.2622
   395.62         16.9202
   395.76         16.3097
   395.90         15.4678
   396.04         14.4573
   396.18         13.3633
   396.32         12.2855
   396.46         11.3274
   396.60         10.5862
   396.74         10.1442
   396.88         10.0604
   397.02         10.3616
   397.16         11.0396
   397.30         12.0540
   397.44         13.3392
   397.58         14.8134
   397.72         16.3894
   397.86         17.9824
   398.00         19.5169
   398.14         20.9332
   398.28         22.1914
   398.42         23.2714
   398.56         24.1700
   398.70         24.9012
   398.84         25.4952
   398.98         25.9898
   399.12         26.4226
   399.26         26.8234
   399.40         27.2071
   399.54         27.5761
   399.68         27.9291
   399.82         28.2667
   399.96         28.5897
   400.10         28.8973
   400.24         29.1867
   400.38         29.4542
   400.52         29.6987
   400.66         29.9210
   400.80         30.1219
   400.94         30.3015
   401.08         30.4613
   401.22         30.6068
   401.36         30.7475
   401.50         30.8928
   401.64         31.0443
   401.78         31.1877
   401.92         31.2913
   402.06         31.3189
   402.20         31.2466
   402.34         31.0723
   402.48         30.8172
   402.62         30.5177
   402.76         30.2140
   402.90         29.9440
   403.04         29.7342
   403.18         29.5885
   403.32         29.4860
   403.46         29.3967
   403.60         29.3036
   403.74         29.2066
   403.88         29.1131
   404.02         29.0313
   404.16         28.9606
   404.30         28.8874
   404.44         28.7912
   404.58         28.6583
   404.72         28.4956
   404.86         28.3242
   405.00         28.1647
   405.14         28.0220
   405.28         27.8820
   405.42         27.7227
   405.56         27.5279
   405.70         27.2945
   405.84         27.0301
   405.98         26.7559
   406.12         26.5106
   406.26         26.3359
   406.40         26.2494
   406.54         26.2404
   406.68         26.2886
   406.82         26.3774
   406.96         26.5043
   407.10         26.6778
   407.24         26.9083
   407.38         27.2067
   407.52         27.5825
   407.66         28.0434
   407.80         28.5960
   407.94         29.2424
   408.08         29.9710
   408.22         30.7478
   408.36         31.5162
   408.50         32.2073
   408.64         32.7577
   408.78         33.1197
   408.92         33.2573
   409.06         33.1531
   409.20         32.8233
   409.34         32.3185
   409.48         31.7063
   409.62         31.0538
   409.76         30.4154
   409.90         29.8346
   410.04         29.3492
   410.18         28.9891
   410.32         28.7683
   410.46         28.6792
   410.60         28.6959
   410.74         28.7826
   410.88         28.9046
   411.02         29.0334
   411.16         29.1494
   411.30         29.2427
   411.44         29.3085
   411.58         29.3453
   411.72         29.3550
   411.86         29.3385
   412.00         29.2909
   412.14         29.2026
   412.28         29.0663
   412.42         28.8851
   412.56         28.6758
   412.70         28.4655
   412.84         28.2786
   412.98         28.1218
   413.12         27.9835
   413.26         27.8465
   413.40         27.7019
   413.54         27.5519
   413.68         27.4000
   413.82         27.2469
   413.96         27.0911
   414.10         26.9289
   414.24         26.7558
   414.38         26.5705
   414.52         26.3810
   414.66         26.2057
   414.80         26.0683
   414.94         25.9909
   415.08         25.9878
   415.22         26.0615
   415.36         26.2004
   415.50         26.3817
   415.64         26.5806
   415.78         26.7808
   415.92         26.9723
   416.06         27.1395
   416.20         27.2571
   416.34         27.2963
   416.48         27.2366
   416.62         27.0711
   416.76         26.8081
   416.90         26.4692
   417.04         26.0877
   417.18         25.7070
   417.32         25.3732
   417.46         25.1247
   417.60         24.9857
   417.74         24.9661
   417.88         25.0629
   418.02         25.2641
   418.16         25.5510
   418.30         25.8949
   418.44         26.2524
   418.58         26.5717
   418.72         26.8085
   418.86         26.9381
   419.00         26.9535
   419.14         26.8615
   419.28         26.6828
   419.42         26.4535
   419.56         26.2190
   419.70         26.0264
   419.84         25.9203
   419.98         25.9314
   420.12         26.0681
   420.26         26.3205
   420.40         26.6723
   420.54         27.1084
   420.68         27.6138
   420.82         28.1698
   420.96         28.7519
   421.10         29.3283
   421.24         29.8592
   421.38         30.2954
   421.52         30.5860
   421.66         30.6986
   421.80         30.6378
   421.94         30.4395
   422.08         30.1523
   422.22         29.8206
   422.36         29.4801
   422.50         29.1620
   422.64         28.8964
   422.78         28.7141
   422.92         28.6492
   423.06         28.7345
   423.20         28.9926
   423.34         29.4255
   423.48         30.0055
   423.62         30.6740
   423.76         31.3520
   423.90         31.9606
   424.04         32.4436
   424.18         32.7788
   424.32         32.9716
   424.46         33.0368
   424.60         32.9840
   424.74         32.8152
   424.88         32.5360
   425.02         32.1729
   425.16         31.7808
   425.30         31.4325
   425.44         31.1962
   425.58         31.1156
   425.72         31.2005
   425.86         31.4207
   426.00         31.7122
   426.14         31.9949
   426.28         32.1958
   426.42         32.2727
   426.56         32.2200
   426.70         32.0580
   426.84         31.8178
   426.98         31.5344
   427.12         31.2442
   427.26         30.9809
   427.40         30.7692
   427.54         30.6293
   427.68         30.5735
   427.82         30.5935
   427.96         30.6594
   428.10         30.7281
   428.24         30.7586
   428.38         30.7216
   428.52         30.6026
   428.66         30.4027
   428.80         30.1341
   428.94         29.8139
   429.08         29.4592
   429.22         29.0783
   429.36         28.6648
   429.50         28.2031
   429.64         27.6789
   429.78         27.0901
   429.92         26.4515
   430.06         25.7989
   430.20         25.1910
   430.34         24.7069
   430.48         24.4413
   430.62         24.4892
   430.76         24.9183
   430.90         25.7460
   431.04         26.9304
   431.18         28.3764
   431.32         29.9515
   431.46         31.5150
   431.60         32.9510
   431.74         34.1828
   431.88         35.1682
   432.02         35.8943
   432.16         36.3805
   432.30         36.6792
   432.44         36.8620
   432.58         36.9967
   432.72         37.1320
   432.86         37.2950
   433.00         37.4953
   433.14         37.7294
   433.28         37.9790
   433.42         38.2136
   433.56         38.4015
   433.70         38.5250
   433.84         38.5843
   433.98         38.5924
   434.12         38.5752
   434.26         38.5700
   434.40         38.6088
   434.54         38.7042
   434.68         38.8516
   434.82         39.0370
   434.96         39.2433
   435.10         39.4582
   435.24         39.6815
   435.38         39.9253
   435.52         40.2060
   435.66         40.5354
   435.80         40.9129
   435.94         41.3202
   436.08         41.7224
   436.22         42.0713
   436.36         42.3155
   436.50         42.4133
   436.64         42.3472
   436.78         42.1315
   436.92         41.7946
   437.06         41.3518
   437.20         40.7961
   437.34         40.1177
   437.48         39.3315
   437.62         38.4794
   437.76         37.6122
   437.90         36.7734
   438.04         35.9962
   438.18         35.3103
   438.32         34.7488
   438.46         34.3517
   438.60         34.1585
   438.74         34.1897
   438.88         34.4369
   439.02         34.8694
   439.16         35.4333
   439.30         36.0456
   439.44         36.6030
   439.58         37.0080
   439.72         37.2014
   439.86         37.1819
   440.00         37.0028
   440.14         36.7419
   440.28         36.4635
   440.42         36.2096
   440.56         36.0153
   440.70         35.9170
   440.84         35.9443
   440.98         36.1097
   441.12         36.4037
   441.26         36.7941
   441.40         37.2319
   441.54         37.6648
   441.68         38.0498
   441.82         38.3569
   441.96         38.5749
   442.10         38.7119
   442.24         38.7852
   442.38         38.8107
   442.52         38.8043
   442.66         38.7829
   442.80         38.7604
   442.94         38.7450
   443.08         38.7428
   443.22         38.7640
   443.36         38.8217
   443.50         38.9252
   443.64         39.0784
   443.78         39.2811
   443.92         39.5288
   444.06         39.8089
   444.20         40.0969
   444.34         40.3568
   444.48         40.5475
   444.62         40.6315
   444.76         40.5820
   444.90         40.3887
   445.04         40.0635
   445.18         39.6409
   445.32         39.1670
   445.46         38.6865
   445.60         38.2389
   445.74         37.8648
   445.88         37.6110
   446.02         37.5223
   446.16         37.6270
   446.30         37.9328
   446.44         38.4292
   446.58         39.0884
   446.72         39.8627
   446.86         40.6883
   447.00         41.4956
   447.14         42.2287
   447.28         42.8564
   447.42         43.3701
   447.56         43.7744
   447.70         44.0762
   447.84         44.2841
   447.98         44.4082
   448.12         44.4532
   448.26         44.4205
   448.40         44.3202
   448.54         44.1822
   448.68         44.0466
   448.82         43.9448
   448.96         43.8973
   449.10         43.9244
   449.24         44.0469
   449.38         44.2769
   449.52         44.6177
   449.66         45.0660
   449.80         45.6119
   449.94         46.2303
   450.08         46.8741
   450.22         47.4809
   450.36         47.9903
   450.50         48.3587
   450.64         48.5629
   450.78         48.6012
   450.92         48.4911
   451.06         48.2644
   451.20         47.9566
   451.34         47.5913
   451.48         47.1755
   451.62         46.7096
   451.76         46.1972
   451.90         45.6416
   452.04         45.0416
   452.18         44.3997
   452.32         43.7282
   452.46         43.0550
   452.60         42.4194
   452.74         41.8599
   452.88         41.4106
   453.02         41.1006
   453.16         40.9472
   453.30         40.9512
   453.44         41.0960
   453.58         41.3471
   453.72         41.6610
   453.86         41.9952
   454.00         42.3110
   454.14         42.5754
   454.28         42.7721
   454.42         42.9083
   454.56         43.0082
   454.70         43.1018
   454.84         43.2179
   454.98         43.3794
   455.12         43.5988
   455.26         43.8711
   455.40         44.1788
   455.54         44.5072
   455.68         44.8457
   455.82         45.1830
   455.96         45.5081
   456.10         45.8155
   456.24         46.1031
   456.38         46.3695
   456.52         46.6114
   456.66         46.8193
   456.80         46.9802
   456.94         47.0859
   457.08         47.1336
   457.22         47.1177
   457.36         47.0263
   457.50         46.8486
   457.64         46.5889
   457.78         46.2688
   457.92         45.9203
   458.06         45.5785
   458.20         45.2715
   458.34         45.0128
   458.48         44.8037
   458.62         44.6401
   458.76         44.5149
   458.90         44.4199
   459.04         44.3458
   459.18         44.2804
   459.32         44.2131
   459.46         44.1491
   459.60         44.1151
   459.74         44.1470
   459.88         44.2738
   460.02         44.5124
   460.16         44.8699
   460.30         45.3398
   460.44         45.8981
   460.58         46.5062
   460.72         47.1200
   460.86         47.7026
   461.00         48.2278
   461.14         48.6803
   461.28         49.0553
   461.42         49.3555
   461.56         49.5872
   461.70         49.7605
   461.84         49.8883
   461.98         49.9857
   462.12         50.0651
   462.26         50.1266
   462.40         50.1532
   462.54         50.1188
   462.68         49.9993
   462.82         49.7827
   462.96         49.4724
   463.10         49.0823
   463.24         48.6283
   463.38         48.1254
   463.52         47.5915
   463.66         47.0484
   463.80         46.5238
   463.94         46.0503
   464.08         45.6575
   464.22         45.3647
   464.36         45.1783
   464.50         45.0983
   464.64         45.1263
   464.78         45.2649
   464.92         45.5093
   465.06         45.8395
   465.20         46.2221
   465.34         46.6142
   465.48         46.9648
   465.62         47.2229
   465.76         47.3523
   465.90         47.3382
   466.04         47.1890
   466.18         46.9362
   466.32         46.6300
   466.46         46.3269
   466.60         46.0728
   466.74         45.8908
   466.88         45.7839
   467.02         45.7509
   467.16         45.7953
   467.30         45.9156
   467.44         46.0919
   467.58         46.2867
   467.72         46.4583
   467.86         46.5745
   468.00         46.6171
   468.14         46.5849
   468.28         46.4995
   468.42         46.3978
   468.56         46.3081
   468.70         46.2366
   468.84         46.1749
   468.98         46.1087
   469.12         46.0202
   469.26         45.8908
   469.40         45.7105
   469.54         45.4845
   469.68         45.2299
   469.82         44.9658
   469.96         44.7110
   470.10         44.4830
   470.24         44.2972
   470.38         44.1710
   470.52         44.1273
   470.66         44.1889
   470.80         44.3717
   470.94         44.6800
   471.08         45.1003
   471.22         45.6017
   471.36         46.1461
   471.50         46.6913
   471.64         47.1867
   471.78         47.5809
   471.92         47.8331
   472.06         47.9229
   472.20         47.8521
   472.34         47.6416
   472.48         47.3288
   472.62         46.9614
   472.76         46.5870
   472.90         46.2462
   473.04         45.9737
   473.18         45.7994
   473.32         45.7420
   473.46         45.8042
   473.60         45.9716
   473.74         46.2157
   473.88         46.5010
   474.02         46.7877
   474.16         47.0325
   474.30         47.2041
   474.44         47.2965
   474.58         47.3244
   474.72         47.3100
   474.86         47.2698
   475.00         47.2101
   475.14         47.1284
   475.28         47.0182
   475.42         46.8728
   475.56         46.6908
   475.70         46.4834
   475.84         46.2733
   475.98         46.0818
   476.12         45.9234
   476.26         45.8125
   476.40         45.7675
   476.54         45.8075
   476.68         45.9445
   476.82         46.1787
   476.96         46.5007
   477.10         46.8909
   477.24         47.3173
   477.38         47.7364
   477.52         48.0989
   477.66         48.3602
   477.80         48.4906
   477.94         48.4851
   478.08         48.3666
   478.22         48.1779
   478.36         47.9640
   478.50         47.7615
   478.64         47.5977
   478.78         47.4926
   478.92         47.4609
   479.06         47.5078
   479.20         47.6239
   479.34         47.7853
   479.48         47.9614
   479.62         48.1218
   479.76         48.2422
   479.90         48.3075
   480.04         48.3131
   480.18         48.2668
   480.32         48.1879
   480.46         48.1039
   480.60         48.0448
   480.74         48.0312
   480.88         48.0658
   481.02         48.1368
   481.16         48.2307
   481.30         48.3353
   481.44         48.4357
   481.58         48.5171
   481.72         48.5652
   481.86         48.5661
   482.00         48.5109
   482.14         48.3999
   482.28         48.2419
   482.42         48.0514
   482.56         47.8436
   482.70         47.6315
   482.84         47.4280
   482.98         47.2462
   483.12         47.0985
   483.26         46.9957
   483.40         46.9418
   483.54         46.9332
   483.68         46.9641
   483.82         47.0307
   483.96         47.1264
   484.10         47.2379
   484.24         47.3431
   484.38         47.4139
   484.52         47.4258
   484.66         47.3564
   484.80         47.1788
   484.94         46.8705
   485.08         46.4256
   485.22         45.8587
   485.36         45.2064
   485.50         44.5219
   485.64         43.8609
   485.78         43.2685
   485.92         42.7705
   486.06         42.3754
   486.20         42.0862
   486.34         41.9081
   486.48         41.8450
   486.62         41.8932
   486.76         42.0398
   486.90         42.2639
   487.04         42.5447
   487.18         42.8644
   487.32         43.2001
   487.46         43.5256
   487.60         43.8260
   487.74         44.0955
   487.88         44.3252
   488.02         44.5037
   488.16         44.6273
   488.30         44.7087
   488.44         44.7753
   488.58         44.8618
   488.72         45.0040
   488.86         45.2334
   489.00         45.5652
   489.14         45.9932
   489.28         46.4953
   489.42         47.0405
   489.56         47.5895
   489.70         48.0945
   489.84         48.5035
   489.98         48.7702
   490.12         48.8701
   490.26         48.8085
   490.40         48.6133
   490.54         48.3230
   490.68         47.9761
   490.82         47.5987
   490.96         47.1997
   491.10         46.7779
   491.24         46.3336
   491.38         45.8752
   491.52         45.4226
   491.66         45.0061
   491.80         44.6638
   491.94         44.4347
   492.08         44.3443
   492.22         44.3915
   492.36         44.5574
   492.50         44.8201
   492.64         45.1535
   492.78         45.5227
   492.92         45.8907
   493.06         46.2258
   493.20         46.5045
   493.34         46.7111
   493.48         46.8459
   493.62         46.9343
   493.76         47.0204
   493.90         47.1466
   494.04         47.3419
   494.18         47.6191
   494.32         47.9744
   494.46         48.3816
   494.60         48.7906
   494.74         49.1437
   494.88         49.3992
   495.02         49.5420
   495.16         49.5742
   495.30         49.5060
   495.44         49.3563
   495.58         49.1501
   495.72         48.9098
   495.86         48.6510
   496.00         48.3872
   496.14         48.1395
   496.28         47.9358
   496.42         47.7989
   496.56         47.7327
   496.70         47.7210
   496.84         47.7361
   496.98         47.7454
   497.12         47.7123
   497.26         47.6017
   497.40         47.3959
   497.54         47.0990
   497.68         46.7270
   497.82         46.2995
   497.96         45.8402
   498.10         45.3794
   498.24         44.9547
   498.38         44.6082
   498.52         44.3784
   498.66         44.2900
   498.80         44.3422
   498.94         44.5009
   499.08         44.7076
   499.22         44.8956
   499.36         45.0063
   499.50         45.0012
   499.64         44.8642
   499.78         44.6031
   499.92         44.2491
   500.06         43.8456
   500.20         43.4331
   500.34         43.0398
   500.48         42.6840
   500.62         42.3786
   500.76         42.1334
   500.90         41.9508
   501.04         41.8235
   501.18         41.7373
   501.32         41.6788
   501.46         41.6404
   501.60         41.6198
   501.74         41.6223
   501.88         41.6647
   502.02         41.7724
   502.16         41.9705
   502.30         42.2712
   502.44         42.6657
   502.58         43.1209
   502.72         43.5871
   502.86         44.0085
   503.00         44.3302
   503.14         44.5105
   503.28         44.5349
   503.42         44.4170
   503.56         44.1896
   503.70         43.8924
   503.84         43.5660
   503.98         43.2501
   504.12         42.9808
   504.26         42.7883
   504.40         42.7000
   504.54         42.7391
   504.68         42.9130
   504.82         43.2076
   504.96         43.5942
   505.10         44.0364
   505.24         44.4951
   505.38         44.9317
   505.52         45.3121
   505.66         45.6165
   505.80         45.8442
   505.94         46.0012
   506.08         46.0837
   506.22         46.0798
   506.36         45.9812
   506.50         45.7955
   506.64         45.5451
   506.78         45.2528
   506.92         44.9329
   507.06         44.5953
   507.20         44.2534
   507.34         43.9231
   507.48         43.6221
   507.62         43.3688
   507.76         43.1803
   507.90         43.0679
   508.04         43.0383
   508.18         43.0986
   508.32         43.2560
   508.46         43.5069
   508.60         43.8289
   508.74         44.1823
   508.88         44.5214
   509.02         44.8086
   509.16         45.0184
   509.30         45.1329
   509.44         45.1423
   509.58         45.0520
   509.72         44.8817
   509.86         44.6568
   510.00         44.4037
   510.14         44.1509
   510.28         43.9275
   510.42         43.7604
   510.56         43.6714
   510.70         43.6742
   510.84         43.7712
   510.98         43.9454
   511.12         44.1590
   511.26         44.3644
   511.40         44.5214
   511.54         44.6069
   511.68         44.6096
   511.82         44.5196
   511.96         44.3310
   512.10         44.0527
   512.24         43.7115
   512.38         43.3470
   512.52         43.0047
   512.66         42.7234
   512.80         42.5255
   512.94         42.4178
   513.08         42.3904
   513.22         42.4165
   513.36         42.4587
   513.50         42.4782
   513.64         42.4419
   513.78         42.3324
   513.92         42.1510
   514.06         41.9152
   514.20         41.6520
   514.34         41.3913
   514.48         41.1665
   514.62         41.0120
   514.76         40.9573
   514.90         41.0188
   515.04         41.1944
   515.18         41.4614
   515.32         41.7753
   515.46         42.0719
   515.60         42.2772
   515.74         42.3250
   515.88         42.1726
   516.02         41.7979
   516.16         41.1970
   516.30         40.3964
   516.44         39.4615
   516.58         38.4819
   516.72         37.5557
   516.86         36.7744
   517.00         36.2012
   517.14         35.8553
   517.28         35.7188
   517.42         35.7607
   517.56         35.9498
   517.70         36.2516
   517.84         36.6229
   517.98         37.0132
   518.12         37.3763
   518.26         37.6891
   518.40         37.9556
   518.54         38.1934
   518.68         38.4217
   518.82         38.6670
   518.96         38.9625
   519.10         39.3255
   519.24         39.7409
   519.38         40.1644
   519.52         40.5360
   519.66         40.7977
   519.80         40.9205
   519.94         40.9231
   520.08         40.8567
   520.22         40.7683
   520.36         40.6797
   520.50         40.5950
   520.64         40.5189
   520.78         40.4686
   520.92         40.4703
   521.06         40.5437
   521.20         40.6883
   521.34         40.8796
   521.48         41.0740
   521.62         41.2251
   521.76         41.2996
   521.90         41.2853
   522.04         41.1874
   522.18         41.0259
   522.32         40.8372
   522.46         40.6705
   522.60         40.5736
   522.74         40.5772
   522.88         40.6924
   523.02         40.9199
   523.16         41.2555
   523.30         41.6831
   523.44         42.1659
   523.58         42.6452
   523.72         43.0551
   523.86         43.3423
   524.00         43.4780
   524.14         43.4631
   524.28         43.3236
   524.42         43.0990
   524.56         42.8319
   524.70         42.5636
   524.84         42.3313
   524.98         42.1614
   525.12         42.0566
   525.26         41.9935
   525.40         41.9328
   525.54         41.8321
   525.68         41.6508
   525.82         41.3503
   525.96         40.9080
   526.10         40.3327
   526.24         39.6636
   526.38         38.9630
   526.52         38.3073
   526.66         37.7766
   526.80         37.4404
   526.94         37.3417
   527.08         37.4908
   527.22         37.8706
   527.36         38.4422
   527.50         39.1531
   527.64         39.9454
   527.78         40.7668
   527.92         41.5798
   528.06         42.3598
   528.20         43.0861
   528.34         43.7354
   528.48         44.2827
   528.62         44.7082
   528.76         44.9984
   528.90         45.1471
   529.04         45.1623
   529.18         45.0686
   529.32         44.8988
   529.46         44.6845
   529.60         44.4566
   529.74         44.2551
   529.88         44.1275
   530.02         44.1132
   530.16         44.2280
   530.30         44.4594
   530.44         44.7744
   530.58         45.1293
   530.72         45.4782
   530.86         45.7786
   531.00         45.9945
   531.14         46.1005
   531.28         46.0862
   531.42         45.9527
   531.56         45.7000
   531.70         45.3259
   531.84         44.8378
   531.98         44.2620
   532.12         43.6404
   532.26         43.0246
   532.40         42.4675
   532.54         42.0137
   532.68         41.6912
   532.82         41.5094
   532.96         41.4633
   533.10         41.5414
   533.24         41.7297
   533.38         42.0075
   533.52         42.3433
   533.66         42.6966
   533.80         43.0276
   533.94         43.3078
   534.08         43.5249
   534.22         43.6865
   534.36         43.8239
   534.50         43.9825
   534.64         44.2020
   534.78         44.5009
   534.92         44.8725
   535.06         45.2897
   535.20         45.7153
   535.34         46.1096
   535.48         46.4363
   535.62         46.6674
   535.76         46.7818
   535.90         46.7599
   536.04         46.5909
   536.18         46.2852
   536.32         45.8777
   536.46         45.4181
   536.60         44.9604
   536.74         44.5534
   536.88         44.2351
   537.02         44.0282
   537.16         43.9371
   537.30         43.9506
   537.44         44.0459
   537.58         44.1930
   537.72         44.3591
   537.86         44.5118
   538.00         44.6195
   538.14         44.6531
   538.28         44.5908
   538.42         44.4215
   538.56         44.1515
   538.70         43.8076
   538.84         43.4276
   538.98         43.0440
   539.12         42.6753
   539.26         42.3269
   539.40         41.9966
   539.54         41.6811
   539.68         41.3804
   539.82         41.0998
   539.96         40.8503
   540.10         40.6471
   540.24         40.5059
   540.38         40.4404
   540.52         40.4652
   540.66         40.5925
   540.80         40.8239
   540.94         41.1478
   541.08         41.5442
   541.22         41.9899
   541.36         42.4614
   541.50         42.9320
   541.64         43.3664
   541.78         43.7236
   541.92         43.9714
   542.06         44.0958
   542.20         44.0989
   542.34         43.9907
   542.48         43.7898
   542.62         43.5295
   542.76         43.2544
   542.90         43.0100
   543.04         42.8329
   543.18         42.7446
   543.32         42.7443
   543.46         42.8116
   543.60         42.9220
   543.74         43.0594
   543.88         43.2164
   544.02         43.3858
   544.16         43.5528
   544.30         43.6939
   544.44         43.7859
   544.58         43.8202
   544.72         43.8063
   544.86         43.7638
   545.00         43.7147
   545.14         43.6787
   545.28         43.6709
   545.42         43.6971
   545.56         43.7502
   545.70         43.8134
   545.84         43.8682
   545.98         43.8991
   546.12         43.8975
   546.26         43.8633
   546.40         43.7985
   546.54         43.6959
   546.68         43.5430
   546.82         43.3337
   546.96         43.0715
   547.10         42.7709
   547.24         42.4596
   547.38         42.1724
   547.52         41.9379
   547.66         41.7733
   547.80         41.6907
   547.94         41.7025
   548.08         41.8133
   548.22         42.0121
   548.36         42.2762
   548.50         42.5761
   548.64         42.8815
   548.78         43.1675
   548.92         43.4170
   549.06         43.6158
   549.20         43.7529
   549.34         43.8261
   549.48         43.8416
   549.62         43.8085
   549.76         43.7406
   549.90         43.6579
   550.04         43.5743
   550.18         43.4892
   550.32         43.3937
   550.46         43.2827
   550.60         43.1596
   550.74         43.0349
   550.88         42.9223
   551.02         42.8375
   551.16         42.7957
   551.30         42.8082
   551.44         42.8770
   551.58         42.9904
   551.72         43.1250
   551.86         43.2585
   552.00         43.3784
   552.14         43.4784
   552.28         43.5534
   552.42         43.5980
   552.56         43.6071
   552.70         43.5802
   552.84         43.5277
   552.98         43.4704
   553.12         43.4326
   553.26         43.4317
   553.40         43.4740
   553.54         43.5562
   553.68         43.6698
   553.82         43.8049
   553.96         43.9517
   554.10         44.0991
   554.24         44.2354
   554.38         44.3519
   554.52         44.4469
   554.66         44.5219
   554.80         44.5756
   554.94         44.6046
   555.08         44.6073
   555.22         44.5853
   555.36         44.5396
   555.50         44.4682
   555.64         44.3674
   555.78         44.2331
   555.92         44.0639
   556.06         43.8657
   556.20         43.6510
   556.34         43.4364
   556.48         43.2403
   556.62         43.0792
   556.76         42.9646
   556.90         42.9014
   557.04         42.8893
   557.18         42.9233
   557.32         42.9921
   557.46         43.0768
   557.60         43.1503
   557.74         43.1799
   557.88         43.1364
   558.02         43.0033
   558.16         42.7788
   558.30         42.4732
   558.44         42.1067
   558.58         41.7094
   558.72         41.3178
   558.86         40.9670
   559.00         40.6822
   559.14         40.4744
   559.28         40.3441
   559.42         40.2899
   559.56         40.3117
   559.70         40.4092
   559.84         40.5795
   559.98         40.8149
   560.12         41.1037
   560.26         41.4282
   560.40         41.7657
   560.54         42.0914
   560.68         42.3823
   560.82         42.6178
   560.96         42.7815
   561.10         42.8654
   561.24         42.8679
   561.38         42.7873
   561.52         42.6228
   561.66         42.3850
   561.80         42.1034
   561.94         41.8238
   562.08         41.5953
   562.22         41.4536
   562.36         41.4141
   562.50         41.4725
   562.64         41.6087
   562.78         41.7923
   562.92         41.9869
   563.06         42.1575
   563.20         42.2796
   563.34         42.3428
   563.48         42.3440
   563.62         42.2824
   563.76         42.1612
   563.90         41.9872
   564.04         41.7742
   564.18         41.5461
   564.32         41.3307
   564.46         41.1489
   564.60         41.0081
   564.74         40.9001
   564.88         40.8062
   565.02         40.7074
   565.16         40.5916
   565.30         40.4562
   565.44         40.3080
   565.58         40.1594
   565.72         40.0231
   565.86         39.9118
   566.00         39.8365
   566.14         39.8071
   566.28         39.8333
   566.42         39.9238
   566.56         40.0825
   566.70         40.3067
   566.84         40.5840
   566.98         40.8928
   567.12         41.2075
   567.26         41.5019
   567.40         41.7526
   567.54         41.9432
   567.68         42.0645
   567.82         42.1138
   567.96         42.0962
   568.10         42.0236
   568.24         41.9127
   568.38         41.7816
   568.52         41.6496
   568.66         41.5342
   568.80         41.4478
   568.94         41.3929
   569.08         41.3604
   569.22         41.3337
   569.36         41.2952
   569.50         41.2295
   569.64         41.1232
   569.78         40.9624
   569.92         40.7379
   570.06         40.4499
   570.20         40.1097
   570.34         39.7417
   570.48         39.3804
   570.62         39.0621
   570.76         38.8172
   570.90         38.6677
   571.04         38.6270
   571.18         38.7001
   571.32         38.8844
   571.46         39.1690
   571.60         39.5327
   571.74         39.9479
   571.88         40.3862
   572.02         40.8192
   572.16         41.2188
   572.30         41.5597
   572.44         41.8281
   572.58         42.0245
   572.72         42.1588
   572.86         42.2456
   573.00         42.2993
   573.14         42.3303
   573.28         42.3463
   573.42         42.3548
   573.56         42.3620
   573.70         42.3695
   573.84         42.3765
   573.98         42.3802
   574.12         42.3721
   574.26         42.3379
   574.40         42.2684
   574.54         42.1661
   574.68         42.0431
   574.82         41.9139
   574.96         41.7892
   575.10         41.6722
   575.24         41.5616
   575.38         41.4603
   575.52         41.3794
   575.66         41.3324
   575.80         41.3294
   575.94         41.3742
   576.08         41.4643
   576.22         41.5898
   576.36         41.7350
   576.50         41.8838
   576.64         42.0209
   576.78         42.1297
   576.92         42.1945
   577.06         42.2039
   577.20         42.1492
   577.34         42.0198
   577.48         41.8066
   577.62         41.5135
   577.76         41.1635
   577.90         40.7932
   578.04         40.4421
   578.18         40.1435
   578.32         39.9218
   578.46         39.7920
   578.60         39.7580
   578.74         39.8141
   578.88         39.9483
   579.02         40.1471
   579.16         40.3953
   579.30         40.6698
   579.44         40.9385
   579.58         41.1698
   579.72         41.3437
   579.86         41.4558
   580.00         41.5156
   580.14         41.5413
   580.28         41.5512
   580.42         41.5554
   580.56         41.5584
   580.70         41.5672
   580.84         41.5933
   580.98         41.6457
   581.12         41.7268
   581.26         41.8346
   581.40         41.9669
   581.54         42.1211
   581.68         42.2917
   581.82         42.4666
   581.96         42.6313
   582.10         42.7755
   582.24         42.8970
   582.38         42.9979
   582.52         43.0809
   582.66         43.1468
   582.80         43.1943
   582.94         43.2242
   583.08         43.2423
   583.22         43.2582
   583.36         43.2782
   583.50         43.2992
   583.64         43.3122
   583.78         43.3093
   583.92         43.2870
   584.06         43.2435
   584.20         43.1750
   584.34         43.0783
   584.48         42.9513
   584.62         42.7915
   584.76         42.6002
   584.90         42.3852
   585.04         42.1603
   585.18         41.9416
   585.32         41.7446
   585.46         41.5822
   585.60         41.4641
   585.74         41.3977
   585.88         41.3858
   586.02         41.4255
   586.16         41.5123
   586.30         41.6412
   586.44         41.8037
   586.58         41.9855
   586.72         42.1657
   586.86         42.3222
   587.00         42.4384
   587.14         42.5035
   587.28         42.5135
   587.42         42.4734
   587.56         42.3861
   587.70         42.2377
   587.84         42.0014
   587.98         41.6589
   588.12         41.2096
   588.26         40.6652
   588.40         40.0419
   588.54         39.3629
   588.68         38.6661
   588.82         38.0015
   588.96         37.4224
   589.10         36.9767
   589.24         36.7014
   589.38         36.6182
   589.52         36.7340
   589.66         37.0402
   589.80         37.5117
   589.94         38.1088
   590.08         38.7780
   590.22         39.4554
   590.36         40.0802
   590.50         40.6166
   590.64         41.0559
   590.78         41.3986
   590.92         41.6471
   591.06         41.8109
   591.20         41.9103
   591.34         41.9698
   591.48         42.0075
   591.62         42.0323
   591.76         42.0454
   591.90         42.0435
   592.04         42.0248
   592.18         41.9905
   592.32         41.9420
   592.46         41.8811
   592.60         41.8126
   592.74         41.7404
   592.88         41.6650
   593.02         41.5866
   593.16         41.5066
   593.30         41.4267
   593.44         41.3481
   593.58         41.2693
   593.72         41.1874
   593.86         41.1016
   594.00         41.0112
   594.14         40.9162
   594.28         40.8205
   594.42         40.7301
   594.56         40.6512
   594.70         40.5901
   594.84         40.5513
   594.98         40.5341
   595.12         40.5339
   595.26         40.5439
   595.40         40.5548
   595.54         40.5591
   595.68         40.5563
   595.82         40.5543
   595.96         40.5655
   596.10         40.6000
   596.24         40.6605
   596.38         40.7429
   596.52         40.8377
   596.66         40.9331
   596.80         41.0196
   596.94         41.0904
   597.08         41.1355
   597.22         41.1436
   597.36         41.1088
   597.50         41.0309
   597.64         40.9143
   597.78         40.7684
   597.92         40.6071
   598.06         40.4466
   598.20         40.3017
   598.34         40.1834
   598.48         40.0963
   598.62         40.0378
   598.76         39.9996
   598.90         39.9709
   599.04         39.9437
   599.18         39.9165
   599.32         39.8892
   599.46         39.8595
   599.60         39.8223
   599.74         39.7749
   599.88         39.7190
   600.02         39.6580
   600.16         39.5940
   600.30         39.5298
   600.44         39.4685
   600.58         39.4095
   600.72         39.3486
   600.86         39.2808
   601.00         39.2036
   601.14         39.1213
   601.28         39.0440
   601.42         38.9837
   601.56         38.9498
   601.70         38.9489
   601.84         38.9835
   601.98         39.0527
   602.12         39.1552
   602.26         39.2927
   602.40         39.4660
   602.54         39.6696
   602.68         39.8913
   602.82         40.1171
   602.96         40.3325
   603.10         40.5229
   603.24         40.6786
   603.38         40.7983
   603.52         40.8873
   603.66         40.9539
   603.80         41.0069
   603.94         41.0513
   604.08         41.0873
   604.22         41.1115
   604.36         41.1195
   604.50         41.1092
   604.64         41.0816
   604.78         41.0404
   604.92         40.9890
   605.06         40.9277
   605.20         40.8552
   605.34         40.7711
   605.48         40.6796
   605.62         40.5907
   605.76         40.5184
   605.90         40.4753
   606.04         40.4670
   606.18         40.4920
   606.32         40.5426
   606.46         40.6051
   606.60         40.6625
   606.74         40.6966
   606.88         40.6930
   607.02         40.6437
   607.16         40.5479
   607.30         40.4103
   607.44         40.2386
   607.58         40.0421
   607.72         39.8312
   607.86         39.6173
   608.00         39.4135
   608.14         39.2338
   608.28         39.0891
   608.42         38.9837
   608.56         38.9146
   608.70         38.8725
   608.84         38.8422
   608.98         38.8058
   609.12         38.7515
   609.26         38.6775
   609.40         38.5901
   609.54         38.5006
   609.68         38.4220
   609.82         38.3664
   609.96         38.3435
   610.10         38.3597
   610.24         38.4174
   610.38         38.5142
   610.52         38.6437
   610.66         38.7960
   610.80         38.9556
   610.94         39.1012
   611.08         39.2108
   611.22         39.2683
   611.36         39.2660
   611.50         39.2032
   611.64         39.0884
   611.78         38.9387
   611.92         38.7745
   612.06         38.6122
   612.20         38.4609
   612.34         38.3187
   612.48         38.1744
   612.62         38.0189
   612.76         37.8514
   612.90         37.6765
   613.04         37.5015
   613.18         37.3354
   613.32         37.1884
   613.46         37.0714
   613.60         36.9950
   613.74         36.9686
   613.88         36.9973
   614.02         37.0811
   614.16         37.2145
   614.30         37.3857
   614.44         37.5780
   614.58         37.7728
   614.72         37.9493
   614.86         38.0842
   615.00         38.1555
   615.14         38.1548
   615.28         38.0920
   615.42         37.9855
   615.56         37.8507
   615.70         37.6977
   615.84         37.5334
   615.98         37.3665
   616.12         37.2090
   616.26         37.0759
   616.40         36.9821
   616.54         36.9405
   616.68         36.9597
   616.82         37.0429
   616.96         37.1867
   617.10         37.3835
   617.24         37.6205
   617.38         37.8777
   617.52         38.1303
   617.66         38.3553
   617.80         38.5353
   617.94         38.6577
   618.08         38.7145
   618.22         38.7065
   618.36         38.6452
   618.50         38.5518
   618.64         38.4526
   618.78         38.3726
   618.92         38.3314
   619.06         38.3438
   619.20         38.4196
   619.34         38.5608
   619.48         38.7603
   619.62         39.0030
   619.76         39.2663
   619.90         39.5231
   620.04         39.7437
   620.18         39.8972
   620.32         39.9583
   620.46         39.9162
   620.60         39.7762
   620.74         39.5555
   620.88         39.2767
   621.02         38.9629
   621.16         38.6375
   621.30         38.3241
   621.44         38.0466
   621.58         37.8266
   621.72         37.6747
   621.86         37.5860
   622.00         37.5449
   622.14         37.5357
   622.28         37.5477
   622.42         37.5727
   622.56         37.6017
   622.70         37.6248
   622.84         37.6330
   622.98         37.6233
   623.12         37.5968
   623.26         37.5544
   623.40         37.4968
   623.54         37.4275
   623.68         37.3531
   623.82         37.2793
   623.96         37.2074
   624.10         37.1337
   624.24         37.0499
   624.38         36.9470
   624.52         36.8215
   624.66         36.6792
   624.80         36.5336
   624.94         36.3999
   625.08         36.2859
   625.22         36.1892
   625.36         36.1031
   625.50         36.0262
   625.64         35.9648
   625.78         35.9289
   625.92         35.9279
   626.06         35.9697
   626.20         36.0579
   626.34         36.1886
   626.48         36.3483
   626.62         36.5169
   626.76         36.6723
   626.90         36.7954
   627.04         36.8739
   627.18         36.9067
   627.32         36.9030
   627.46         36.8798
   627.60         36.8547
   627.74         36.8409
   627.88         36.8464
   628.02         36.8795
   628.16         36.9483
   628.30         37.0542
   628.44         37.1883
   628.58         37.3348
   628.72         37.4757
   628.86         37.5920
   629.00         37.6651
   629.14         37.6823
   629.28         37.6416
   629.42         37.5518
   629.56         37.4316
   629.70         37.3062
   629.84         37.1987
   629.98         37.1239
   630.12         37.0864
   630.26         37.0798
   630.40         37.0897
   630.54         37.0979
   630.68         37.0894
   630.82         37.0550
   630.96         36.9916
   631.10         36.9031
   631.24         36.8024
   631.38         36.7084
   631.52         36.6396
   631.66         36.6111
   631.80         36.6340
   631.94         36.7127
   632.08         36.8438
   632.22         37.0146
   632.36         37.2021
   632.50         37.3782
   632.64         37.5196
   632.78         37.6116
   632.92         37.6477
   633.06         37.6282
   633.20         37.5600
   633.34         37.4563
   633.48         37.3371
   633.62         37.2261
   633.76         37.1433
   633.90         37.1018
   634.04         37.1056
   634.18         37.1480
   634.32         37.2150
   634.46         37.2904
   634.60         37.3566
   634.74         37.3947
   634.88         37.3868
   635.02         37.3222
   635.16         37.2025
   635.30         37.0400
   635.44         36.8523
   635.58         36.6591
   635.72         36.4804
   635.86         36.3359
   636.00         36.2452
   636.14         36.2233
   636.28         36.2755
   636.42         36.3956
   636.56         36.5704
   636.70         36.7814
   636.84         37.0063
   636.98         37.2220
   637.12         37.4094
   637.26         37.5543
   637.40         37.6490
   637.54         37.6931
   637.68         37.6936
   637.82         37.6613
   637.96         37.6053
   638.10         37.5303
   638.24         37.4389
   638.38         37.3358
   638.52         37.2275
   638.66         37.1176
   638.80         37.0063
   638.94         36.8914
   639.08         36.7744
   639.22         36.6609
   639.36         36.5578
   639.50         36.4699
   639.64         36.4003
   639.78         36.3525
   639.92         36.3284
   640.06         36.3270
   640.20         36.3457
   640.34         36.3796
   640.48         36.4215
   640.62         36.4625
   640.76         36.4940
   640.90         36.5109
   641.04         36.5129
   641.18         36.5028
   641.32         36.4855
   641.46         36.4706
   641.60         36.4689
   641.74         36.4871
   641.88         36.5233
   642.02         36.5703
   642.16         36.6230
   642.30         36.6806
   642.44         36.7431
   642.58         36.8069
   642.72         36.8652
   642.86         36.9138
   643.00         36.9524
   643.14         36.9831
   643.28         37.0104
   643.42         37.0402
   643.56         37.0761
   643.70         37.1145
   643.84         37.1447
   643.98         37.1533
   644.12         37.1324
   644.26         37.0799
   644.40         36.9981
   644.54         36.8962
   644.68         36.7907
   644.82         36.6990
   644.96         36.6292
   645.10         36.5793
   645.24         36.5454
   645.38         36.5278
   645.52         36.5294
   645.66         36.5502
   645.80         36.5843
   645.94         36.6232
   646.08         36.6580
   646.22         36.6813
   646.36         36.6911
   646.50         36.6952
   646.64         36.7079
   646.78         36.7407
   646.92         36.7953
   647.06         36.8646
   647.20         36.9396
   647.34         37.0131
   647.48         37.0770
   647.62         37.1237
   647.76         37.1496
   647.90         37.1526
   648.04         37.1272
   648.18         37.0607
   648.32         36.9380
   648.46         36.7495
   648.60         36.4971
   648.74         36.1945
   648.88         35.8648
   649.02         35.5361
   649.16         35.2384
   649.30         34.9994
   649.44         34.8405
   649.58         34.7761
   649.72         34.8141
   649.86         34.9569
   650.00         35.1968
   650.14         35.5133
   650.28         35.8755
   650.42         36.2461
   650.56         36.5887
   650.70         36.8765
   650.84         37.0968
   650.98         37.2532
   651.12         37.3611
   651.26         37.4386
   651.40         37.4999
   651.54         37.5525
   651.68         37.5990
   651.82         37.6405
   651.96         37.6755
   652.10         37.7002
   652.24         37.7121
   652.38         37.7119
   652.52         37.7026
   652.66         37.6870
   652.80         37.6682
   652.94         37.6510
   653.08         37.6412
   653.22         37.6432
   653.36         37.6588
   653.50         37.6853
   653.64         37.7166
   653.78         37.7444
   653.92         37.7598
   654.06         37.7550
   654.20         37.7247
   654.34         37.6652
   654.48         37.5737
   654.62         37.4485
   654.76         37.2888
   654.90         37.0880
   655.04         36.8321
   655.18         36.5115
   655.32         36.1341
   655.46         35.7254
   655.60         35.3184
   655.74         34.9440
   655.88         34.6289
   656.02         34.3942
   656.16         34.2539
   656.30         34.2146
   656.44         34.2762
   656.58         34.4319
   656.72         34.6667
   656.86         34.9577
   657.00         35.2783
   657.14         35.6020
   657.28         35.9041
   657.42         36.1629
   657.56         36.3656
   657.70         36.5164
   657.84         36.6331
   657.98         36.7301
   658.12         36.8075
   658.26         36.8554
   658.40         36.8652
   658.54         36.8341
   658.68         36.7679
   658.82         36.6814
   658.96         36.5952
   659.10         36.5277
   659.24         36.4901
   659.38         36.4845
   659.52         36.5045
   659.66         36.5401
   659.80         36.5824
   659.94         36.6247
   660.08         36.6622
   660.22         36.6921
   660.36         36.7135
   660.50         36.7269
   660.64         36.7346
   660.78         36.7426
   660.92         36.7592
   661.06         36.7898
   661.20         36.8339
   661.34         36.8882
   661.48         36.9463
   661.62         36.9978
   661.76         37.0307
   661.90         37.0340
   662.04         36.9981
   662.18         36.9175
   662.32         36.7965
   662.46         36.6483
   662.60         36.4879
   662.74         36.3279
   662.88         36.1793
   663.02         36.0506
   663.16         35.9455
   663.30         35.8631
   663.44         35.8012
   663.58         35.7579
   663.72         35.7322
   663.86         35.7233
   664.00         35.7312
   664.14         35.7551
   664.28         35.7932
   664.42         35.8410
   664.56         35.8914
   664.70         35.9369
   664.84         35.9732
   664.98         35.9979
   665.12         36.0064
   665.26         35.9920
   665.40         35.9505
   665.54         35.8826
   665.68         35.7938
   665.82         35.6935
   665.96         35.5945
   666.10         35.5094
   666.24         35.4478
   666.38         35.4120
   666.52         35.3970
   666.66         35.3936
   666.80         35.3940
   666.94         35.3939
   667.08         35.3913
   667.22         35.3860
   667.36         35.3800
   667.50         35.3760
   667.64         35.3775
   667.78         35.3887
   667.92         35.4155
   668.06         35.4628
   668.20         35.5306
   668.34         35.6125
   668.48         35.6969
   668.62         35.7702
   668.76         35.8204
   668.90         35.8392
   669.04         35.8222
   669.18         35.7704
   669.32         35.6916
   669.46         35.5974
   669.60         35.4981
   669.74         35.3992
   669.88         35.3032
   670.02         35.2103
   670.16         35.1197
   670.30         35.0293
   670.44         34.9361
   670.58         34.8379
   670.72         34.7349
   670.86         34.6312
   671.00         34.5347
   671.14         34.4563
   671.28         34.4063
   671.42         34.3921
   671.56         34.4146
   671.70         34.4690
   671.84         34.5482
   671.98         34.6436
   672.12         34.7466
   672.26         34.8485
   672.40         34.9409
   672.54         35.0159
   672.68         35.0664
   672.82         35.0881
   672.96         35.0800
   673.10         35.0449
   673.24         34.9896
   673.38         34.9235
   673.52         34.8547
   673.66         34.7882
   673.80         34.7260
   673.94         34.6687
   674.08         34.6176
   674.22         34.5735
   674.36         34.5383
   674.50         34.5153
   674.64         34.5091
   674.78         34.5238
   674.92         34.5612
   675.06         34.6196
   675.20         34.6951
   675.34         34.7817
   675.48         34.8708
   675.62         34.9522
   675.76         35.0161
   675.90         35.0556
   676.04         35.0676
   676.18         35.0529
   676.32         35.0162
   676.46         34.9650
   676.60         34.9099
   676.74         34.8628
   676.88         34.8337
   677.02         34.8275
   677.16         34.8423
   677.30         34.8706
   677.44         34.9028
   677.58         34.9297
   677.72         34.9453
   677.86         34.9456
   678.00         34.9288
   678.14         34.8949
   678.28         34.8474
   678.42         34.7922
   678.56         34.7369
   678.70         34.6894
   678.84         34.6565
   678.98         34.6406
   679.12         34.6396
   679.26         34.6495
   679.40         34.6655
   679.54         34.6820
   679.68         34.6938
   679.82         34.7000
   679.96         34.7045
   680.10         34.7132
   680.24         34.7310
   680.38         34.7605
   680.52         34.8006
   680.66         34.8454
   680.80         34.8868
   680.94         34.9178
   681.08         34.9352
   681.22         34.9401
   681.36         34.9346
   681.50         34.9196
   681.64         34.8945
   681.78         34.8599
   681.92         34.8190
   682.06         34.7754
   682.20         34.7320
   682.34         34.6910
   682.48         34.6520
   682.62         34.6122
   682.76         34.5644
   682.90         34.5002
   683.04         34.4139
   683.18         34.3038
   683.32         34.1736
   683.46         34.0319
   683.60         33.8896
   683.74         33.7577
   683.88         33.6457
   684.02         33.5607
   684.16         33.5054
   684.30         33.4784
   684.44         33.4754
   684.58         33.4899
   684.72         33.5138
   684.86         33.5380
   685.00         33.5524
   685.14         33.5480
   685.28         33.5180
   685.42         33.4533
   685.56         33.3374
   685.70         33.1474
   685.84         32.8594
   685.98         32.4558
   686.12         31.9305
   686.26         31.2911
   686.40         30.5606
   686.54         29.7766
   686.68         28.9863
   686.82         28.2422
   686.96         27.5973
   687.10         27.1006
   687.24         26.7894
   687.38         26.6807
   687.52         26.7697
   687.66         27.0324
   687.80         27.4285
   687.94         27.9049
   688.08         28.4022
   688.22         28.8668
   688.36         29.2626
   688.50         29.5743
   688.64         29.8034
   688.78         29.9608
   688.92         30.0636
   689.06         30.1324
   689.20         30.1878
   689.34         30.2471
   689.48         30.3227
   689.62         30.4210
   689.76         30.5421
   689.90         30.6811
   690.04         30.8296
   690.18         30.9767
   690.32         31.1131
   690.46         31.2334
   690.60         31.3361
   690.74         31.4227
   690.88         31.4975
   691.02         31.5662
   691.16         31.6322
   691.30         31.6960
   691.44         31.7569
   691.58         31.8160
   691.72         31.8727
   691.86         31.9251
   692.00         31.9708
   692.14         32.0072
   692.28         32.0312
   692.42         32.0422
   692.56         32.0426
   692.70         32.0369
   692.84         32.0318
   692.98         32.0360
   693.12         32.0571
   693.26         32.0958
   693.40         32.1471
   693.54         32.2036
   693.68         32.2568
   693.82         32.2985
   693.96         32.3244
   694.10         32.3354
   694.24         32.3344
   694.38         32.3236
   694.52         32.3071
   694.66         32.2901
   694.80         32.2783
   694.94         32.2768
   695.08         32.2893
   695.22         32.3165
   695.36         32.3555
   695.50         32.4022
   695.64         32.4527
   695.78         32.5037
   695.92         32.5512
   696.06         32.5928
   696.20         32.6274
   696.34         32.6523
   696.48         32.6617
   696.62         32.6468
   696.76         32.5998
   696.90         32.5175
   697.04         32.4048
   697.18         32.2732
   697.32         32.1365
   697.46         32.0093
   697.60         31.9046
   697.74         31.8327
   697.88         31.8003
   698.02         31.8109
   698.16         31.8636
   698.30         31.9530
   698.44         32.0686
   698.58         32.1966
   698.72         32.3215
   698.86         32.4276
   699.00         32.5026
   699.14         32.5402
   699.28         32.5390
   699.42         32.5029
   699.56         32.4406
   699.70         32.3627
   699.84         32.2777
   699.98         32.1917
   700.12         32.1089
   700.26         32.0314
   700.40         31.9579
   700.54         31.8867
   700.68         31.8183
   700.82         31.7558
   700.96         31.7005
   701.10         31.6497
   701.24         31.5984
   701.38         31.5427
   701.52         31.4830
   701.66         31.4226
   701.80         31.3656
   701.94         31.3162
   702.08         31.2804
   702.22         31.2654
   702.36         31.2760
   702.50         31.3116
   702.64         31.3671
   702.78         31.4357
   702.92         31.5121
   703.06         31.5940
   703.20         31.6817
   703.34         31.7756
   703.48         31.8730
   703.62         31.9700
   703.76         32.0637
   703.90         32.1532
   704.04         32.2367
   704.18         32.3113
   704.32         32.3751
   704.46         32.4293
   704.60         32.4751
   704.74         32.5117
   704.88         32.5374
   705.02         32.5495
   705.16         32.5449
   705.30         32.5221
   705.44         32.4801
   705.58         32.4167
   705.72         32.3295
   705.86         32.2195
   706.00         32.0941
   706.14         31.9650
   706.28         31.8444
   706.42         31.7426
   706.56         31.6689
   706.70         31.6324
   706.84         31.6408
   706.98         31.6959
   707.12         31.7898
   707.26         31.9042
   707.40         32.0181
   707.54         32.1140
   707.68         32.1779
   707.82         32.2001
   707.96         32.1762
   708.10         32.1082
   708.24         32.0059
   708.38         31.8853
   708.52         31.7651
   708.66         31.6613
   708.80         31.5854
   708.94         31.5443
   709.08         31.5402
   709.22         31.5696
   709.36         31.6235
   709.50         31.6888
   709.64         31.7508
   709.78         31.7955
   709.92         31.8125
   710.06         31.7988
   710.20         31.7571
   710.34         31.6929
   710.48         31.6134
   710.62         31.5271
   710.76         31.4424
   710.90         31.3661
   711.04         31.3041
   711.18         31.2608
   711.32         31.2392
   711.46         31.2395
   711.60         31.2581
   711.74         31.2883
   711.88         31.3217
   712.02         31.3516
   712.16         31.3741
   712.30         31.3899
   712.44         31.4034
   712.58         31.4208
   712.72         31.4485
   712.86         31.4896
   713.00         31.5423
   713.14         31.5995
   713.28         31.6510
   713.42         31.6865
   713.56         31.6979
   713.70         31.6795
   713.84         31.6288
   713.98         31.5472
   714.12         31.4401
   714.26         31.3159
   714.40         31.1853
   714.54         31.0617
   714.68         30.9594
   714.82         30.8897
   714.96         30.8587
   715.10         30.8647
   715.24         30.8971
   715.38         30.9429
   715.52         30.9907
   715.66         31.0318
   715.80         31.0587
   715.94         31.0661
   716.08         31.0514
   716.22         31.0144
   716.36         30.9563
   716.50         30.8796
   716.64         30.7859
   716.78         30.6750
   716.92         30.5457
   717.06         30.3989
   717.20         30.2362
   717.34         30.0556
   717.48         29.8514
   717.62         29.6219
   717.76         29.3726
   717.90         29.1151
   718.04         28.8641
   718.18         28.6342
   718.32         28.4375
   718.46         28.2839
   718.60         28.1821
   718.74         28.1361
   718.88         28.1429
   719.02         28.1953
   719.16         28.2859
   719.30         28.4051
   719.44         28.5387
   719.58         28.6717
   719.72         28.7950
   719.86         28.9054
   720.00         29.0046
   720.14         29.0994
   720.28         29.2000
   720.42         29.3147
   720.56         29.4477
   720.70         29.6009
   720.84         29.7752
   720.98         29.9692
   721.12         30.1763
   721.26         30.3842
   721.40         30.5784
   721.54         30.7467
   721.68         30.8829
   721.82         30.9852
   721.96         31.0525
   722.10         31.0844
   722.24         31.0829
   722.38         31.0524
   722.52         30.9972
   722.66         30.9201
   722.80         30.8231
   722.94         30.7097
   723.08         30.5864
   723.22         30.4596
   723.36         30.3346
   723.50         30.2188
   723.64         30.1215
   723.78         30.0492
   723.92         30.0025
   724.06         29.9756
   724.20         29.9595
   724.34         29.9474
   724.48         29.9357
   724.62         29.9220
   724.76         29.9038
   724.90         29.8801
   725.04         29.8536
   725.18         29.8295
   725.32         29.8115
   725.46         29.8019
   725.60         29.8040
   725.74         29.8214
   725.88         29.8548
   726.02         29.9020
   726.16         29.9570
   726.30         30.0069
   726.44         30.0349
   726.58         30.0269
   726.72         29.9774
   726.86         29.8916
   727.00         29.7800
   727.14         29.6532
   727.28         29.5191
   727.42         29.3846
   727.56         29.2548
   727.70         29.1312
   727.84         29.0123
   727.98         28.8966
   728.12         28.7837
   728.26         28.6753
   728.40         28.5741
   728.54         28.4840
   728.68         28.4111
   728.82         28.3615
   728.96         28.3396
   729.10         28.3469
   729.24         28.3842
   729.38         28.4517
   729.52         28.5455
   729.66         28.6549
   729.80         28.7656
   729.94         28.8627
   730.08         28.9345
   730.22         28.9736
   730.36         28.9783
   730.50         28.9534
   730.64         28.9091
   730.78         28.8572
   730.92         28.8094
   731.06         28.7735
   731.20         28.7528
   731.34         28.7456
   731.48         28.7466
   731.62         28.7507
   731.76         28.7554
   731.90         28.7602
   732.04         28.7635
   732.18         28.7618
   732.32         28.7547
   732.46         28.7480
   732.60         28.7521
   732.74         28.7767
   732.88         28.8253
   733.02         28.8955
   733.16         28.9829
   733.30         29.0820
   733.44         29.1848
   733.58         29.2821
   733.72         29.3652
   733.86         29.4267
   734.00         29.4608
   734.14         29.4648
   734.28         29.4385
   734.42         29.3844
   734.56         29.3064
   734.70         29.2103
   734.84         29.1044
   734.98         28.9987
   735.12         28.9012
   735.26         28.8156
   735.40         28.7409
   735.54         28.6761
   735.68         28.6211
   735.82         28.5761
   735.96         28.5405
   736.10         28.5149
   736.24         28.5023
   736.38         28.5056
   736.52         28.5257
   736.66         28.5627
   736.80         28.6156
   736.94         28.6815
   737.08         28.7532
   737.22         28.8200
   737.36         28.8691
   737.50         28.8876
   737.64         28.8643
   737.78         28.7932
   737.92         28.6752
   738.06         28.5181
   738.20         28.3346
   738.34         28.1407
   738.48         27.9543
   738.62         27.7932
   738.76         27.6719
   738.90         27.5983
   739.04         27.5741
   739.18         27.5966
   739.32         27.6592
   739.46         27.7499
   739.60         27.8521
   739.74         27.9490
   739.88         28.0261
   740.02         28.0732
   740.16         28.0854
   740.30         28.0633
   740.44         28.0113
   740.58         27.9349
   740.72         27.8411
   740.86         27.7371
   741.00         27.6298
   741.14         27.5241
   741.28         27.4240
   741.42         27.3349
   741.56         27.2647
   741.70         27.2219
   741.84         27.2111
   741.98         27.2298
   742.12         27.2696
   742.26         27.3202
   742.40         27.3728
   742.54         27.4197
   742.68         27.4548
   742.82         27.4736
   742.96         27.4736
   743.10         27.4548
   743.24         27.4197
   743.38         27.3728
   743.52         27.3202
   743.66         27.2696
   743.80         27.2298
   743.94         27.2111
   744.08         27.2219
   744.22         27.2647
