# File HD33506
# Wavelength [nm]    Normalized Amplitude
   349.70         1.4658
   349.84         1.4394
   349.98         1.4151
   350.12         1.3938
   350.26         1.3752
   350.40         1.3589
   350.54         1.3455
   350.68         1.3358
   350.82         1.3300
   350.96         1.3271
   351.10         1.3262
   351.24         1.3271
   351.38         1.3300
   351.52         1.3358
   351.66         1.3455
   351.80         1.3589
   351.94         1.3752
   352.08         1.3938
   352.22         1.4151
   352.36         1.4394
   352.50         1.4658
   352.64         1.4930
   352.78         1.5203
   352.92         1.5476
   353.06         1.5758
   353.20         1.6046
   353.34         1.6323
   353.48         1.6557
   353.62         1.6720
   353.76         1.6796
   353.90         1.6783
   354.04         1.6681
   354.18         1.6488
   354.32         1.6199
   354.46         1.5819
   354.60         1.5353
   354.74         1.4815
   354.88         1.4234
   355.02         1.3651
   355.16         1.3122
   355.30         1.2692
   355.44         1.2375
   355.58         1.2154
   355.72         1.2001
   355.86         1.1886
   356.00         1.1780
   356.14         1.1660
   356.28         1.1509
   356.42         1.1323
   356.56         1.1103
   356.70         1.0856
   356.84         1.0592
   356.98         1.0322
   357.12         1.0055
   357.26         0.9798
   357.40         0.9559
   357.54         0.9349
   357.68         0.9170
   357.82         0.9022
   357.96         0.8906
   358.10         0.8831
   358.24         0.8822
   358.38         0.8909
   358.52         0.9132
   358.66         0.9520
   358.80         1.0097
   358.94         1.0873
   359.08         1.1826
   359.22         1.2898
   359.36         1.4005
   359.50         1.5055
   359.64         1.5975
   359.78         1.6710
   359.92         1.7221
   360.06         1.7490
   360.20         1.7527
   360.34         1.7374
   360.48         1.7094
   360.62         1.6746
   360.76         1.6376
   360.90         1.6020
   361.04         1.5719
   361.18         1.5525
   361.32         1.5490
   361.46         1.5651
   361.60         1.6017
   361.74         1.6562
   361.88         1.7238
   362.02         1.7988
   362.16         1.8756
   362.30         1.9484
   362.44         2.0126
   362.58         2.0656
   362.72         2.1071
   362.86         2.1392
   363.00         2.1650
   363.14         2.1862
   363.28         2.2040
   363.42         2.2204
   363.56         2.2373
   363.70         2.2550
   363.84         2.2727
   363.98         2.2890
   364.12         2.3032
   364.26         2.3147
   364.40         2.3239
   364.54         2.3331
   364.68         2.3476
   364.82         2.3741
   364.96         2.4181
   365.10         2.4823
   365.24         2.5654
   365.38         2.6636
   365.52         2.7705
   365.66         2.8766
   365.80         2.9708
   365.94         3.0446
   366.08         3.0925
   366.22         3.1124
   366.36         3.1062
   366.50         3.0804
   366.64         3.0431
   366.78         3.0003
   366.92         2.9559
   367.06         2.9129
   367.20         2.8739
   367.34         2.8391
   367.48         2.8054
   367.62         2.7677
   367.76         2.7228
   367.90         2.6710
   368.04         2.6155
   368.18         2.5613
   368.32         2.5133
   368.46         2.4761
   368.60         2.4548
   368.74         2.4537
   368.88         2.4752
   369.02         2.5183
   369.16         2.5776
   369.30         2.6439
   369.44         2.7061
   369.58         2.7546
   369.72         2.7813
   369.86         2.7812
   370.00         2.7538
   370.14         2.7045
   370.28         2.6433
   370.42         2.5822
   370.56         2.5305
   370.70         2.4924
   370.84         2.4661
   370.98         2.4460
   371.12         2.4263
   371.26         2.4030
   371.40         2.3736
   371.54         2.3361
   371.68         2.2883
   371.82         2.2293
   371.96         2.1601
   372.10         2.0839
   372.24         2.0049
   372.38         1.9279
   372.52         1.8567
   372.66         1.7944
   372.80         1.7421
   372.94         1.6988
   373.08         1.6611
   373.22         1.6255
   373.36         1.5898
   373.50         1.5531
   373.64         1.5166
   373.78         1.4836
   373.92         1.4570
   374.06         1.4388
   374.20         1.4307
   374.34         1.4345
   374.48         1.4508
   374.62         1.4779
   374.76         1.5120
   374.90         1.5494
   375.04         1.5876
   375.18         1.6258
   375.32         1.6635
   375.46         1.6997
   375.60         1.7325
   375.74         1.7598
   375.88         1.7810
   376.02         1.7977
   376.16         1.8140
   376.30         1.8360
   376.44         1.8701
   376.58         1.9206
   376.72         1.9896
   376.86         2.0769
   377.00         2.1794
   377.14         2.2901
   377.28         2.4012
   377.42         2.5056
   377.56         2.5967
   377.70         2.6681
   377.84         2.7140
   377.98         2.7304
   378.12         2.7158
   378.26         2.6713
   378.40         2.6004
   378.54         2.5086
   378.68         2.4028
   378.82         2.2899
   378.96         2.1773
   379.10         2.0725
   379.24         1.9832
   379.38         1.9160
   379.52         1.8744
   379.66         1.8582
   379.80         1.8638
   379.94         1.8862
   380.08         1.9186
   380.22         1.9537
   380.36         1.9848
   380.50         2.0060
   380.64         2.0122
   380.78         1.9984
   380.92         1.9618
   381.06         1.9018
   381.20         1.8208
   381.34         1.7234
   381.48         1.6151
   381.62         1.5016
   381.76         1.3887
   381.90         1.2821
   382.04         1.1867
   382.18         1.1064
   382.32         1.0447
   382.46         1.0042
   382.60         0.9855
   382.74         0.9863
   382.88         1.0025
   383.02         1.0288
   383.16         1.0605
   383.30         1.0938
   383.44         1.1264
   383.58         1.1571
   383.72         1.1852
   383.86         1.2101
   384.00         1.2314
   384.14         1.2488
   384.28         1.2626
   384.42         1.2736
   384.56         1.2824
   384.70         1.2886
   384.84         1.2911
   384.98         1.2892
   385.12         1.2829
   385.26         1.2733
   385.40         1.2621
   385.54         1.2507
   385.68         1.2412
   385.82         1.2345
   385.96         1.2304
   386.10         1.2279
   386.24         1.2271
   386.38         1.2287
   386.52         1.2342
   386.66         1.2446
   386.80         1.2597
   386.94         1.2781
   387.08         1.2987
   387.22         1.3211
   387.36         1.3462
   387.50         1.3745
   387.64         1.4071
   387.78         1.4458
   387.92         1.4928
   388.06         1.5505
   388.20         1.6210
   388.34         1.7053
   388.48         1.8030
   388.62         1.9128
   388.76         2.0323
   388.90         2.1581
   389.04         2.2853
   389.18         2.4076
   389.32         2.5179
   389.46         2.6104
   389.60         2.6821
   389.74         2.7341
   389.88         2.7702
   390.02         2.7955
   390.16         2.8158
   390.30         2.8373
   390.44         2.8658
   390.58         2.9038
   390.72         2.9492
   390.86         2.9956
   391.00         3.0343
   391.14         3.0573
   391.28         3.0592
   391.42         3.0368
   391.56         2.9887
   391.70         2.9144
   391.84         2.8139
   391.98         2.6879
   392.12         2.5395
   392.26         2.3739
   392.40         2.1979
   392.54         2.0191
   392.68         1.8452
   392.82         1.6845
   392.96         1.5444
   393.10         1.4313
   393.24         1.3498
   393.38         1.3030
   393.52         1.2939
   393.66         1.3253
   393.80         1.3985
   393.94         1.5120
   394.08         1.6602
   394.22         1.8350
   394.36         2.0264
   394.50         2.2241
   394.64         2.4185
   394.78         2.6010
   394.92         2.7635
   395.06         2.8973
   395.20         2.9943
   395.34         3.0480
   395.48         3.0543
   395.62         3.0104
   395.76         2.9164
   395.90         2.7768
   396.04         2.6019
   396.18         2.4073
   396.32         2.2114
   396.46         2.0334
   396.60         1.8920
   396.74         1.8025
   396.88         1.7764
   397.02         1.8197
   397.16         1.9320
   397.30         2.1067
   397.44         2.3328
   397.58         2.5964
   397.72         2.8824
   397.86         3.1758
   398.00         3.4626
   398.14         3.7305
   398.28         3.9703
   398.42         4.1776
   398.56         4.3522
   398.70         4.4965
   398.84         4.6154
   398.98         4.7155
   399.12         4.8037
   399.26         4.8845
   399.40         4.9595
   399.54         5.0283
   399.68         5.0913
   399.82         5.1492
   399.96         5.2034
   400.10         5.2564
   400.24         5.3103
   400.38         5.3668
   400.52         5.4264
   400.66         5.4891
   400.80         5.5544
   400.94         5.6215
   401.08         5.6888
   401.22         5.7541
   401.36         5.8155
   401.50         5.8719
   401.64         5.9208
   401.78         5.9576
   401.92         5.9752
   402.06         5.9676
   402.20         5.9317
   402.34         5.8689
   402.48         5.7839
   402.62         5.6850
   402.76         5.5820
   402.90         5.4842
   403.04         5.3981
   403.18         5.3259
   403.32         5.2655
   403.46         5.2129
   403.60         5.1650
   403.74         5.1220
   403.88         5.0861
   404.02         5.0607
   404.16         5.0474
   404.30         5.0442
   404.44         5.0469
   404.58         5.0512
   404.72         5.0545
   404.86         5.0564
   405.00         5.0571
   405.14         5.0545
   405.28         5.0442
   405.42         5.0218
   405.56         4.9850
   405.70         4.9353
   405.84         4.8770
   405.98         4.8162
   406.12         4.7615
   406.26         4.7227
   406.40         4.7056
   406.54         4.7103
   406.68         4.7328
   406.82         4.7683
   406.96         4.8134
   407.10         4.8673
   407.24         4.9293
   407.38         4.9992
   407.52         5.0766
   407.66         5.1619
   407.80         5.2562
   407.94         5.3606
   408.08         5.4746
   408.22         5.5944
   408.36         5.7118
   408.50         5.8157
   408.64         5.8953
   408.78         5.9434
   408.92         5.9553
   409.06         5.9293
   409.20         5.8687
   409.34         5.7822
   409.48         5.6819
   409.62         5.5795
   409.76         5.4843
   409.90         5.4021
   410.04         5.3374
   410.18         5.2931
   410.32         5.2707
   410.46         5.2680
   410.60         5.2795
   410.74         5.2980
   410.88         5.3165
   411.02         5.3288
   411.16         5.3308
   411.30         5.3214
   411.44         5.3018
   411.58         5.2749
   411.72         5.2438
   411.86         5.2115
   412.00         5.1788
   412.14         5.1440
   412.28         5.1043
   412.42         5.0580
   412.56         5.0057
   412.70         4.9511
   412.84         4.8984
   412.98         4.8498
   413.12         4.8046
   413.26         4.7603
   413.40         4.7151
   413.54         4.6690
   413.68         4.6223
   413.82         4.5754
   413.96         4.5281
   414.10         4.4796
   414.24         4.4283
   414.38         4.3722
   414.52         4.3113
   414.66         4.2489
   414.80         4.1913
   414.94         4.1464
   415.08         4.1216
   415.22         4.1211
   415.36         4.1452
   415.50         4.1901
   415.64         4.2501
   415.78         4.3198
   415.92         4.3950
   416.06         4.4708
   416.20         4.5405
   416.34         4.5961
   416.48         4.6314
   416.62         4.6428
   416.76         4.6298
   416.90         4.5947
   417.04         4.5435
   417.18         4.4851
   417.32         4.4303
   417.46         4.3887
   417.60         4.3665
   417.74         4.3669
   417.88         4.3907
   418.02         4.4365
   418.16         4.5010
   418.30         4.5785
   418.44         4.6614
   418.58         4.7398
   418.72         4.8041
   418.86         4.8478
   419.00         4.8685
   419.14         4.8667
   419.28         4.8462
   419.42         4.8136
   419.56         4.7782
   419.70         4.7492
   419.84         4.7344
   419.98         4.7388
   420.12         4.7627
   420.26         4.8034
   420.40         4.8571
   420.54         4.9212
   420.68         4.9954
   420.82         5.0812
   420.96         5.1803
   421.10         5.2924
   421.24         5.4124
   421.38         5.5306
   421.52         5.6337
   421.66         5.7096
   421.80         5.7526
   421.94         5.7641
   422.08         5.7499
   422.22         5.7163
   422.36         5.6696
   422.50         5.6166
   422.64         5.5656
   422.78         5.5260
   422.92         5.5086
   423.06         5.5244
   423.20         5.5831
   423.34         5.6895
   423.48         5.8397
   423.62         6.0200
   423.76         6.2083
   423.90         6.3811
   424.04         6.5197
   424.18         6.6145
   424.32         6.6645
   424.46         6.6747
   424.60         6.6511
   424.74         6.5987
   424.88         6.5221
   425.02         6.4285
   425.16         6.3302
   425.30         6.2434
   425.44         6.1834
   425.58         6.1609
   425.72         6.1785
   425.86         6.2294
   426.00         6.2976
   426.14         6.3620
   426.28         6.4026
   426.42         6.4070
   426.56         6.3736
   426.70         6.3097
   426.84         6.2271
   426.98         6.1387
   427.12         6.0569
   427.26         5.9923
   427.40         5.9524
   427.54         5.9418
   427.68         5.9622
   427.82         6.0103
   427.96         6.0769
   428.10         6.1482
   428.24         6.2096
   428.38         6.2495
   428.52         6.2606
   428.66         6.2410
   428.80         6.1927
   428.94         6.1206
   429.08         6.0304
   429.22         5.9266
   429.36         5.8111
   429.50         5.6834
   429.64         5.5427
   429.78         5.3897
   429.92         5.2280
   430.06         5.0652
   430.20         4.9139
   430.34         4.7903
   430.48         4.7144
   430.62         4.7075
   430.76         4.7862
   430.90         4.9569
   431.04         5.2143
   431.18         5.5402
   431.32         5.9054
   431.46         6.2762
   431.60         6.6229
   431.74         6.9252
   431.88         7.1722
   432.02         7.3607
   432.16         7.4941
   432.30         7.5838
   432.44         7.6465
   432.58         7.6990
   432.72         7.7542
   432.86         7.8185
   433.00         7.8934
   433.14         7.9768
   433.28         8.0634
   433.42         8.1455
   433.56         8.2154
   433.70         8.2681
   433.84         8.3022
   433.98         8.3189
   434.12         8.3227
   434.26         8.3209
   434.40         8.3215
   434.54         8.3289
   434.68         8.3444
   434.82         8.3668
   434.96         8.3933
   435.10         8.4204
   435.24         8.4465
   435.38         8.4737
   435.52         8.5073
   435.66         8.5526
   435.80         8.6129
   435.94         8.6871
   436.08         8.7689
   436.22         8.8474
   436.36         8.9096
   436.50         8.9437
   436.64         8.9427
   436.78         8.9060
   436.92         8.8375
   437.06         8.7405
   437.20         8.6135
   437.34         8.4533
   437.48         8.2607
   437.62         8.0435
   437.76         7.8142
   437.90         7.5863
   438.04         7.3715
   438.18         7.1800
   438.32         7.0216
   438.46         6.9067
   438.60         6.8448
   438.74         6.8416
   438.88         6.8966
   439.02         7.0039
   439.16         7.1520
   439.30         7.3219
   439.44         7.4891
   439.58         7.6296
   439.72         7.7265
   439.86         7.7753
   440.00         7.7850
   440.14         7.7731
   440.28         7.7550
   440.42         7.7403
   440.56         7.7364
   440.70         7.7513
   440.84         7.7929
   440.98         7.8654
   441.12         7.9659
   441.26         8.0860
   441.40         8.2146
   441.54         8.3405
   441.68         8.4545
   441.82         8.5493
   441.96         8.6205
   442.10         8.6676
   442.24         8.6942
   442.38         8.7051
   442.52         8.7053
   442.66         8.7015
   442.80         8.6992
   442.94         8.7012
   443.08         8.7091
   443.22         8.7262
   443.36         8.7574
   443.50         8.8055
   443.64         8.8706
   443.78         8.9522
   443.92         9.0505
   444.06         9.1633
   444.20         9.2835
   444.34         9.3985
   444.48         9.4946
   444.62         9.5599
   444.76         9.5864
   444.90         9.5694
   445.04         9.5091
   445.18         9.4125
   445.32         9.2920
   445.46         9.1600
   445.60         9.0278
   445.74         8.9069
   445.88         8.8111
   446.02         8.7527
   446.16         8.7400
   446.30         8.7759
   446.44         8.8589
   446.58         8.9833
   446.72         9.1387
   446.86         9.3117
   447.00         9.4873
   447.14         9.6537
   447.28         9.8042
   447.42         9.9366
   447.56         10.0522
   447.70         10.1528
   447.84         10.2387
   447.98         10.3085
   448.12         10.3583
   448.26         10.3835
   448.40         10.3807
   448.54         10.3516
   448.68         10.3034
   448.82         10.2456
   448.96         10.1878
   449.10         10.1400
   449.24         10.1131
   449.38         10.1159
   449.52         10.1543
   449.66         10.2315
   449.80         10.3488
   449.94         10.5033
   450.08         10.6843
   450.22         10.8732
   450.36         11.0491
   450.50         11.1947
   450.64         11.2986
   450.78         11.3565
   450.92         11.3709
   451.06         11.3500
   451.20         11.3040
   451.34         11.2399
   451.48         11.1592
   451.62         11.0599
   451.76         10.9407
   451.90         10.8012
   452.04         10.6422
   452.18         10.4657
   452.32         10.2771
   452.46         10.0857
   452.60         9.9041
   452.74         9.7444
   452.88         9.6174
   453.02         9.5324
   453.16         9.4955
   453.30         9.5080
   453.44         9.5655
   453.58         9.6574
   453.72         9.7685
   453.86         9.8814
   454.00         9.9808
   454.14         10.0565
   454.28         10.1059
   454.42         10.1348
   454.56         10.1542
   454.70         10.1765
   454.84         10.2122
   454.98         10.2674
   455.12         10.3443
   455.26         10.4390
   455.40         10.5427
   455.54         10.6462
   455.68         10.7435
   455.82         10.8313
   455.96         10.9065
   456.10         10.9676
   456.24         11.0161
   456.38         11.0552
   456.52         11.0886
   456.66         11.1182
   456.80         11.1435
   456.94         11.1628
   457.08         11.1748
   457.22         11.1768
   457.36         11.1641
   457.50         11.1328
   457.64         11.0832
   457.78         11.0197
   457.92         10.9493
   458.06         10.8804
   458.20         10.8210
   458.34         10.7757
   458.48         10.7441
   458.62         10.7229
   458.76         10.7093
   458.90         10.7016
   459.04         10.6961
   459.18         10.6869
   459.32         10.6693
   459.46         10.6438
   459.60         10.6194
   459.74         10.6093
   459.88         10.6250
   460.02         10.6726
   460.16         10.7544
   460.30         10.8684
   460.44         11.0088
   460.58         11.1670
   460.72         11.3322
   460.86         11.4939
   461.00         11.6425
   461.14         11.7711
   461.28         11.8770
   461.42         11.9603
   461.56         12.0215
   461.70         12.0617
   461.84         12.0844
   461.98         12.0959
   462.12         12.1020
   462.26         12.1054
   462.40         12.1035
   462.54         12.0895
   462.68         12.0562
   462.82         11.9997
   462.96         11.9202
   463.10         11.8201
   463.24         11.7018
   463.38         11.5667
   463.52         11.4161
   463.66         11.2533
   463.80         11.0842
   463.94         10.9179
   464.08         10.7651
   464.22         10.6359
   464.36         10.5372
   464.50         10.4719
   464.64         10.4415
   464.78         10.4465
   464.92         10.4873
   465.06         10.5609
   465.20         10.6601
   465.34         10.7732
   465.48         10.8853
   465.62         10.9801
   465.76         11.0437
   465.90         11.0683
   466.04         11.0542
   466.18         11.0090
   466.32         10.9463
   466.46         10.8816
   466.60         10.8283
   466.74         10.7946
   466.88         10.7831
   467.02         10.7921
   467.16         10.8202
   467.30         10.8665
   467.44         10.9266
   467.58         10.9913
   467.72         11.0487
   467.86         11.0878
   468.00         11.1020
   468.14         11.0896
   468.28         11.0551
   468.42         11.0091
   468.56         10.9620
   468.70         10.9194
   468.84         10.8821
   468.98         10.8484
   469.12         10.8155
   469.26         10.7811
   469.40         10.7439
   469.54         10.7037
   469.68         10.6622
   469.82         10.6217
   469.96         10.5851
   470.10         10.5544
   470.24         10.5318
   470.38         10.5191
   470.52         10.5204
   470.66         10.5414
   470.80         10.5867
   470.94         10.6591
   471.08         10.7583
   471.22         10.8797
   471.36         11.0169
   471.50         11.1628
   471.64         11.3079
   471.78         11.4403
   471.92         11.5480
   472.06         11.6212
   472.20         11.6543
   472.34         11.6475
   472.48         11.6058
   472.62         11.5378
   472.76         11.4546
   472.90         11.3676
   473.04         11.2877
   473.18         11.2254
   473.32         11.1882
   473.46         11.1792
   473.60         11.1986
   473.74         11.2432
   473.88         11.3083
   474.02         11.3871
   474.16         11.4695
   474.30         11.5446
   474.44         11.6051
   474.58         11.6496
   474.72         11.6810
   474.86         11.7032
   475.00         11.7189
   475.14         11.7287
   475.28         11.7310
   475.42         11.7242
   475.56         11.7074
   475.70         11.6823
   475.84         11.6533
   475.98         11.6259
   476.12         11.6059
   476.26         11.5980
   476.40         11.6062
   476.54         11.6336
   476.68         11.6816
   476.82         11.7485
   476.96         11.8306
   477.10         11.9226
   477.24         12.0164
   477.38         12.1020
   477.52         12.1692
   477.66         12.2096
   477.80         12.2175
   477.94         12.1932
   478.08         12.1432
   478.22         12.0790
   478.36         12.0139
   478.50         11.9588
   478.64         11.9213
   478.78         11.9047
   478.92         11.9092
   479.06         11.9334
   479.20         11.9734
   479.34         12.0225
   479.48         12.0721
   479.62         12.1143
   479.76         12.1435
   479.90         12.1565
   480.04         12.1532
   480.18         12.1357
   480.32         12.1087
   480.46         12.0798
   480.60         12.0592
   480.74         12.0556
   480.88         12.0733
   481.02         12.1112
   481.16         12.1647
   481.30         12.2285
   481.44         12.2973
   481.58         12.3655
   481.72         12.4272
   481.86         12.4755
   482.00         12.5053
   482.14         12.5142
   482.28         12.5032
   482.42         12.4762
   482.56         12.4399
   482.70         12.4018
   482.84         12.3682
   482.98         12.3426
   483.12         12.3265
   483.26         12.3187
   483.40         12.3158
   483.54         12.3140
   483.68         12.3094
   483.82         12.2989
   483.96         12.2814
   484.10         12.2577
   484.24         12.2279
   484.38         12.1908
   484.52         12.1466
   484.66         12.0974
   484.80         12.0436
   484.94         11.9822
   485.08         11.9085
   485.22         11.8177
   485.36         11.7071
   485.50         11.5779
   485.64         11.4365
   485.78         11.2933
   485.92         11.1575
   486.06         11.0348
   486.20         10.9281
   486.34         10.8399
   486.48         10.7745
   486.62         10.7370
   486.76         10.7310
   486.90         10.7573
   487.04         10.8146
   487.18         10.8989
   487.32         11.0019
   487.46         11.1119
   487.60         11.2171
   487.74         11.3092
   487.88         11.3838
   488.02         11.4388
   488.16         11.4734
   488.30         11.4904
   488.44         11.4961
   488.58         11.4998
   488.72         11.5132
   488.86         11.5475
   489.00         11.6113
   489.14         11.7076
   489.28         11.8333
   489.42         11.9813
   489.56         12.1421
   489.70         12.3023
   489.84         12.4455
   489.98         12.5563
   490.12         12.6238
   490.26         12.6434
   490.40         12.6183
   490.54         12.5572
   490.68         12.4709
   490.82         12.3682
   490.96         12.2544
   491.10         12.1317
   491.24         12.0018
   491.38         11.8671
   491.52         11.7322
   491.66         11.6055
   491.80         11.4988
   491.94         11.4257
   492.08         11.3981
   492.22         11.4212
   492.36         11.4917
   492.50         11.6011
   492.64         11.7385
   492.78         11.8899
   492.92         12.0405
   493.06         12.1764
   493.20         12.2870
   493.34         12.3655
   493.48         12.4098
   493.62         12.4257
   493.76         12.4256
   493.90         12.4242
   494.04         12.4361
   494.18         12.4719
   494.32         12.5377
   494.46         12.6335
   494.60         12.7506
   494.74         12.8715
   494.88         12.9765
   495.02         13.0500
   495.16         13.0845
   495.30         13.0804
   495.44         13.0433
   495.58         12.9824
   495.72         12.9077
   495.86         12.8278
   496.00         12.7492
   496.14         12.6773
   496.28         12.6176
   496.42         12.5756
   496.56         12.5548
   496.70         12.5541
   496.84         12.5660
   496.98         12.5799
   497.12         12.5842
   497.26         12.5682
   497.40         12.5252
   497.54         12.4560
   497.68         12.3671
   497.82         12.2675
   497.96         12.1662
   498.10         12.0696
   498.24         11.9831
   498.38         11.9128
   498.52         11.8652
   498.66         11.8456
   498.80         11.8570
   498.94         11.8978
   499.08         11.9603
   499.22         12.0312
   499.36         12.0944
   499.50         12.1347
   499.64         12.1413
   499.78         12.1083
   499.92         12.0369
   500.06         11.9340
   500.20         11.8098
   500.34         11.6726
   500.48         11.5283
   500.62         11.3816
   500.76         11.2367
   500.90         11.0992
   501.04         10.9751
   501.18         10.8693
   501.32         10.7855
   501.46         10.7268
   501.60         10.6957
   501.74         10.6925
   501.88         10.7155
   502.02         10.7629
   502.16         10.8344
   502.30         10.9311
   502.44         11.0531
   502.58         11.1953
   502.72         11.3477
   502.86         11.4954
   503.00         11.6218
   503.14         11.7121
   503.28         11.7590
   503.42         11.7642
   503.56         11.7363
   503.70         11.6874
   503.84         11.6289
   503.98         11.5711
   504.12         11.5222
   504.26         11.4871
   504.40         11.4689
   504.54         11.4708
   504.68         11.4964
   504.82         11.5480
   504.96         11.6245
   505.10         11.7214
   505.24         11.8311
   505.38         11.9444
   505.52         12.0506
   505.66         12.1403
   505.80         12.2097
   505.94         12.2612
   506.08         12.2973
   506.22         12.3160
   506.36         12.3124
   506.50         12.2832
   506.64         12.2312
   506.78         12.1634
   506.92         12.0869
   507.06         12.0067
   507.20         11.9265
   507.34         11.8489
   507.48         11.7764
   507.62         11.7118
   507.76         11.6573
   507.90         11.6137
   508.04         11.5819
   508.18         11.5656
   508.32         11.5709
   508.46         11.6028
   508.60         11.6607
   508.74         11.7374
   508.88         11.8213
   509.02         11.9011
   509.16         11.9694
   509.30         12.0201
   509.44         12.0471
   509.58         12.0467
   509.72         12.0202
   509.86         11.9733
   510.00         11.9127
   510.14         11.8460
   510.28         11.7823
   510.42         11.7296
   510.56         11.6949
   510.70         11.6840
   510.84         11.7000
   510.98         11.7400
   511.12         11.7961
   511.26         11.8573
   511.40         11.9117
   511.54         11.9488
   511.68         11.9623
   511.82         11.9483
   511.96         11.9045
   512.10         11.8331
   512.24         11.7420
   512.38         11.6421
   512.52         11.5457
   512.66         11.4644
   512.80         11.4068
   512.94         11.3766
   513.08         11.3733
   513.22         11.3918
   513.36         11.4232
   513.50         11.4563
   513.64         11.4789
   513.78         11.4820
   513.92         11.4614
   514.06         11.4174
   514.20         11.3533
   514.34         11.2756
   514.48         11.1945
   514.62         11.1222
   514.76         11.0688
   514.90         11.0405
   515.04         11.0386
   515.18         11.0596
   515.32         11.0948
   515.46         11.1305
   515.60         11.1501
   515.74         11.1368
   515.88         11.0776
   516.02         10.9652
   516.16         10.7972
   516.30         10.5775
   516.44         10.3201
   516.58         10.0480
   516.72         9.7882
   516.86         9.5678
   517.00         9.4100
   517.14         9.3270
   517.28         9.3163
   517.42         9.3653
   517.56         9.4598
   517.70         9.5873
   517.84         9.7352
   517.98         9.8902
   518.12         10.0402
   518.26         10.1763
   518.40         10.2962
   518.54         10.4032
   518.68         10.5032
   518.82         10.6035
   518.96         10.7140
   519.10         10.8435
   519.24         10.9918
   519.38         11.1477
   519.52         11.2919
   519.66         11.4036
   519.80         11.4681
   519.94         11.4827
   520.08         11.4578
   520.22         11.4122
   520.36         11.3629
   520.50         11.3201
   520.64         11.2908
   520.78         11.2807
   520.92         11.2963
   521.06         11.3438
   521.20         11.4249
   521.34         11.5332
   521.48         11.6547
   521.62         11.7703
   521.76         11.8616
   521.90         11.9162
   522.04         11.9311
   522.18         11.9114
   522.32         11.8676
   522.46         11.8143
   522.60         11.7680
   522.74         11.7452
   522.88         11.7577
   523.02         11.8111
   523.16         11.9061
   523.30         12.0394
   523.44         12.2026
   523.58         12.3822
   523.72         12.5592
   523.86         12.7126
   524.00         12.8247
   524.14         12.8860
   524.28         12.8953
   524.42         12.8587
   524.56         12.7868
   524.70         12.6933
   524.84         12.5918
   524.98         12.4941
   525.12         12.4089
   525.26         12.3393
   525.40         12.2806
   525.54         12.2223
   525.68         12.1530
   525.82         12.0609
   525.96         11.9363
   526.10         11.7749
   526.24         11.5811
   526.38         11.3673
   526.52         11.1525
   526.66         10.9605
   526.80         10.8157
   526.94         10.7372
   527.08         10.7356
   527.22         10.8130
   527.36         10.9625
   527.50         11.1691
   527.64         11.4138
   527.78         11.6777
   527.92         11.9448
   528.06         12.2029
   528.20         12.4451
   528.34         12.6669
   528.48         12.8634
   528.62         13.0289
   528.76         13.1602
   528.90         13.2551
   529.04         13.3133
   529.18         13.3375
   529.32         13.3338
   529.46         13.3110
   529.60         13.2789
   529.74         13.2478
   529.88         13.2293
   530.02         13.2350
   530.16         13.2732
   530.30         13.3461
   530.44         13.4498
   530.58         13.5750
   530.72         13.7071
   530.86         13.8298
   531.00         13.9285
   531.14         13.9915
   531.28         14.0107
   531.42         13.9838
   531.56         13.9122
   531.70         13.7973
   531.84         13.6420
   531.98         13.4543
   532.12         13.2474
   532.26         13.0369
   532.40         12.8396
   532.54         12.6725
   532.68         12.5493
   532.82         12.4770
   532.96         12.4563
   533.10         12.4826
   533.24         12.5473
   533.38         12.6405
   533.52         12.7514
   533.66         12.8679
   533.80         12.9767
   533.94         13.0664
   534.08         13.1315
   534.22         13.1732
   534.36         13.2007
   534.50         13.2298
   534.64         13.2773
   534.78         13.3537
   534.92         13.4624
   535.06         13.5999
   535.20         13.7564
   535.34         13.9166
   535.48         14.0638
   535.62         14.1832
   535.76         14.2637
   535.90         14.2959
   536.04         14.2720
   536.18         14.1899
   536.32         14.0572
   536.46         13.8904
   536.60         13.7110
   536.74         13.5409
   536.88         13.3993
   537.02         13.3001
   537.16         13.2494
   537.30         13.2456
   537.44         13.2821
   537.58         13.3492
   537.72         13.4340
   537.86         13.5202
   538.00         13.5917
   538.14         13.6351
   538.28         13.6418
   538.42         13.6074
   538.56         13.5316
   538.70         13.4201
   538.84         13.2858
   538.98         13.1435
   539.12         13.0050
   539.26         12.8766
   539.40         12.7600
   539.54         12.6536
   539.68         12.5552
   539.82         12.4640
   539.96         12.3806
   540.10         12.3090
   540.24         12.2557
   540.38         12.2267
   540.52         12.2279
   540.66         12.2652
   540.80         12.3427
   540.94         12.4603
   541.08         12.6130
   541.22         12.7917
   541.36         12.9854
   541.50         13.1829
   541.64         13.3716
   541.78         13.5375
   541.92         13.6663
   542.06         13.7476
   542.20         13.7772
   542.34         13.7572
   542.48         13.6938
   542.62         13.5973
   542.76         13.4828
   542.90         13.3683
   543.04         13.2716
   543.18         13.2076
   543.32         13.1846
   543.46         13.2025
   543.60         13.2537
   543.74         13.3270
   543.88         13.4135
   544.02         13.5075
   544.16         13.6035
   544.30         13.6920
   544.44         13.7607
   544.58         13.7999
   544.72         13.8076
   544.86         13.7892
   545.00         13.7545
   545.14         13.7147
   545.28         13.6801
   545.42         13.6577
   545.56         13.6497
   545.70         13.6539
   545.84         13.6642
   545.98         13.6727
   546.12         13.6733
   546.26         13.6631
   546.40         13.6431
   546.54         13.6145
   546.68         13.5756
   546.82         13.5222
   546.96         13.4523
   547.10         13.3683
   547.24         13.2777
   547.38         13.1912
   547.52         13.1176
   547.66         13.0612
   547.80         13.0224
   547.94         13.0006
   548.08         12.9962
   548.22         13.0091
   548.36         13.0384
   548.50         13.0818
   548.64         13.1365
   548.78         13.1995
   548.92         13.2683
   549.06         13.3420
   549.20         13.4194
   549.34         13.4987
   549.48         13.5771
   549.62         13.6501
   549.76         13.7131
   549.90         13.7636
   550.04         13.7991
   550.18         13.8153
   550.32         13.8072
   550.46         13.7725
   550.60         13.7134
   550.74         13.6369
   550.88         13.5535
   551.02         13.4753
   551.16         13.4123
   551.30         13.3711
   551.44         13.3550
   551.58         13.3647
   551.72         13.3962
   551.86         13.4406
   552.00         13.4879
   552.14         13.5309
   552.28         13.5651
   552.42         13.5885
   552.56         13.6007
   552.70         13.6010
   552.84         13.5896
   552.98         13.5706
   553.12         13.5523
   553.26         13.5445
   553.40         13.5546
   553.54         13.5858
   553.68         13.6375
   553.82         13.7073
   553.96         13.7920
   554.10         13.8882
   554.24         13.9906
   554.38         14.0921
   554.52         14.1854
   554.66         14.2645
   554.80         14.3251
   554.94         14.3642
   555.08         14.3806
   555.22         14.3743
   555.36         14.3471
   555.50         14.3026
   555.64         14.2461
   555.78         14.1813
   555.92         14.1113
   556.06         14.0390
   556.20         13.9679
   556.34         13.9016
   556.48         13.8436
   556.62         13.7973
   556.76         13.7651
   556.90         13.7474
   557.04         13.7429
   557.18         13.7497
   557.32         13.7649
   557.46         13.7852
   557.60         13.8051
   557.74         13.8170
   557.88         13.8122
   558.02         13.7836
   558.16         13.7270
   558.30         13.6426
   558.44         13.5357
   558.58         13.4159
   558.72         13.2955
   558.86         13.1867
   559.00         13.0993
   559.14         13.0396
   559.28         13.0093
   559.42         13.0068
   559.56         13.0300
   559.70         13.0781
   559.84         13.1499
   559.98         13.2423
   560.12         13.3518
   560.26         13.4742
   560.40         13.6040
   560.54         13.7330
   560.68         13.8514
   560.82         13.9505
   560.96         14.0245
   561.10         14.0698
   561.24         14.0842
   561.38         14.0669
   561.52         14.0163
   561.66         13.9324
   561.80         13.8211
   561.94         13.6950
   562.08         13.5708
   562.22         13.4644
   562.36         13.3868
   562.50         13.3427
   562.64         13.3316
   562.78         13.3502
   562.92         13.3914
   563.06         13.4460
   563.20         13.5030
   563.34         13.5546
   563.48         13.5978
   563.62         13.6329
   563.76         13.6600
   563.90         13.6789
   564.04         13.6898
   564.18         13.6948
   564.32         13.6987
   564.46         13.7078
   564.60         13.7256
   564.74         13.7508
   564.88         13.7766
   565.02         13.7950
   565.16         13.7994
   565.30         13.7861
   565.44         13.7552
   565.58         13.7100
   565.72         13.6556
   565.86         13.5972
   566.00         13.5412
   566.14         13.4949
   566.28         13.4660
   566.42         13.4604
   566.56         13.4825
   566.70         13.5338
   566.84         13.6129
   566.98         13.7141
   567.12         13.8281
   567.26         13.9435
   567.40         14.0490
   567.54         14.1360
   567.68         14.1991
   567.82         14.2362
   567.96         14.2472
   568.10         14.2349
   568.24         14.2046
   568.38         14.1624
   568.52         14.1155
   568.66         14.0721
   568.80         14.0397
   568.94         14.0218
   569.08         14.0157
   569.22         14.0138
   569.36         14.0073
   569.50         13.9895
   569.64         13.9553
   569.78         13.9003
   569.92         13.8217
   570.06         13.7196
   570.20         13.5980
   570.34         13.4652
   570.48         13.3338
   570.62         13.2188
   570.76         13.1327
   570.90         13.0838
   571.04         13.0765
   571.18         13.1133
   571.32         13.1940
   571.46         13.3142
   571.60         13.4656
   571.74         13.6375
   571.88         13.8191
   572.02         14.0006
   572.16         14.1718
   572.30         14.3207
   572.44         14.4384
   572.58         14.5218
   572.72         14.5733
   572.86         14.5990
   573.00         14.6063
   573.14         14.6010
   573.28         14.5861
   573.42         14.5628
   573.56         14.5333
   573.70         14.5017
   573.84         14.4718
   573.98         14.4446
   574.12         14.4193
   574.26         14.3939
   574.40         14.3657
   574.54         14.3335
   574.68         14.2983
   574.82         14.2631
   574.96         14.2311
   575.10         14.2044
   575.24         14.1825
   575.38         14.1633
   575.52         14.1470
   575.66         14.1349
   575.80         14.1300
   575.94         14.1369
   576.08         14.1603
   576.22         14.2036
   576.36         14.2675
   576.50         14.3482
   576.64         14.4391
   576.78         14.5318
   576.92         14.6163
   577.06         14.6811
   577.20         14.7151
   577.34         14.7092
   577.48         14.6561
   577.62         14.5528
   577.76         14.4038
   577.90         14.2218
   578.04         14.0258
   578.18         13.8358
   578.32         13.6697
   578.46         13.5414
   578.60         13.4593
   578.74         13.4255
   578.88         13.4371
   579.02         13.4894
   579.16         13.5768
   579.30         13.6910
   579.44         13.8193
   579.58         13.9467
   579.72         14.0605
   579.86         14.1538
   580.00         14.2265
   580.14         14.2833
   580.28         14.3315
   580.42         14.3766
   580.56         14.4192
   580.70         14.4571
   580.84         14.4895
   580.98         14.5188
   581.12         14.5475
   581.26         14.5766
   581.40         14.6075
   581.54         14.6426
   581.68         14.6835
   581.82         14.7302
   581.96         14.7804
   582.10         14.8322
   582.24         14.8850
   582.38         14.9386
   582.52         14.9920
   582.66         15.0433
   582.80         15.0897
   582.94         15.1274
   583.08         15.1534
   583.22         15.1671
   583.36         15.1714
   583.50         15.1701
   583.64         15.1646
   583.78         15.1542
   583.92         15.1384
   584.06         15.1179
   584.20         15.0924
   584.34         15.0606
   584.48         15.0216
   584.62         14.9729
   584.76         14.9108
   584.90         14.8337
   585.04         14.7450
   585.18         14.6520
   585.32         14.5621
   585.46         14.4830
   585.60         14.4214
   585.74         14.3835
   585.88         14.3746
   586.02         14.3964
   586.16         14.4473
   586.30         14.5241
   586.44         14.6222
   586.58         14.7334
   586.72         14.8475
   586.86         14.9521
   587.00         15.0350
   587.14         15.0870
   587.28         15.1024
   587.42         15.0808
   587.56         15.0258
   587.70         14.9375
   587.84         14.8074
   587.98         14.6242
   588.12         14.3855
   588.26         14.0985
   588.40         13.7737
   588.54         13.4217
   588.68         13.0570
   588.82         12.7019
   588.96         12.3837
   589.10         12.1283
   589.24         11.9563
   589.38         11.8810
   589.52         11.9080
   589.66         12.0352
   589.80         12.2532
   589.94         12.5446
   590.08         12.8850
   590.22         13.2445
   590.36         13.5907
   590.50         13.8967
   590.64         14.1491
   590.78         14.3458
   590.92         14.4876
   591.06         14.5762
   591.20         14.6191
   591.34         14.6298
   591.48         14.6223
   591.62         14.6067
   591.76         14.5890
   591.90         14.5718
   592.04         14.5569
   592.18         14.5459
   592.32         14.5399
   592.46         14.5389
   592.60         14.5424
   592.74         14.5496
   592.88         14.5580
   593.02         14.5646
   593.16         14.5674
   593.30         14.5672
   593.44         14.5662
   593.58         14.5656
   593.72         14.5644
   593.86         14.5601
   594.00         14.5521
   594.14         14.5411
   594.28         14.5270
   594.42         14.5077
   594.56         14.4825
   594.70         14.4526
   594.84         14.4202
   594.98         14.3882
   595.12         14.3613
   595.26         14.3436
   595.40         14.3369
   595.54         14.3402
   595.68         14.3531
   595.82         14.3770
   595.96         14.4138
   596.10         14.4622
   596.24         14.5172
   596.38         14.5726
   596.52         14.6220
   596.66         14.6584
   596.80         14.6759
   596.94         14.6714
   597.08         14.6467
   597.22         14.6055
   597.36         14.5506
   597.50         14.4852
   597.64         14.4141
   597.78         14.3420
   597.92         14.2729
   598.06         14.2116
   598.20         14.1649
   598.34         14.1400
   598.48         14.1409
   598.62         14.1656
   598.76         14.2070
   598.90         14.2586
   599.04         14.3148
   599.18         14.3695
   599.32         14.4176
   599.46         14.4560
   599.60         14.4810
   599.74         14.4877
   599.88         14.4726
   600.02         14.4369
   600.16         14.3859
   600.30         14.3244
   600.44         14.2572
   600.58         14.1891
   600.72         14.1245
   600.86         14.0660
   601.00         14.0136
   601.14         13.9669
   601.28         13.9264
   601.42         13.8949
   601.56         13.8763
   601.70         13.8735
   601.84         13.8873
   601.98         13.9164
   602.12         13.9586
   602.26         14.0114
   602.40         14.0729
   602.54         14.1418
   602.68         14.2157
   602.82         14.2897
   602.96         14.3581
   603.10         14.4175
   603.24         14.4667
   603.38         14.5054
   603.52         14.5342
   603.66         14.5550
   603.80         14.5716
   603.94         14.5879
   604.08         14.6053
   604.22         14.6229
   604.36         14.6392
   604.50         14.6516
   604.64         14.6588
   604.78         14.6614
   604.92         14.6609
   605.06         14.6576
   605.20         14.6510
   605.34         14.6395
   605.48         14.6232
   605.62         14.6044
   605.76         14.5877
   605.90         14.5780
   606.04         14.5787
   606.18         14.5914
   606.32         14.6149
   606.46         14.6454
   606.60         14.6767
   606.74         14.7014
   606.88         14.7128
   607.02         14.7066
   607.16         14.6811
   607.30         14.6369
   607.44         14.5766
   607.58         14.5039
   607.72         14.4233
   607.86         14.3393
   608.00         14.2577
   608.14         14.1845
   608.28         14.1243
   608.42         14.0791
   608.56         14.0480
   608.70         14.0282
   608.84         14.0160
   608.98         14.0061
   609.12         13.9938
   609.26         13.9768
   609.40         13.9555
   609.54         13.9326
   609.68         13.9122
   609.82         13.8989
   609.96         13.8960
   610.10         13.9050
   610.24         13.9257
   610.38         13.9562
   610.52         13.9935
   610.66         14.0342
   610.80         14.0748
   610.94         14.1102
   611.08         14.1344
   611.22         14.1431
   611.36         14.1353
   611.50         14.1119
   611.64         14.0748
   611.78         14.0280
   611.92         13.9778
   612.06         13.9314
   612.20         13.8944
   612.34         13.8683
   612.48         13.8484
   612.62         13.8271
   612.76         13.7994
   612.90         13.7643
   613.04         13.7230
   613.18         13.6773
   613.32         13.6306
   613.46         13.5877
   613.60         13.5535
   613.74         13.5326
   613.88         13.5288
   614.02         13.5441
   614.16         13.5775
   614.30         13.6256
   614.44         13.6842
   614.58         13.7478
   614.72         13.8099
   614.86         13.8615
   615.00         13.8920
   615.14         13.8933
   615.28         13.8648
   615.42         13.8130
   615.56         13.7458
   615.70         13.6695
   615.84         13.5886
   615.98         13.5071
   616.12         13.4301
   616.26         13.3631
   616.40         13.3126
   616.54         13.2845
   616.68         13.2842
   616.82         13.3147
   616.96         13.3752
   617.10         13.4624
   617.24         13.5709
   617.38         13.6924
   617.52         13.8166
   617.66         13.9329
   617.80         14.0328
   617.94         14.1103
   618.08         14.1606
   618.22         14.1813
   618.36         14.1729
   618.50         14.1408
   618.64         14.0949
   618.78         14.0469
   618.92         14.0065
   619.06         13.9806
   619.20         13.9748
   619.34         13.9924
   619.48         14.0331
   619.62         14.0938
   619.76         14.1694
   619.90         14.2531
   620.04         14.3361
   620.18         14.4079
   620.32         14.4575
   620.46         14.4757
   620.60         14.4584
   620.74         14.4070
   620.88         14.3264
   621.02         14.2229
   621.16         14.1035
   621.30         13.9760
   621.44         13.8485
   621.58         13.7303
   621.72         13.6305
   621.86         13.5542
   622.00         13.5011
   622.14         13.4675
   622.28         13.4503
   622.42         13.4476
   622.56         13.4578
   622.70         13.4776
   622.84         13.5023
   622.98         13.5274
   623.12         13.5498
   623.26         13.5674
   623.40         13.5782
   623.54         13.5814
   623.68         13.5787
   623.82         13.5742
   623.96         13.5707
   624.10         13.5677
   624.24         13.5615
   624.38         13.5473
   624.52         13.5214
   624.66         13.4827
   624.80         13.4333
   624.94         13.3776
   625.08         13.3198
   625.22         13.2608
   625.36         13.1994
   625.50         13.1357
   625.64         13.0726
   625.78         13.0160
   625.92         12.9727
   626.06         12.9496
   626.20         12.9520
   626.34         12.9812
   626.48         13.0339
   626.62         13.1023
   626.76         13.1773
   626.90         13.2502
   627.04         13.3141
   627.18         13.3648
   627.32         13.4007
   627.46         13.4238
   627.60         13.4389
   627.74         13.4524
   627.88         13.4700
   628.02         13.4961
   628.16         13.5332
   628.30         13.5819
   628.44         13.6406
   628.58         13.7044
   628.72         13.7666
   628.86         13.8199
   629.00         13.8575
   629.14         13.8734
   629.28         13.8644
   629.42         13.8307
   629.56         13.7770
   629.70         13.7129
   629.84         13.6498
   629.98         13.5975
   630.12         13.5623
   630.26         13.5460
   630.40         13.5459
   630.54         13.5548
   630.68         13.5633
   630.82         13.5635
   630.96         13.5514
   631.10         13.5265
   631.24         13.4918
   631.38         13.4531
   631.52         13.4179
   631.66         13.3935
   631.80         13.3858
   631.94         13.3993
   632.08         13.4361
   632.22         13.4952
   632.36         13.5715
   632.50         13.6545
   632.64         13.7321
   632.78         13.7945
   632.92         13.8350
   633.06         13.8503
   633.20         13.8400
   633.34         13.8067
   633.48         13.7565
   633.62         13.6986
   633.76         13.6421
   633.90         13.5943
   634.04         13.5605
   634.18         13.5432
   634.32         13.5415
   634.46         13.5520
   634.60         13.5694
   634.74         13.5871
   634.88         13.5971
   635.02         13.5916
   635.16         13.5648
   635.30         13.5147
   635.44         13.4433
   635.58         13.3560
   635.72         13.2603
   635.86         13.1657
   636.00         13.0834
   636.14         13.0256
   636.28         13.0022
   636.42         13.0184
   636.56         13.0741
   636.70         13.1642
   636.84         13.2790
   636.98         13.4058
   637.12         13.5322
   637.26         13.6475
   637.40         13.7432
   637.54         13.8142
   637.68         13.8596
   637.82         13.8825
   637.96         13.8885
   638.10         13.8832
   638.24         13.8700
   638.38         13.8511
   638.52         13.8297
   638.66         13.8090
   638.80         13.7897
   638.94         13.7689
   639.08         13.7432
   639.22         13.7118
   639.36         13.6762
   639.50         13.6387
   639.64         13.6017
   639.78         13.5681
   639.92         13.5401
   640.06         13.5189
   640.20         13.5048
   640.34         13.4972
   640.48         13.4948
   640.62         13.4953
   640.76         13.4957
   640.90         13.4934
   641.04         13.4882
   641.18         13.4817
   641.32         13.4758
   641.46         13.4719
   641.60         13.4728
   641.74         13.4829
   641.88         13.5039
   642.02         13.5326
   642.16         13.5648
   642.30         13.5978
   642.44         13.6312
   642.58         13.6638
   642.72         13.6932
   642.86         13.7171
   643.00         13.7346
   643.14         13.7465
   643.28         13.7547
   643.42         13.7617
   643.56         13.7705
   643.70         13.7829
   643.84         13.7968
   643.98         13.8066
   644.12         13.8070
   644.26         13.7956
   644.40         13.7719
   644.54         13.7375
   644.68         13.6974
   644.82         13.6601
   644.96         13.6323
   645.10         13.6162
   645.24         13.6099
   645.38         13.6116
   645.52         13.6213
   645.66         13.6405
   645.80         13.6683
   645.94         13.7014
   646.08         13.7351
   646.22         13.7648
   646.36         13.7871
   646.50         13.8014
   646.64         13.8115
   646.78         13.8241
   646.92         13.8437
   647.06         13.8703
   647.20         13.9015
   647.34         13.9339
   647.48         13.9638
   647.62         13.9872
   647.76         14.0009
   647.90         14.0034
   648.04         13.9945
   648.18         13.9718
   648.32         13.9301
   648.46         13.8637
   648.60         13.7703
   648.74         13.6526
   648.88         13.5180
   649.02         13.3762
   649.16         13.2385
   649.30         13.1172
   649.44         13.0232
   649.58         12.9654
   649.72         12.9486
   649.86         12.9748
   650.00         13.0431
   650.14         13.1485
   650.28         13.2819
   650.42         13.4301
   650.56         13.5786
   650.70         13.7147
   650.84         13.8291
   650.98         13.9181
   651.12         13.9837
   651.26         14.0322
   651.40         14.0707
   651.54         14.1047
   651.68         14.1365
   651.82         14.1665
   651.96         14.1935
   652.10         14.2153
   652.24         14.2297
   652.38         14.2353
   652.52         14.2323
   652.66         14.2222
   652.80         14.2070
   652.94         14.1891
   653.08         14.1710
   653.22         14.1555
   653.36         14.1445
   653.50         14.1383
   653.64         14.1354
   653.78         14.1344
   653.92         14.1344
   654.06         14.1337
   654.20         14.1294
   654.34         14.1181
   654.48         14.0977
   654.62         14.0677
   654.76         14.0293
   654.90         13.9824
   655.04         13.9234
   655.18         13.8450
   655.32         13.7427
   655.46         13.6195
   655.60         13.4848
   655.74         13.3501
   655.88         13.2263
   656.02         13.1226
   656.16         13.0462
   656.30         13.0024
   656.44         12.9946
   656.58         13.0237
   656.72         13.0875
   656.86         13.1803
   657.00         13.2935
   657.14         13.4177
   657.28         13.5432
   657.42         13.6601
   657.56         13.7599
   657.70         13.8375
   657.84         13.8949
   657.98         13.9387
   658.12         13.9740
   658.26         13.9998
   658.40         14.0116
   658.54         14.0058
   658.68         13.9825
   658.82         13.9453
   658.96         13.9013
   659.10         13.8589
   659.24         13.8255
   659.38         13.8049
   659.52         13.7968
   659.66         13.7990
   659.80         13.8091
   659.94         13.8255
   660.08         13.8471
   660.22         13.8726
   660.36         13.9009
   660.50         13.9304
   660.64         13.9595
   660.78         13.9872
   660.92         14.0146
   661.06         14.0441
   661.20         14.0766
   661.34         14.1112
   661.48         14.1457
   661.62         14.1772
   661.76         14.2021
   661.90         14.2166
   662.04         14.2159
   662.18         14.1962
   662.32         14.1560
   662.46         14.0984
   662.60         14.0299
   662.74         13.9577
   662.88         13.8879
   663.02         13.8258
   663.16         13.7753
   663.30         13.7386
   663.44         13.7156
   663.58         13.7050
   663.72         13.7049
   663.86         13.7132
   664.00         13.7281
   664.14         13.7483
   664.28         13.7720
   664.42         13.7967
   664.56         13.8196
   664.70         13.8383
   664.84         13.8524
   664.98         13.8626
   665.12         13.8686
   665.26         13.8678
   665.40         13.8572
   665.54         13.8349
   665.68         13.8010
   665.82         13.7575
   665.96         13.7090
   666.10         13.6615
   666.24         13.6209
   666.38         13.5920
   666.52         13.5763
   666.66         13.5716
   666.80         13.5745
   666.94         13.5822
   667.08         13.5926
   667.22         13.6047
   667.36         13.6181
   667.50         13.6326
   667.64         13.6486
   667.78         13.6674
   667.92         13.6915
   668.06         13.7243
   668.20         13.7673
   668.34         13.8195
   668.48         13.8771
   668.62         13.9333
   668.76         13.9809
   668.90         14.0137
   669.04         14.0277
   669.18         14.0212
   669.32         13.9960
   669.46         13.9573
   669.60         13.9117
   669.74         13.8647
   669.88         13.8196
   670.02         13.7781
   670.16         13.7403
   670.30         13.7049
   670.44         13.6691
   670.58         13.6297
   670.72         13.5847
   670.86         13.5343
   671.00         13.4810
   671.14         13.4290
   671.28         13.3849
   671.42         13.3556
   671.56         13.3460
   671.70         13.3576
   671.84         13.3890
   671.98         13.4370
   672.12         13.4974
   672.26         13.5650
   672.40         13.6337
   672.54         13.6977
   672.68         13.7520
   672.82         13.7925
   672.96         13.8164
   673.10         13.8234
   673.24         13.8152
   673.38         13.7960
   673.52         13.7701
   673.66         13.7407
   673.80         13.7096
   673.94         13.6778
   674.08         13.6459
   674.22         13.6141
   674.36         13.5835
   674.50         13.5557
   674.64         13.5334
   674.78         13.5196
   674.92         13.5171
   675.06         13.5272
   675.20         13.5501
   675.34         13.5843
   675.48         13.6273
   675.62         13.6747
   675.76         13.7214
   675.90         13.7620
   676.04         13.7925
   676.18         13.8101
   676.32         13.8143
   676.46         13.8067
   676.60         13.7913
   676.74         13.7728
   676.88         13.7565
   677.02         13.7465
   677.16         13.7446
   677.30         13.7496
   677.44         13.7583
   677.58         13.7674
   677.72         13.7750
   677.86         13.7803
   678.00         13.7825
   678.14         13.7805
   678.28         13.7733
   678.42         13.7612
   678.56         13.7462
   678.70         13.7311
   678.84         13.7190
   678.98         13.7116
   679.12         13.7089
   679.26         13.7096
   679.40         13.7123
   679.54         13.7157
   679.68         13.7190
   679.82         13.7215
   679.96         13.7242
   680.10         13.7298
   680.24         13.7414
   680.38         13.7600
   680.52         13.7840
   680.66         13.8102
   680.80         13.8352
   680.94         13.8561
   681.08         13.8715
   681.22         13.8817
   681.36         13.8872
   681.50         13.8881
   681.64         13.8834
   681.78         13.8729
   681.92         13.8571
   682.06         13.8371
   682.20         13.8142
   682.34         13.7895
   682.48         13.7638
   682.62         13.7376
   682.76         13.7101
   682.90         13.6791
   683.04         13.6420
   683.18         13.5974
   683.32         13.5456
   683.46         13.4881
   683.60         13.4277
   683.74         13.3682
   683.88         13.3137
   684.02         13.2675
   684.16         13.2328
   684.30         13.2113
   684.44         13.2039
   684.58         13.2095
   684.72         13.2255
   684.86         13.2483
   685.00         13.2725
   685.14         13.2915
   685.28         13.2986
   685.42         13.2863
   685.56         13.2459
   685.70         13.1680
   685.84         13.0456
   685.98         12.8753
   686.12         12.6584
   686.26         12.4011
   686.40         12.1153
   686.54         11.8174
   686.68         11.5273
   686.82         11.2656
   686.96         11.0514
   687.10         10.8995
   687.24         10.8193
   687.38         10.8128
   687.52         10.8746
   687.66         10.9929
   687.80         11.1520
   687.94         11.3340
   688.08         11.5196
   688.22         11.6910
   688.36         11.8369
   688.50         11.9531
   688.64         12.0418
   688.78         12.1085
   688.92         12.1607
   689.06         12.2063
   689.20         12.2524
   689.34         12.3037
   689.48         12.3620
   689.62         12.4260
   689.76         12.4922
   689.90         12.5571
   690.04         12.6176
   690.18         12.6708
   690.32         12.7148
   690.46         12.7487
   690.60         12.7718
   690.74         12.7845
   690.88         12.7885
   691.02         12.7874
   691.16         12.7850
   691.30         12.7833
   691.44         12.7824
   691.58         12.7815
   691.72         12.7790
   691.86         12.7735
   692.00         12.7645
   692.14         12.7517
   692.28         12.7345
   692.42         12.7137
   692.56         12.6918
   692.70         12.6712
   692.84         12.6549
   692.98         12.6461
   693.12         12.6478
   693.26         12.6604
   693.40         12.6820
   693.54         12.7089
   693.68         12.7369
   693.82         12.7614
   693.96         12.7787
   694.10         12.7869
   694.24         12.7859
   694.38         12.7770
   694.52         12.7623
   694.66         12.7446
   694.80         12.7269
   694.94         12.7129
   695.08         12.7063
   695.22         12.7097
   695.36         12.7239
   695.50         12.7483
   695.64         12.7818
   695.78         12.8226
   695.92         12.8680
   696.06         12.9150
   696.20         12.9613
   696.34         13.0047
   696.48         13.0417
   696.62         13.0673
   696.76         13.0760
   696.90         13.0640
   697.04         13.0313
   697.18         12.9818
   697.32         12.9219
   697.46         12.8591
   697.60         12.8010
   697.74         12.7540
   697.88         12.7228
   698.02         12.7104
   698.16         12.7184
   698.30         12.7471
   698.44         12.7945
   698.58         12.8564
   698.72         12.9267
   698.86         12.9970
   699.00         13.0587
   699.14         13.1052
   699.28         13.1325
   699.42         13.1394
   699.56         13.1275
   699.70         13.1009
   699.84         13.0644
   699.98         13.0224
   700.12         12.9789
   700.26         12.9371
   700.40         12.8979
   700.54         12.8606
   700.68         12.8244
   700.82         12.7900
   700.96         12.7587
   701.10         12.7307
   701.24         12.7048
   701.38         12.6788
   701.52         12.6516
   701.66         12.6247
   701.80         12.6008
   701.94         12.5818
   702.08         12.5684
   702.22         12.5621
   702.36         12.5642
   702.50         12.5758
   702.64         12.5965
   702.78         12.6239
   702.92         12.6556
   703.06         12.6909
   703.20         12.7306
   703.34         12.7763
   703.48         12.8284
   703.62         12.8850
   703.76         12.9431
   703.90         13.0008
   704.04         13.0570
   704.18         13.1095
   704.32         13.1554
   704.46         13.1930
   704.60         13.2213
   704.74         13.2402
   704.88         13.2493
   705.02         13.2482
   705.16         13.2372
   705.30         13.2174
   705.44         13.1903
   705.58         13.1572
   705.72         13.1180
   705.86         13.0718
   706.00         13.0198
   706.14         12.9656
   706.28         12.9142
   706.42         12.8710
   706.56         12.8400
   706.70         12.8234
   706.84         12.8223
   706.98         12.8383
   707.12         12.8717
   707.26         12.9176
   707.40         12.9674
   707.54         13.0123
   707.68         13.0459
   707.82         13.0649
   707.96         13.0668
   708.10         13.0495
   708.24         13.0127
   708.38         12.9602
   708.52         12.8997
   708.66         12.8395
   708.80         12.7867
   708.94         12.7468
   709.08         12.7230
   709.22         12.7159
   709.36         12.7239
   709.50         12.7429
   709.64         12.7663
   709.78         12.7860
   709.92         12.7953
   710.06         12.7911
   710.20         12.7740
   710.34         12.7463
   710.48         12.7106
   710.62         12.6696
   710.76         12.6265
   710.90         12.5852
   711.04         12.5492
   711.18         12.5207
   711.32         12.5001
   711.46         12.4873
   711.60         12.4814
   711.74         12.4806
   711.88         12.4834
   712.02         12.4882
   712.16         12.4937
   712.30         12.5001
   712.44         12.5101
   712.58         12.5269
   712.72         12.5523
   712.86         12.5858
   713.00         12.6249
   713.14         12.6657
   713.28         12.7038
   713.42         12.7348
   713.56         12.7557
   713.70         12.7636
   713.84         12.7569
   713.98         12.7361
   714.12         12.7049
   714.26         12.6683
   714.40         12.6312
   714.54         12.5984
   714.68         12.5740
   714.82         12.5613
   714.96         12.5615
   715.10         12.5736
   715.24         12.5933
   715.38         12.6136
   715.52         12.6277
   715.66         12.6316
   715.80         12.6247
   715.94         12.6071
   716.08         12.5804
   716.22         12.5467
   716.36         12.5085
   716.50         12.4683
   716.64         12.4290
   716.78         12.3931
   716.92         12.3599
   717.06         12.3261
   717.20         12.2882
   717.34         12.2432
   717.48         12.1878
   717.62         12.1199
   717.76         12.0384
   717.90         11.9439
   718.04         11.8395
   718.18         11.7316
   718.32         11.6281
   718.46         11.5368
   718.60         11.4636
   718.74         11.4131
   718.88         11.3870
   719.02         11.3851
   719.16         11.4064
   719.30         11.4494
   719.44         11.5103
   719.58         11.5818
   719.72         11.6568
   719.86         11.7309
   720.00         11.8022
   720.14         11.8699
   720.28         11.9343
   720.42         11.9966
   720.56         12.0591
   720.70         12.1258
   720.84         12.2001
   720.98         12.2838
   721.12         12.3756
   721.26         12.4713
   721.40         12.5658
   721.54         12.6552
   721.68         12.7364
   721.82         12.8065
   721.96         12.8620
   722.10         12.8990
   722.24         12.9154
   722.38         12.9128
   722.52         12.8948
   722.66         12.8656
   722.80         12.8277
   722.94         12.7835
   723.08         12.7362
   723.22         12.6895
   723.36         12.6460
   723.50         12.6068
   723.64         12.5731
   723.78         12.5467
   723.92         12.5281
   724.06         12.5150
   724.20         12.5033
   724.34         12.4889
   724.48         12.4702
   724.62         12.4475
   724.76         12.4225
   724.90         12.3971
   725.04         12.3720
   725.18         12.3470
   725.32         12.3221
   725.46         12.2986
   725.60         12.2791
   725.74         12.2668
   725.88         12.2642
   726.02         12.2719
   726.16         12.2883
   726.30         12.3094
   726.44         12.3297
   726.58         12.3437
   726.72         12.3488
   726.86         12.3457
   727.00         12.3370
   727.14         12.3244
   727.28         12.3072
   727.42         12.2840
   727.56         12.2536
   727.70         12.2155
   727.84         12.1704
   727.98         12.1193
   728.12         12.0638
   728.26         12.0054
   728.40         11.9462
   728.54         11.8890
   728.68         11.8375
   728.82         11.7955
   728.96         11.7659
   729.10         11.7508
   729.24         11.7510
   729.38         11.7663
   729.52         11.7958
   729.66         11.8362
   729.80         11.8830
   729.94         11.9310
   730.08         11.9761
   730.22         12.0151
   730.36         12.0447
   730.50         12.0628
   730.64         12.0693
   730.78         12.0660
   730.92         12.0560
   731.06         12.0429
   731.20         12.0294
   731.34         12.0169
   731.48         12.0047
   731.62         11.9916
   731.76         11.9782
   731.90         11.9667
   732.04         11.9586
   732.18         11.9528
   732.32         11.9479
   732.46         11.9440
   732.60         11.9430
   732.74         11.9470
   732.88         11.9568
   733.02         11.9722
   733.16         11.9929
   733.30         12.0187
   733.44         12.0491
   733.58         12.0835
   733.72         12.1204
   733.86         12.1572
   734.00         12.1897
   734.14         12.2137
   734.28         12.2265
   734.42         12.2270
   734.56         12.2143
   734.70         12.1885
   734.84         12.1520
   734.98         12.1091
   735.12         12.0638
   735.26         12.0188
   735.40         11.9749
   735.54         11.9325
   735.68         11.8935
   735.82         11.8603
   735.96         11.8349
   736.10         11.8188
   736.24         11.8135
   736.38         11.8195
   736.52         11.8359
   736.66         11.8614
   736.80         11.8951
   736.94         11.9363
   737.08         11.9830
   737.22         12.0313
   737.36         12.0763
   737.50         12.1119
   737.64         12.1312
   737.78         12.1288
   737.92         12.1030
   738.06         12.0555
   738.20         11.9915
   738.34         11.9179
   738.48         11.8423
   738.62         11.7727
   738.76         11.7165
   738.90         11.6792
   739.04         11.6634
   739.18         11.6690
   739.32         11.6944
   739.46         11.7364
   739.60         11.7896
   739.74         11.8464
   739.88         11.8988
   740.02         11.9399
   740.16         11.9649
   740.30         11.9728
   740.44         11.9651
   740.58         11.9439
   740.72         11.9118
   740.86         11.8718
   741.00         11.8275
   741.14         11.7820
   741.28         11.7375
   741.42         11.6963
   741.56         11.6610
   741.70         11.6346
   741.84         11.6196
   741.98         11.6166
   742.12         11.6236
   742.26         11.6371
   742.40         11.6533
   742.54         11.6686
   742.68         11.6802
   742.82         11.6862
   742.96         11.6862
   743.10         11.6802
   743.24         11.6686
   743.38         11.6533
   743.52         11.6371
   743.66         11.6236
   743.80         11.6166
   743.94         11.6196
   744.08         11.6346
   744.22         11.6610
