# File HD35215
# Wavelength [nm]    Normalized Amplitude
   349.70         66.1409
   349.84         66.3217
   349.98         66.4905
   350.12         66.6310
   350.26         66.7319
   350.40         66.7895
   350.54         66.8077
   350.68         66.7959
   350.82         66.7691
   350.96         66.7434
   351.10         66.7326
   351.24         66.7434
   351.38         66.7691
   351.52         66.7959
   351.66         66.8077
   351.80         66.7895
   351.94         66.7319
   352.08         66.6310
   352.22         66.4905
   352.36         66.3217
   352.50         66.1409
   352.64         65.9597
   352.78         65.7848
   352.92         65.6223
   353.06         65.4761
   353.20         65.3489
   353.34         65.2439
   353.48         65.1625
   353.62         65.1028
   353.76         65.0639
   353.90         65.0446
   354.04         65.0405
   354.18         65.0428
   354.32         65.0346
   354.46         64.9995
   354.60         64.9288
   354.74         64.8184
   354.88         64.6631
   355.02         64.4569
   355.16         64.1974
   355.30         63.8874
   355.44         63.5367
   355.58         63.1655
   355.72         62.8019
   355.86         62.4740
   356.00         62.2049
   356.14         62.0107
   356.28         61.8979
   356.42         61.8572
   356.56         61.8638
   356.70         61.8864
   356.84         61.8965
   356.98         61.8764
   357.12         61.8167
   357.26         61.7042
   357.40         61.5212
   357.54         61.2523
   357.68         60.8905
   357.82         60.4371
   357.96         59.9004
   358.10         59.3000
   358.24         58.6720
   358.38         58.0605
   358.52         57.5049
   358.66         57.0354
   358.80         56.6750
   358.94         56.4426
   359.08         56.3490
   359.22         56.3937
   359.36         56.5635
   359.50         56.8318
   359.64         57.1612
   359.78         57.5068
   359.92         57.8247
   360.06         58.0810
   360.20         58.2554
   360.34         58.3411
   360.48         58.3456
   360.62         58.2882
   360.76         58.1963
   360.90         58.0987
   361.04         58.0173
   361.18         57.9677
   361.32         57.9622
   361.46         58.0073
   361.60         58.0967
   361.74         58.2082
   361.88         58.3127
   362.02         58.3815
   362.16         58.3861
   362.30         58.2999
   362.44         58.1077
   362.58         57.8103
   362.72         57.4196
   362.86         56.9554
   363.00         56.4498
   363.14         55.9463
   363.28         55.4915
   363.42         55.1281
   363.56         54.8901
   363.70         54.7962
   363.84         54.8458
   363.98         55.0177
   364.12         55.2743
   364.26         55.5741
   364.40         55.8833
   364.54         56.1770
   364.68         56.4360
   364.82         56.6501
   364.96         56.8240
   365.10         56.9726
   365.24         57.1078
   365.38         57.2330
   365.52         57.3522
   365.66         57.4722
   365.80         57.5934
   365.94         57.7051
   366.08         57.7934
   366.22         57.8463
   366.36         57.8507
   366.50         57.7982
   366.64         57.6904
   366.78         57.5391
   366.92         57.3609
   367.06         57.1741
   367.20         56.9987
   367.34         56.8520
   367.48         56.7417
   367.62         56.6648
   367.76         56.6129
   367.90         56.5798
   368.04         56.5620
   368.18         56.5542
   368.32         56.5469
   368.46         56.5274
   368.60         56.4839
   368.74         56.4117
   368.88         56.3111
   369.02         56.1869
   369.16         56.0470
   369.30         55.8946
   369.44         55.7262
   369.58         55.5340
   369.72         55.3120
   369.86         55.0613
   370.00         54.7828
   370.14         54.4728
   370.28         54.1324
   370.42         53.7742
   370.56         53.4194
   370.70         53.0899
   370.84         52.8027
   370.98         52.5706
   371.12         52.4023
   371.26         52.3039
   371.40         52.2779
   371.54         52.3244
   371.68         52.4429
   371.82         52.6292
   371.96         52.8702
   372.10         53.1446
   372.24         53.4238
   372.38         53.6757
   372.52         53.8725
   372.66         53.9963
   372.80         54.0431
   372.94         54.0298
   373.08         53.9928
   373.22         53.9735
   373.36         54.0007
   373.50         54.0833
   373.64         54.2145
   373.78         54.3751
   373.92         54.5329
   374.06         54.6445
   374.20         54.6656
   374.34         54.5680
   374.48         54.3474
   374.62         54.0208
   374.76         53.6328
   374.90         53.2538
   375.04         52.9667
   375.18         52.8505
   375.32         52.9637
   375.46         53.3258
   375.60         53.9051
   375.74         54.6175
   375.88         55.3383
   376.02         55.9271
   376.16         56.2584
   376.30         56.2572
   376.44         55.9146
   376.58         55.2857
   376.72         54.4824
   376.86         53.6577
   377.00         52.9785
   377.14         52.5894
   377.28         52.5880
   377.42         53.0195
   377.56         53.8703
   377.70         55.0681
   377.84         56.4965
   377.98         58.0137
   378.12         59.4623
   378.26         60.6836
   378.40         61.5396
   378.54         61.9291
   378.68         61.7991
   378.82         61.1572
   378.96         60.0751
   379.10         58.6744
   379.24         57.1060
   379.38         55.5335
   379.52         54.1203
   379.66         53.0152
   379.80         52.3356
   379.94         52.1564
   380.08         52.5029
   380.22         53.3463
   380.36         54.6079
   380.50         56.1674
   380.64         57.8685
   380.78         59.5331
   380.92         60.9947
   381.06         62.1352
   381.20         62.8994
   381.34         63.2923
   381.48         63.3660
   381.62         63.1971
   381.76         62.8639
   381.90         62.4262
   382.04         61.9133
   382.18         61.3233
   382.32         60.6298
   382.46         59.7945
   382.60         58.7916
   382.74         57.6278
   382.88         56.3450
   383.02         55.0140
   383.16         53.7297
   383.30         52.6028
   383.44         51.7525
   383.58         51.2917
   383.72         51.2973
   383.86         51.7879
   384.00         52.7250
   384.14         54.0272
   384.28         55.5847
   384.42         57.2683
   384.56         58.9436
   384.70         60.4887
   384.84         61.8149
   384.98         62.8776
   385.12         63.6727
   385.26         64.2287
   385.40         64.5893
   385.54         64.7921
   385.68         64.8625
   385.82         64.8174
   385.96         64.6725
   386.10         64.4466
   386.24         64.1577
   386.38         63.8206
   386.52         63.4516
   386.66         63.0684
   386.80         62.6864
   386.94         62.3126
   387.08         61.9384
   387.22         61.5387
   387.36         61.0756
   387.50         60.5001
   387.64         59.7570
   387.78         58.7982
   387.92         57.6003
   388.06         56.1745
   388.20         54.5703
   388.34         52.8764
   388.48         51.2106
   388.62         49.7063
   388.76         48.4917
   388.90         47.6717
   389.04         47.3168
   389.18         47.4560
   389.32         48.0750
   389.46         49.1164
   389.60         50.4846
   389.74         52.0572
   389.88         53.7050
   390.02         55.3100
   390.16         56.7761
   390.30         58.0408
   390.44         59.0793
   390.58         59.8943
   390.72         60.5064
   390.86         60.9444
   391.00         61.2378
   391.14         61.4110
   391.28         61.4797
   391.42         61.4508
   391.56         61.3239
   391.70         61.0989
   391.84         60.7836
   391.98         60.3934
   392.12         59.9501
   392.26         59.4797
   392.40         59.0125
   392.54         58.5815
   392.68         58.2168
   392.82         57.9407
   392.96         57.7660
   393.10         57.6933
   393.24         57.7143
   393.38         57.8170
   393.52         57.9817
   393.66         58.1805
   393.80         58.3849
   393.94         58.5733
   394.08         58.7304
   394.22         58.8448
   394.36         58.9103
   394.50         58.9251
   394.64         58.8902
   394.78         58.8073
   394.92         58.6761
   395.06         58.4896
   395.20         58.2294
   395.34         57.8648
   395.48         57.3572
   395.62         56.6633
   395.76         55.7409
   395.90         54.5612
   396.04         53.1239
   396.18         51.4704
   396.32         49.6885
   396.46         47.9023
   396.60         46.2429
   396.74         44.8274
   396.88         43.7549
   397.02         43.1010
   397.16         42.9082
   397.30         43.1783
   397.44         43.8721
   397.58         44.9136
   397.72         46.1990
   397.86         47.6143
   398.00         49.0496
   398.14         50.4070
   398.28         51.6100
   398.42         52.6131
   398.56         53.4076
   398.70         54.0157
   398.84         54.4742
   398.98         54.8205
   399.12         55.0804
   399.26         55.2640
   399.40         55.3763
   399.54         55.4221
   399.68         55.4030
   399.82         55.3196
   399.96         55.1762
   400.10         54.9827
   400.24         54.7537
   400.38         54.5096
   400.52         54.2762
   400.66         54.0758
   400.80         53.9212
   400.94         53.8182
   401.08         53.7642
   401.22         53.7423
   401.36         53.7196
   401.50         53.6546
   401.64         53.5120
   401.78         53.2719
   401.92         52.9345
   402.06         52.5208
   402.20         52.0655
   402.34         51.6101
   402.48         51.2012
   402.62         50.8827
   402.76         50.6845
   402.90         50.6203
   403.04         50.6922
   403.18         50.8907
   403.32         51.1921
   403.46         51.5629
   403.60         51.9677
   403.74         52.3735
   403.88         52.7547
   404.02         53.0952
   404.16         53.3907
   404.30         53.6475
   404.44         53.8713
   404.58         54.0585
   404.72         54.1986
   404.86         54.2794
   405.00         54.2930
   405.14         54.2396
   405.28         54.1262
   405.42         53.9642
   405.56         53.7710
   405.70         53.5675
   405.84         53.3710
   405.98         53.1936
   406.12         53.0438
   406.26         52.9229
   406.40         52.8234
   406.54         52.7319
   406.68         52.6348
   406.82         52.5225
   406.96         52.3888
   407.10         52.2312
   407.24         52.0527
   407.38         51.8618
   407.52         51.6689
   407.66         51.4826
   407.80         51.3072
   407.94         51.1420
   408.08         50.9790
   408.22         50.8062
   408.36         50.6083
   408.50         50.3624
   408.64         50.0364
   408.78         49.5907
   408.92         48.9830
   409.06         48.1811
   409.20         47.1755
   409.34         45.9872
   409.48         44.6674
   409.62         43.2929
   409.76         41.9583
   409.90         40.7639
   410.04         39.8027
   410.18         39.1469
   410.32         38.8411
   410.46         38.8994
   410.60         39.3037
   410.74         40.0054
   410.88         40.9307
   411.02         41.9875
   411.16         43.0788
   411.30         44.1179
   411.44         45.0416
   411.58         45.8175
   411.72         46.4425
   411.86         46.9347
   412.00         47.3219
   412.14         47.6299
   412.28         47.8795
   412.42         48.0871
   412.56         48.2636
   412.70         48.4116
   412.84         48.5264
   412.98         48.5990
   413.12         48.6150
   413.26         48.5557
   413.40         48.4063
   413.54         48.1666
   413.68         47.8559
   413.82         47.5091
   413.96         47.1673
   414.10         46.8677
   414.24         46.6380
   414.38         46.4952
   414.52         46.4480
   414.66         46.4982
   414.80         46.6404
   414.94         46.8631
   415.08         47.1462
   415.22         47.4623
   415.36         47.7803
   415.50         48.0694
   415.64         48.3009
   415.78         48.4525
   415.92         48.5181
   416.06         48.5094
   416.20         48.4469
   416.34         48.3505
   416.48         48.2349
   416.62         48.1094
   416.76         47.9787
   416.90         47.8476
   417.04         47.7238
   417.18         47.6133
   417.32         47.5173
   417.46         47.4347
   417.60         47.3632
   417.74         47.2983
   417.88         47.2338
   418.02         47.1614
   418.16         47.0722
   418.30         46.9605
   418.44         46.8282
   418.58         46.6837
   418.72         46.5380
   418.86         46.4016
   419.00         46.2844
   419.14         46.1932
   419.28         46.1313
   419.42         46.1004
   419.56         46.1021
   419.70         46.1351
   419.84         46.1924
   419.98         46.2655
   420.12         46.3456
   420.26         46.4227
   420.40         46.4866
   420.54         46.5297
   420.68         46.5479
   420.82         46.5432
   420.96         46.5211
   421.10         46.4859
   421.24         46.4410
   421.38         46.3881
   421.52         46.3268
   421.66         46.2551
   421.80         46.1721
   421.94         46.0794
   422.08         45.9777
   422.22         45.8672
   422.36         45.7485
   422.50         45.6224
   422.64         45.4899
   422.78         45.3526
   422.92         45.2146
   423.06         45.0813
   423.20         44.9571
   423.34         44.8450
   423.48         44.7461
   423.62         44.6595
   423.76         44.5841
   423.90         44.5216
   424.04         44.4746
   424.18         44.4443
   424.32         44.4280
   424.46         44.4211
   424.60         44.4192
   424.74         44.4186
   424.88         44.4166
   425.02         44.4096
   425.16         44.3943
   425.30         44.3684
   425.44         44.3306
   425.58         44.2780
   425.72         44.2078
   425.86         44.1210
   426.00         44.0235
   426.14         43.9219
   426.28         43.8217
   426.42         43.7276
   426.56         43.6435
   426.70         43.5718
   426.84         43.5147
   426.98         43.4755
   427.12         43.4599
   427.26         43.4717
   427.40         43.5096
   427.54         43.5673
   427.68         43.6359
   427.82         43.7063
   427.96         43.7684
   428.10         43.8118
   428.24         43.8311
   428.38         43.8271
   428.52         43.8044
   428.66         43.7684
   428.80         43.7237
   428.94         43.6729
   429.08         43.6170
   429.22         43.5562
   429.36         43.4912
   429.50         43.4234
   429.64         43.3546
   429.78         43.2855
   429.92         43.2150
   430.06         43.1404
   430.20         43.0591
   430.34         42.9715
   430.48         42.8794
   430.62         42.7850
   430.76         42.6907
   430.90         42.5983
   431.04         42.5074
   431.18         42.4153
   431.32         42.3183
   431.46         42.2096
   431.60         42.0816
   431.74         41.9300
   431.88         41.7551
   432.02         41.5570
   432.16         41.3322
   432.30         41.0736
   432.44         40.7684
   432.58         40.3962
   432.72         39.9303
   432.86         39.3444
   433.00         38.6200
   433.14         37.7555
   433.28         36.7725
   433.42         35.7171
   433.56         34.6530
   433.70         33.6540
   433.84         32.7963
   433.98         32.1481
   434.12         31.7614
   434.26         31.6679
   434.40         31.8754
   434.54         32.3653
   434.68         33.0917
   434.82         33.9885
   434.96         34.9782
   435.10         35.9804
   435.24         36.9213
   435.38         37.7445
   435.52         38.4173
   435.66         38.9329
   435.80         39.3032
   435.94         39.5498
   436.08         39.6954
   436.22         39.7630
   436.36         39.7775
   436.50         39.7634
   436.64         39.7414
   436.78         39.7281
   436.92         39.7350
   437.06         39.7677
   437.20         39.8252
   437.34         39.8989
   437.48         39.9717
   437.62         40.0180
   437.76         40.0100
   437.90         39.9270
   438.04         39.7616
   438.18         39.5191
   438.32         39.2145
   438.46         38.8703
   438.60         38.5164
   438.74         38.1865
   438.88         37.9138
   439.02         37.7227
   439.16         37.6244
   439.30         37.6191
   439.44         37.6975
   439.58         37.8426
   439.72         38.0321
   439.86         38.2411
   440.00         38.4426
   440.14         38.6102
   440.28         38.7271
   440.42         38.7896
   440.56         38.8037
   440.70         38.7765
   440.84         38.7115
   440.98         38.6101
   441.12         38.4752
   441.26         38.3136
   441.40         38.1341
   441.54         37.9471
   441.68         37.7632
   441.82         37.5920
   441.96         37.4395
   442.10         37.3079
   442.24         37.1962
   442.38         37.1016
   442.52         37.0204
   442.66         36.9493
   442.80         36.8885
   442.94         36.8441
   443.08         36.8245
   443.22         36.8359
   443.36         36.8833
   443.50         36.9692
   443.64         37.0904
   443.78         37.2384
   443.92         37.4022
   444.06         37.5683
   444.20         37.7220
   444.34         37.8485
   444.48         37.9356
   444.62         37.9759
   444.76         37.9701
   444.90         37.9266
   445.04         37.8578
   445.18         37.7781
   445.32         37.6998
   445.46         37.6292
   445.60         37.5620
   445.74         37.4833
   445.88         37.3698
   446.02         37.1963
   446.16         36.9447
   446.30         36.6127
   446.44         36.2169
   446.58         35.7872
   446.72         35.3583
   446.86         34.9633
   447.00         34.6313
   447.14         34.3852
   447.28         34.2425
   447.42         34.2136
   447.56         34.2977
   447.70         34.4813
   447.84         34.7408
   447.98         35.0467
   448.12         35.3680
   448.26         35.6760
   448.40         35.9506
   448.54         36.1827
   448.68         36.3744
   448.82         36.5342
   448.96         36.6692
   449.10         36.7808
   449.24         36.8644
   449.38         36.9135
   449.52         36.9253
   449.66         36.9025
   449.80         36.8520
   449.94         36.7807
   450.08         36.6943
   450.22         36.5978
   450.36         36.4983
   450.50         36.4042
   450.64         36.3240
   450.78         36.2640
   450.92         36.2266
   451.06         36.2116
   451.20         36.2157
   451.34         36.2313
   451.48         36.2486
   451.62         36.2590
   451.76         36.2571
   451.90         36.2383
   452.04         36.1990
   452.18         36.1375
   452.32         36.0553
   452.46         35.9565
   452.60         35.8465
   452.74         35.7327
   452.88         35.6243
   453.02         35.5302
   453.16         35.4575
   453.30         35.4120
   453.44         35.3964
   453.58         35.4088
   453.72         35.4441
   453.86         35.4951
   454.00         35.5534
   454.14         35.6099
   454.28         35.6566
   454.42         35.6888
   454.56         35.7039
   454.70         35.6998
   454.84         35.6755
   454.98         35.6324
   455.12         35.5741
   455.26         35.5063
   455.40         35.4345
   455.54         35.3608
   455.68         35.2837
   455.82         35.2000
   455.96         35.1064
   456.10         34.9988
   456.24         34.8742
   456.38         34.7323
   456.52         34.5774
   456.66         34.4187
   456.80         34.2673
   456.94         34.1345
   457.08         34.0288
   457.22         33.9548
   457.36         33.9133
   457.50         33.9022
   457.64         33.9175
   457.78         33.9520
   457.92         33.9934
   458.06         34.0269
   458.20         34.0418
   458.34         34.0349
   458.48         34.0073
   458.62         33.9616
   458.76         33.9026
   458.90         33.8378
   459.04         33.7743
   459.18         33.7173
   459.32         33.6682
   459.46         33.6253
   459.60         33.5865
   459.74         33.5495
   459.88         33.5138
   460.02         33.4794
   460.16         33.4469
   460.30         33.4172
   460.44         33.3921
   460.58         33.3723
   460.72         33.3588
   460.86         33.3513
   461.00         33.3475
   461.14         33.3443
   461.28         33.3388
   461.42         33.3278
   461.56         33.3051
   461.70         33.2640
   461.84         33.2011
   461.98         33.1168
   462.12         33.0156
   462.26         32.9036
   462.40         32.7869
   462.54         32.6722
   462.68         32.5667
   462.82         32.4770
   462.96         32.4074
   463.10         32.3580
   463.24         32.3256
   463.38         32.3075
   463.52         32.3022
   463.66         32.3069
   463.80         32.3159
   463.94         32.3223
   464.08         32.3214
   464.22         32.3135
   464.36         32.3029
   464.50         32.2943
   464.64         32.2915
   464.78         32.2972
   464.92         32.3119
   465.06         32.3335
   465.20         32.3590
   465.34         32.3850
   465.48         32.4068
   465.62         32.4195
   465.76         32.4189
   465.90         32.4034
   466.04         32.3733
   466.18         32.3285
   466.32         32.2698
   466.46         32.2015
   466.60         32.1300
   466.74         32.0616
   466.88         31.9994
   467.02         31.9438
   467.16         31.8951
   467.30         31.8535
   467.44         31.8185
   467.58         31.7910
   467.72         31.7725
   467.86         31.7639
   468.00         31.7635
   468.14         31.7692
   468.28         31.7783
   468.42         31.7889
   468.56         31.8000
   468.70         31.8094
   468.84         31.8140
   468.98         31.8099
   469.12         31.7935
   469.26         31.7621
   469.40         31.7148
   469.54         31.6531
   469.68         31.5821
   469.82         31.5070
   469.96         31.4293
   470.10         31.3483
   470.24         31.2615
   470.38         31.1661
   470.52         31.0614
   470.66         30.9531
   470.80         30.8489
   470.94         30.7553
   471.08         30.6779
   471.22         30.6203
   471.36         30.5823
   471.50         30.5615
   471.64         30.5554
   471.78         30.5633
   471.92         30.5843
   472.06         30.6159
   472.20         30.6538
   472.34         30.6905
   472.48         30.7176
   472.62         30.7306
   472.76         30.7299
   472.90         30.7194
   473.04         30.7054
   473.18         30.6927
   473.32         30.6811
   473.46         30.6654
   473.60         30.6387
   473.74         30.5945
   473.88         30.5282
   474.02         30.4399
   474.16         30.3351
   474.30         30.2249
   474.44         30.1210
   474.58         30.0320
   474.72         29.9621
   474.86         29.9113
   475.00         29.8789
   475.14         29.8662
   475.28         29.8735
   475.42         29.8968
   475.56         29.9304
   475.70         29.9677
   475.84         30.0022
   475.98         30.0304
   476.12         30.0514
   476.26         30.0628
   476.40         30.0645
   476.54         30.0595
   476.68         30.0493
   476.82         30.0324
   476.96         30.0060
   477.10         29.9671
   477.24         29.9140
   477.38         29.8465
   477.52         29.7668
   477.66         29.6791
   477.80         29.5888
   477.94         29.4995
   478.08         29.4149
   478.22         29.3397
   478.36         29.2777
   478.50         29.2319
   478.64         29.2042
   478.78         29.1930
   478.92         29.1936
   479.06         29.2005
   479.20         29.2060
   479.34         29.2029
   479.48         29.1865
   479.62         29.1543
   479.76         29.1065
   479.90         29.0447
   480.04         28.9709
   480.18         28.8878
   480.32         28.7997
   480.46         28.7110
   480.60         28.6258
   480.74         28.5481
   480.88         28.4795
   481.02         28.4205
   481.16         28.3737
   481.30         28.3423
   481.44         28.3280
   481.58         28.3310
   481.72         28.3496
   481.86         28.3821
   482.00         28.4265
   482.14         28.4772
   482.28         28.5251
   482.42         28.5607
   482.56         28.5767
   482.70         28.5701
   482.84         28.5421
   482.98         28.4945
   483.12         28.4274
   483.26         28.3414
   483.40         28.2395
   483.54         28.1269
   483.68         28.0103
   483.82         27.8957
   483.96         27.7831
   484.10         27.6669
   484.24         27.5380
   484.38         27.3856
   484.52         27.1971
   484.66         26.9588
   484.80         26.6571
   484.94         26.2814
   485.08         25.8270
   485.22         25.2967
   485.36         24.7018
   485.50         24.0621
   485.64         23.4057
   485.78         22.7691
   485.92         22.1965
   486.06         21.7326
   486.20         21.4134
   486.34         21.2599
   486.48         21.2776
   486.62         21.4588
   486.76         21.7837
   486.90         22.2214
   487.04         22.7323
   487.18         23.2733
   487.32         23.8039
   487.46         24.2910
   487.60         24.7106
   487.74         25.0504
   487.88         25.3101
   488.02         25.4995
   488.16         25.6348
   488.30         25.7337
   488.44         25.8138
   488.58         25.8894
   488.72         25.9682
   488.86         26.0512
   489.00         26.1361
   489.14         26.2210
   489.28         26.3037
   489.42         26.3802
   489.56         26.4448
   489.70         26.4935
   489.84         26.5272
   489.98         26.5502
   490.12         26.5670
   490.26         26.5795
   490.40         26.5878
   490.54         26.5915
   490.68         26.5879
   490.82         26.5701
   490.96         26.5267
   491.10         26.4462
   491.24         26.3212
   491.38         26.1517
   491.52         25.9476
   491.66         25.7275
   491.80         25.5139
   491.94         25.3301
   492.08         25.1957
   492.22         25.1244
   492.36         25.1234
   492.50         25.1899
   492.64         25.3104
   492.78         25.4629
   492.92         25.6232
   493.06         25.7714
   493.20         25.8947
   493.34         25.9870
   493.48         26.0482
   493.62         26.0843
   493.76         26.1058
   493.90         26.1269
   494.04         26.1610
   494.18         26.2152
   494.32         26.2890
   494.46         26.3754
   494.60         26.4631
   494.74         26.5405
   494.88         26.5977
   495.02         26.6243
   495.16         26.6111
   495.30         26.5547
   495.44         26.4597
   495.58         26.3396
   495.72         26.2126
   495.86         26.0941
   496.00         25.9920
   496.14         25.9073
   496.28         25.8356
   496.42         25.7695
   496.56         25.7038
   496.70         25.6345
   496.84         25.5584
   496.98         25.4740
   497.12         25.3816
   497.26         25.2824
   497.40         25.1794
   497.54         25.0759
   497.68         24.9758
   497.82         24.8868
   497.96         24.8192
   498.10         24.7820
   498.24         24.7785
   498.38         24.8037
   498.52         24.8470
   498.66         24.8977
   498.80         24.9477
   498.94         24.9911
   499.08         25.0247
   499.22         25.0486
   499.36         25.0623
   499.50         25.0656
   499.64         25.0610
   499.78         25.0507
   499.92         25.0352
   500.06         25.0139
   500.20         24.9862
   500.34         24.9509
   500.48         24.9050
   500.62         24.8470
   500.76         24.7781
   500.90         24.7017
   501.04         24.6236
   501.18         24.5517
   501.32         24.4950
   501.46         24.4601
   501.60         24.4491
   501.74         24.4622
   501.88         24.4985
   502.02         24.5533
   502.16         24.6168
   502.30         24.6753
   502.44         24.7122
   502.58         24.7150
   502.72         24.6811
   502.86         24.6172
   503.00         24.5350
   503.14         24.4486
   503.28         24.3726
   503.42         24.3164
   503.56         24.2826
   503.70         24.2694
   503.84         24.2721
   503.98         24.2845
   504.12         24.2993
   504.26         24.3107
   504.40         24.3150
   504.54         24.3093
   504.68         24.2901
   504.82         24.2575
   504.96         24.2167
   505.10         24.1750
   505.24         24.1405
   505.38         24.1192
   505.52         24.1112
   505.66         24.1106
   505.80         24.1079
   505.94         24.0926
   506.08         24.0557
   506.22         23.9938
   506.36         23.9105
   506.50         23.8130
   506.64         23.7095
   506.78         23.6086
   506.92         23.5181
   507.06         23.4443
   507.20         23.3903
   507.34         23.3557
   507.48         23.3389
   507.62         23.3372
   507.76         23.3466
   507.90         23.3649
   508.04         23.3931
   508.18         23.4318
   508.32         23.4816
   508.46         23.5422
   508.60         23.6102
   508.74         23.6793
   508.88         23.7438
   509.02         23.7984
   509.16         23.8377
   509.30         23.8558
   509.44         23.8475
   509.58         23.8092
   509.72         23.7409
   509.86         23.6481
   510.00         23.5410
   510.14         23.4339
   510.28         23.3409
   510.42         23.2719
   510.56         23.2329
   510.70         23.2241
   510.84         23.2389
   510.98         23.2681
   511.12         23.3019
   511.26         23.3302
   511.40         23.3463
   511.54         23.3466
   511.68         23.3289
   511.82         23.2935
   511.96         23.2443
   512.10         23.1880
   512.24         23.1330
   512.38         23.0871
   512.52         23.0548
   512.66         23.0368
   512.80         23.0293
   512.94         23.0249
   513.08         23.0164
   513.22         22.9979
   513.36         22.9667
   513.50         22.9236
   513.64         22.8713
   513.78         22.8109
   513.92         22.7426
   514.06         22.6673
   514.20         22.5866
   514.34         22.5033
   514.48         22.4199
   514.62         22.3369
   514.76         22.2525
   514.90         22.1682
   515.04         22.0890
   515.18         22.0208
   515.32         21.9654
   515.46         21.9218
   515.60         21.8902
   515.74         21.8714
   515.88         21.8668
   516.02         21.8767
   516.16         21.8982
   516.30         21.9237
   516.44         21.9458
   516.58         21.9615
   516.72         21.9699
   516.86         21.9708
   517.00         21.9639
   517.14         21.9493
   517.28         21.9288
   517.42         21.9053
   517.56         21.8828
   517.70         21.8643
   517.84         21.8488
   517.98         21.8341
   518.12         21.8188
   518.26         21.8047
   518.40         21.7954
   518.54         21.7937
   518.68         21.7996
   518.82         21.8120
   518.96         21.8301
   519.10         21.8546
   519.24         21.8844
   519.38         21.9153
   519.52         21.9409
   519.66         21.9544
   519.80         21.9513
   519.94         21.9295
   520.08         21.8889
   520.22         21.8317
   520.36         21.7614
   520.50         21.6822
   520.64         21.5997
   520.78         21.5201
   520.92         21.4501
   521.06         21.3939
   521.20         21.3523
   521.34         21.3229
   521.48         21.3018
   521.62         21.2863
   521.76         21.2736
   521.90         21.2612
   522.04         21.2461
   522.18         21.2259
   522.32         21.2003
   522.46         21.1718
   522.60         21.1442
   522.74         21.1198
   522.88         21.0996
   523.02         21.0843
   523.16         21.0735
   523.30         21.0638
   523.44         21.0508
   523.58         21.0309
   523.72         21.0025
   523.86         20.9659
   524.00         20.9238
   524.14         20.8825
   524.28         20.8502
   524.42         20.8320
   524.56         20.8293
   524.70         20.8405
   524.84         20.8639
   524.98         20.8984
   525.12         20.9412
   525.26         20.9862
   525.40         21.0256
   525.54         21.0543
   525.68         21.0707
   525.82         21.0731
   525.96         21.0588
   526.10         21.0276
   526.24         20.9828
   526.38         20.9295
   526.52         20.8728
   526.66         20.8164
   526.80         20.7617
   526.94         20.7078
   527.08         20.6515
   527.22         20.5902
   527.36         20.5237
   527.50         20.4542
   527.64         20.3830
   527.78         20.3115
   527.92         20.2424
   528.06         20.1808
   528.20         20.1319
   528.34         20.0971
   528.48         20.0734
   528.62         20.0562
   528.76         20.0430
   528.90         20.0324
   529.04         20.0219
   529.18         20.0087
   529.32         19.9915
   529.46         19.9708
   529.60         19.9493
   529.74         19.9303
   529.88         19.9173
   530.02         19.9136
   530.16         19.9200
   530.30         19.9350
   530.44         19.9569
   530.58         19.9844
   530.72         20.0147
   530.86         20.0433
   531.00         20.0670
   531.14         20.0853
   531.28         20.0995
   531.42         20.1114
   531.56         20.1212
   531.70         20.1273
   531.84         20.1275
   531.98         20.1198
   532.12         20.1027
   532.26         20.0751
   532.40         20.0362
   532.54         19.9862
   532.68         19.9262
   532.82         19.8578
   532.96         19.7845
   533.10         19.7112
   533.24         19.6417
   533.38         19.5786
   533.52         19.5238
   533.66         19.4805
   533.80         19.4517
   533.94         19.4388
   534.08         19.4416
   534.22         19.4586
   534.36         19.4867
   534.50         19.5219
   534.64         19.5614
   534.78         19.6024
   534.92         19.6409
   535.06         19.6715
   535.20         19.6903
   535.34         19.6946
   535.48         19.6825
   535.62         19.6537
   535.76         19.6103
   535.90         19.5578
   536.04         19.5037
   536.18         19.4558
   536.32         19.4203
   536.46         19.3979
   536.60         19.3854
   536.74         19.3783
   536.88         19.3720
   537.02         19.3627
   537.16         19.3478
   537.30         19.3261
   537.44         19.2970
   537.58         19.2594
   537.72         19.2152
   537.86         19.1687
   538.00         19.1246
   538.14         19.0874
   538.28         19.0605
   538.42         19.0461
   538.56         19.0448
   538.70         19.0544
   538.84         19.0709
   538.98         19.0887
   539.12         19.1032
   539.26         19.1121
   539.40         19.1132
   539.54         19.1031
   539.68         19.0796
   539.82         19.0412
   539.96         18.9875
   540.10         18.9191
   540.24         18.8385
   540.38         18.7497
   540.52         18.6579
   540.66         18.5684
   540.80         18.4847
   540.94         18.4079
   541.08         18.3400
   541.22         18.2835
   541.36         18.2402
   541.50         18.2115
   541.64         18.1963
   541.78         18.1923
   541.92         18.1961
   542.06         18.2042
   542.20         18.2149
   542.34         18.2274
   542.48         18.2408
   542.62         18.2558
   542.76         18.2747
   542.90         18.2979
   543.04         18.3228
   543.18         18.3452
   543.32         18.3617
   543.46         18.3693
   543.60         18.3656
   543.74         18.3500
   543.88         18.3220
   544.02         18.2812
   544.16         18.2272
   544.30         18.1601
   544.44         18.0822
   544.58         17.9990
   544.72         17.9179
   544.86         17.8469
   545.00         17.7911
   545.14         17.7532
   545.28         17.7345
   545.42         17.7341
   545.56         17.7496
   545.70         17.7783
   545.84         17.8178
   545.98         17.8661
   546.12         17.9200
   546.26         17.9756
   546.40         18.0281
   546.54         18.0716
   546.68         18.1010
   546.82         18.1146
   546.96         18.1135
   547.10         18.1005
   547.24         18.0795
   547.38         18.0529
   547.52         18.0224
   547.66         17.9899
   547.80         17.9574
   547.94         17.9276
   548.08         17.9024
   548.22         17.8835
   548.36         17.8717
   548.50         17.8680
   548.64         17.8731
   548.78         17.8859
   548.92         17.9035
   549.06         17.9211
   549.20         17.9351
   549.34         17.9444
   549.48         17.9494
   549.62         17.9489
   549.76         17.9410
   549.90         17.9250
   550.04         17.8996
   550.18         17.8650
   550.32         17.8225
   550.46         17.7742
   550.60         17.7227
   550.74         17.6718
   550.88         17.6248
   551.02         17.5833
   551.16         17.5472
   551.30         17.5162
   551.44         17.4900
   551.58         17.4693
   551.72         17.4548
   551.86         17.4468
   552.00         17.4445
   552.14         17.4453
   552.28         17.4463
   552.42         17.4443
   552.56         17.4366
   552.70         17.4203
   552.84         17.3940
   552.98         17.3579
   553.12         17.3129
   553.26         17.2622
   553.40         17.2123
   553.54         17.1705
   553.68         17.1419
   553.82         17.1300
   553.96         17.1353
   554.10         17.1558
   554.24         17.1878
   554.38         17.2259
   554.52         17.2641
   554.66         17.2975
   554.80         17.3226
   554.94         17.3372
   555.08         17.3399
   555.22         17.3306
   555.36         17.3097
   555.50         17.2780
   555.64         17.2381
   555.78         17.1945
   555.92         17.1517
   556.06         17.1125
   556.20         17.0762
   556.34         17.0412
   556.48         17.0078
   556.62         16.9783
   556.76         16.9554
   556.90         16.9398
   557.04         16.9312
   557.18         16.9291
   557.32         16.9328
   557.46         16.9413
   557.60         16.9532
   557.74         16.9665
   557.88         16.9783
   558.02         16.9853
   558.16         16.9840
   558.30         16.9724
   558.44         16.9500
   558.58         16.9177
   558.72         16.8789
   558.86         16.8382
   559.00         16.7995
   559.14         16.7651
   559.28         16.7353
   559.42         16.7095
   559.56         16.6877
   559.70         16.6715
   559.84         16.6617
   559.98         16.6560
   560.12         16.6502
   560.26         16.6400
   560.40         16.6230
   560.54         16.5990
   560.68         16.5697
   560.82         16.5370
   560.96         16.5034
   561.10         16.4699
   561.24         16.4366
   561.38         16.4031
   561.52         16.3683
   561.66         16.3323
   561.80         16.2967
   561.94         16.2636
   562.08         16.2348
   562.22         16.2111
   562.36         16.1931
   562.50         16.1806
   562.64         16.1719
   562.78         16.1649
   562.92         16.1580
   563.06         16.1489
   563.20         16.1356
   563.34         16.1166
   563.48         16.0912
   563.62         16.0591
   563.76         16.0223
   563.90         15.9856
   564.04         15.9536
   564.18         15.9288
   564.32         15.9123
   564.46         15.9031
   564.60         15.8999
   564.74         15.9015
   564.88         15.9073
   565.02         15.9151
   565.16         15.9206
   565.30         15.9186
   565.44         15.9052
   565.58         15.8790
   565.72         15.8409
   565.86         15.7923
   566.00         15.7348
   566.14         15.6716
   566.28         15.6066
   566.42         15.5455
   566.56         15.4934
   566.70         15.4536
   566.84         15.4289
   566.98         15.4214
   567.12         15.4307
   567.26         15.4541
   567.40         15.4874
   567.54         15.5256
   567.68         15.5639
   567.82         15.5980
   567.96         15.6249
   568.10         15.6429
   568.24         15.6507
   568.38         15.6472
   568.52         15.6320
   568.66         15.6084
   568.80         15.5802
   568.94         15.5501
   569.08         15.5195
   569.22         15.4890
   569.36         15.4583
   569.50         15.4277
   569.64         15.3979
   569.78         15.3700
   569.92         15.3456
   570.06         15.3271
   570.20         15.3166
   570.34         15.3144
   570.48         15.3193
   570.62         15.3286
   570.76         15.3390
   570.90         15.3466
   571.04         15.3481
   571.18         15.3412
   571.32         15.3250
   571.46         15.2985
   571.60         15.2621
   571.74         15.2182
   571.88         15.1710
   572.02         15.1272
   572.16         15.0940
   572.30         15.0761
   572.44         15.0746
   572.58         15.0868
   572.72         15.1082
   572.86         15.1338
   573.00         15.1592
   573.14         15.1816
   573.28         15.1990
   573.42         15.2104
   573.56         15.2150
   573.70         15.2111
   573.84         15.1967
   573.98         15.1715
   574.12         15.1370
   574.26         15.0954
   574.40         15.0495
   574.54         15.0018
   574.68         14.9539
   574.82         14.9058
   574.96         14.8564
   575.10         14.8050
   575.24         14.7518
   575.38         14.6987
   575.52         14.6481
   575.66         14.6028
   575.80         14.5651
   575.94         14.5362
   576.08         14.5168
   576.22         14.5069
   576.36         14.5066
   576.50         14.5163
   576.64         14.5362
   576.78         14.5637
   576.92         14.5916
   577.06         14.6118
   577.20         14.6187
   577.34         14.6105
   577.48         14.5889
   577.62         14.5570
   577.76         14.5178
   577.90         14.4750
   578.04         14.4334
   578.18         14.3975
   578.32         14.3723
   578.46         14.3603
   578.60         14.3605
   578.74         14.3704
   578.88         14.3873
   579.02         14.4079
   579.16         14.4279
   579.30         14.4432
   579.44         14.4502
   579.58         14.4489
   579.72         14.4428
   579.86         14.4346
   580.00         14.4255
   580.14         14.4155
   580.28         14.4040
   580.42         14.3898
   580.56         14.3718
   580.70         14.3497
   580.84         14.3237
   580.98         14.2950
   581.12         14.2657
   581.26         14.2385
   581.40         14.2166
   581.54         14.2024
   581.68         14.1961
   581.82         14.1972
   581.96         14.2061
   582.10         14.2226
   582.24         14.2456
   582.38         14.2713
   582.52         14.2948
   582.66         14.3127
   582.80         14.3235
   582.94         14.3251
   583.08         14.3153
   583.22         14.2942
   583.36         14.2652
   583.50         14.2330
   583.64         14.2029
   583.78         14.1797
   583.92         14.1663
   584.06         14.1636
   584.20         14.1708
   584.34         14.1864
   584.48         14.2077
   584.62         14.2311
   584.76         14.2528
   584.90         14.2699
   585.04         14.2810
   585.18         14.2863
   585.32         14.2877
   585.46         14.2874
   585.60         14.2855
   585.74         14.2810
   585.88         14.2737
   586.02         14.2621
   586.16         14.2437
   586.30         14.2151
   586.44         14.1728
   586.58         14.1145
   586.72         14.0405
   586.86         13.9547
   587.00         13.8644
   587.14         13.7792
   587.28         13.7079
   587.42         13.6573
   587.56         13.6302
   587.70         13.6248
   587.84         13.6350
   587.98         13.6518
   588.12         13.6648
   588.26         13.6628
   588.40         13.6359
   588.54         13.5775
   588.68         13.4870
   588.82         13.3707
   588.96         13.2408
   589.10         13.1119
   589.24         12.9990
   589.38         12.9164
   589.52         12.8758
   589.66         12.8835
   589.80         12.9400
   589.94         13.0399
   590.08         13.1726
   590.22         13.3245
   590.36         13.4799
   590.50         13.6237
   590.64         13.7430
   590.78         13.8286
   590.92         13.8752
   591.06         13.8827
   591.20         13.8582
   591.34         13.8134
   591.48         13.7595
   591.62         13.7032
   591.76         13.6474
   591.90         13.5947
   592.04         13.5489
   592.18         13.5125
   592.32         13.4857
   592.46         13.4678
   592.60         13.4573
   592.74         13.4514
   592.88         13.4465
   593.02         13.4393
   593.16         13.4286
   593.30         13.4144
   593.44         13.3984
   593.58         13.3831
   593.72         13.3712
   593.86         13.3651
   594.00         13.3642
   594.14         13.3640
   594.28         13.3591
   594.42         13.3471
   594.56         13.3287
   594.70         13.3050
   594.84         13.2781
   594.98         13.2504
   595.12         13.2239
   595.26         13.2001
   595.40         13.1803
   595.54         13.1654
   595.68         13.1554
   595.82         13.1494
   595.96         13.1451
   596.10         13.1409
   596.24         13.1356
   596.38         13.1279
   596.52         13.1132
   596.66         13.0849
   596.80         13.0395
   596.94         12.9778
   597.08         12.9043
   597.22         12.8257
   597.36         12.7497
   597.50         12.6835
   597.64         12.6321
   597.78         12.5992
   597.92         12.5870
   598.06         12.5940
   598.20         12.6151
   598.34         12.6456
   598.48         12.6830
   598.62         12.7238
   598.76         12.7645
   598.90         12.8016
   599.04         12.8310
   599.18         12.8496
   599.32         12.8582
   599.46         12.8609
   599.60         12.8617
   599.74         12.8628
   599.88         12.8641
   600.02         12.8641
   600.16         12.8603
   600.30         12.8496
   600.44         12.8282
   600.58         12.7929
   600.72         12.7430
   600.86         12.6815
   601.00         12.6137
   601.14         12.5442
   601.28         12.4778
   601.42         12.4202
   601.56         12.3757
   601.70         12.3467
   601.84         12.3345
   601.98         12.3403
   602.12         12.3635
   602.26         12.4009
   602.40         12.4463
   602.54         12.4922
   602.68         12.5325
   602.82         12.5624
   602.96         12.5782
   603.10         12.5790
   603.24         12.5664
   603.38         12.5418
   603.52         12.5063
   603.66         12.4603
   603.80         12.4066
   603.94         12.3503
   604.08         12.2962
   604.22         12.2487
   604.36         12.2114
   604.50         12.1864
   604.64         12.1737
   604.78         12.1710
   604.92         12.1746
   605.06         12.1806
   605.20         12.1865
   605.34         12.1905
   605.48         12.1905
   605.62         12.1843
   605.76         12.1708
   605.90         12.1501
   606.04         12.1244
   606.18         12.0977
   606.32         12.0745
   606.46         12.0584
   606.60         12.0519
   606.74         12.0553
   606.88         12.0672
   607.02         12.0851
   607.16         12.1058
   607.30         12.1261
   607.44         12.1433
   607.58         12.1554
   607.72         12.1622
   607.86         12.1656
   608.00         12.1685
   608.14         12.1737
   608.28         12.1819
   608.42         12.1928
   608.56         12.2051
   608.70         12.2172
   608.84         12.2259
   608.98         12.2261
   609.12         12.2136
   609.26         12.1877
   609.40         12.1492
   609.54         12.0993
   609.68         12.0391
   609.82         11.9712
   609.96         11.8994
   610.10         11.8291
   610.24         11.7659
   610.38         11.7144
   610.52         11.6776
   610.66         11.6558
   610.80         11.6464
   610.94         11.6456
   611.08         11.6517
   611.22         11.6639
   611.36         11.6806
   611.50         11.6990
   611.64         11.7153
   611.78         11.7269
   611.92         11.7321
   612.06         11.7300
   612.20         11.7213
   612.34         11.7087
   612.48         11.6962
   612.62         11.6886
   612.76         11.6899
   612.90         11.7017
   613.04         11.7224
   613.18         11.7497
   613.32         11.7810
   613.46         11.8138
   613.60         11.8457
   613.74         11.8751
   613.88         11.8988
   614.02         11.9138
   614.16         11.9200
   614.30         11.9180
   614.44         11.9092
   614.58         11.8962
   614.72         11.8818
   614.86         11.8672
   615.00         11.8533
   615.14         11.8399
   615.28         11.8262
   615.42         11.8109
   615.56         11.7937
   615.70         11.7761
   615.84         11.7613
   615.98         11.7511
   616.12         11.7456
   616.26         11.7439
   616.40         11.7439
   616.54         11.7429
   616.68         11.7381
   616.82         11.7263
   616.96         11.7050
   617.10         11.6748
   617.24         11.6378
   617.38         11.5962
   617.52         11.5526
   617.66         11.5097
   617.80         11.4694
   617.94         11.4340
   618.08         11.4069
   618.22         11.3906
   618.36         11.3858
   618.50         11.3914
   618.64         11.4061
   618.78         11.4273
   618.92         11.4511
   619.06         11.4726
   619.20         11.4867
   619.34         11.4896
   619.48         11.4797
   619.62         11.4575
   619.76         11.4235
   619.90         11.3782
   620.04         11.3239
   620.18         11.2656
   620.32         11.2096
   620.46         11.1622
   620.60         11.1272
   620.74         11.1068
   620.88         11.1012
   621.02         11.1090
   621.16         11.1282
   621.30         11.1561
   621.44         11.1895
   621.58         11.2245
   621.72         11.2587
   621.86         11.2915
   622.00         11.3242
   622.14         11.3594
   622.28         11.3983
   622.42         11.4395
   622.56         11.4808
   622.70         11.5203
   622.84         11.5555
   622.98         11.5822
   623.12         11.5971
   623.26         11.5991
   623.40         11.5900
   623.54         11.5725
   623.68         11.5501
   623.82         11.5269
   623.96         11.5054
   624.10         11.4855
   624.24         11.4672
   624.38         11.4515
   624.52         11.4397
   624.66         11.4324
   624.80         11.4292
   624.94         11.4285
   625.08         11.4291
   625.22         11.4314
   625.36         11.4352
   625.50         11.4394
   625.64         11.4430
   625.78         11.4450
   625.92         11.4441
   626.06         11.4388
   626.20         11.4286
   626.34         11.4128
   626.48         11.3893
   626.62         11.3544
   626.76         11.3051
   626.90         11.2410
   627.04         11.1627
   627.18         11.0718
   627.32         10.9702
   627.46         10.8609
   627.60         10.7494
   627.74         10.6436
   627.88         10.5520
   628.02         10.4814
   628.16         10.4362
   628.30         10.4173
   628.44         10.4235
   628.58         10.4524
   628.72         10.4996
   628.86         10.5577
   629.00         10.6167
   629.14         10.6665
   629.28         10.6999
   629.42         10.7158
   629.56         10.7170
   629.70         10.7075
   629.84         10.6907
   629.98         10.6693
   630.12         10.6469
   630.26         10.6271
   630.40         10.6114
   630.54         10.5988
   630.68         10.5891
   630.82         10.5829
   630.96         10.5804
   631.10         10.5812
   631.24         10.5848
   631.38         10.5907
   631.52         10.5986
   631.66         10.6090
   631.80         10.6231
   631.94         10.6411
   632.08         10.6616
   632.22         10.6811
   632.36         10.6953
   632.50         10.6999
   632.64         10.6926
   632.78         10.6731
   632.92         10.6428
   633.06         10.6039
   633.20         10.5605
   633.34         10.5171
   633.48         10.4763
   633.62         10.4397
   633.76         10.4085
   633.90         10.3843
   634.04         10.3681
   634.18         10.3599
   634.32         10.3579
   634.46         10.3582
   634.60         10.3567
   634.74         10.3505
   634.88         10.3380
   635.02         10.3187
   635.16         10.2936
   635.30         10.2654
   635.44         10.2378
   635.58         10.2145
   635.72         10.1986
   635.86         10.1916
   636.00         10.1931
   636.14         10.2007
   636.28         10.2104
   636.42         10.2173
   636.56         10.2188
   636.70         10.2137
   636.84         10.2009
   636.98         10.1798
   637.12         10.1510
   637.26         10.1171
   637.40         10.0818
   637.54         10.0489
   637.68         10.0225
   637.82         10.0061
   637.96         10.0022
   638.10         10.0105
   638.24         10.0298
   638.38         10.0582
   638.52         10.0928
   638.66         10.1300
   638.80         10.1669
   638.94         10.2016
   639.08         10.2335
   639.22         10.2612
   639.36         10.2826
   639.50         10.2955
   639.64         10.2991
   639.78         10.2937
   639.92         10.2800
   640.06         10.2598
   640.20         10.2352
   640.34         10.2076
   640.48         10.1779
   640.62         10.1471
   640.76         10.1169
   640.90         10.0900
   641.04         10.0689
   641.18         10.0547
   641.32         10.0482
   641.46         10.0495
   641.60         10.0568
   641.74         10.0667
   641.88         10.0764
   642.02         10.0845
   642.16         10.0916
   642.30         10.0989
   642.44         10.1072
   642.58         10.1164
   642.72         10.1264
   642.86         10.1359
   643.00         10.1438
   643.14         10.1494
   643.28         10.1521
   643.42         10.1507
   643.56         10.1434
   643.70         10.1289
   643.84         10.1078
   643.98         10.0822
   644.12         10.0543
   644.26         10.0269
   644.40         10.0028
   644.54         9.9844
   644.68         9.9724
   644.82         9.9666
   644.96         9.9659
   645.10         9.9681
   645.24         9.9714
   645.38         9.9744
   645.52         9.9759
   645.66         9.9753
   645.80         9.9722
   645.94         9.9668
   646.08         9.9597
   646.22         9.9515
   646.36         9.9428
   646.50         9.9335
   646.64         9.9229
   646.78         9.9104
   646.92         9.8956
   647.06         9.8787
   647.20         9.8601
   647.34         9.8409
   647.48         9.8225
   647.62         9.8056
   647.76         9.7909
   647.90         9.7781
   648.04         9.7663
   648.18         9.7553
   648.32         9.7453
   648.46         9.7377
   648.60         9.7340
   648.74         9.7356
   648.88         9.7441
   649.02         9.7610
   649.16         9.7868
   649.30         9.8195
   649.44         9.8564
   649.58         9.8949
   649.72         9.9332
   649.86         9.9693
   650.00         10.0011
   650.14         10.0263
   650.28         10.0430
   650.42         10.0499
   650.56         10.0459
   650.70         10.0306
   650.84         10.0057
   650.98         9.9736
   651.12         9.9369
   651.26         9.8984
   651.40         9.8602
   651.54         9.8250
   651.68         9.7951
   651.82         9.7717
   651.96         9.7559
   652.10         9.7488
   652.24         9.7501
   652.38         9.7582
   652.52         9.7697
   652.66         9.7808
   652.80         9.7885
   652.94         9.7913
   653.08         9.7889
   653.22         9.7818
   653.36         9.7714
   653.50         9.7593
   653.64         9.7462
   653.78         9.7332
   653.92         9.7197
   654.06         9.7036
   654.20         9.6821
   654.34         9.6517
   654.48         9.6087
   654.62         9.5497
   654.76         9.4721
   654.90         9.3742
   655.04         9.2538
   655.18         9.1090
   655.32         8.9409
   655.46         8.7551
   655.60         8.5615
   655.74         8.3719
   655.88         8.1996
   656.02         8.0570
   656.16         7.9550
   656.30         7.9010
   656.44         7.8978
   656.58         7.9429
   656.72         8.0298
   656.86         8.1494
   657.00         8.2906
   657.14         8.4418
   657.28         8.5910
   657.42         8.7277
   657.56         8.8445
   657.70         8.9379
   657.84         9.0097
   657.98         9.0651
   658.12         9.1107
   658.26         9.1517
   658.40         9.1916
   658.54         9.2319
   658.68         9.2728
   658.82         9.3129
   658.96         9.3500
   659.10         9.3816
   659.24         9.4066
   659.38         9.4258
   659.52         9.4409
   659.66         9.4537
   659.80         9.4649
   659.94         9.4739
   660.08         9.4792
   660.22         9.4797
   660.36         9.4748
   660.50         9.4651
   660.64         9.4504
   660.78         9.4303
   660.92         9.4040
   661.06         9.3717
   661.20         9.3354
   661.34         9.2980
   661.48         9.2620
   661.62         9.2301
   661.76         9.2053
   661.90         9.1895
   662.04         9.1829
   662.18         9.1846
   662.32         9.1933
   662.46         9.2068
   662.60         9.2219
   662.74         9.2351
   662.88         9.2435
   663.02         9.2450
   663.16         9.2371
   663.30         9.2177
   663.44         9.1867
   663.58         9.1463
   663.72         9.0999
   663.86         9.0507
   664.00         9.0017
   664.14         8.9562
   664.28         8.9181
   664.42         8.8905
   664.56         8.8754
   664.70         8.8740
   664.84         8.8865
   664.98         8.9106
   665.12         8.9409
   665.26         8.9705
   665.40         8.9932
   665.54         9.0052
   665.68         9.0047
   665.82         8.9909
   665.96         8.9644
   666.10         8.9271
   666.24         8.8818
   666.38         8.8316
   666.52         8.7793
   666.66         8.7263
   666.80         8.6731
   666.94         8.6205
   667.08         8.5706
   667.22         8.5270
   667.36         8.4919
   667.50         8.4667
   667.64         8.4510
   667.78         8.4438
   667.92         8.4442
   668.06         8.4525
   668.20         8.4691
   668.34         8.4934
   668.48         8.5232
   668.62         8.5551
   668.76         8.5849
   668.90         8.6091
   669.04         8.6260
   669.18         8.6355
   669.32         8.6399
   669.46         8.6428
   669.60         8.6480
   669.74         8.6582
   669.88         8.6730
   670.02         8.6900
   670.16         8.7069
   670.30         8.7212
   670.44         8.7303
   670.58         8.7327
   670.72         8.7283
   670.86         8.7176
   671.00         8.7015
   671.14         8.6819
   671.28         8.6607
   671.42         8.6406
   671.56         8.6248
   671.70         8.6158
   671.84         8.6135
   671.98         8.6165
   672.12         8.6225
   672.26         8.6290
   672.40         8.6343
   672.54         8.6366
   672.68         8.6335
   672.82         8.6234
   672.96         8.6061
   673.10         8.5832
   673.24         8.5571
   673.38         8.5303
   673.52         8.5055
   673.66         8.4848
   673.80         8.4690
   673.94         8.4576
   674.08         8.4501
   674.22         8.4459
   674.36         8.4440
   674.50         8.4444
   674.64         8.4480
   674.78         8.4550
   674.92         8.4648
   675.06         8.4766
   675.20         8.4885
   675.34         8.4985
   675.48         8.5061
   675.62         8.5114
   675.76         8.5135
   675.90         8.5120
   676.04         8.5077
   676.18         8.5021
   676.32         8.4960
   676.46         8.4899
   676.60         8.4844
   676.74         8.4802
   676.88         8.4770
   677.02         8.4742
   677.16         8.4711
   677.30         8.4661
   677.44         8.4568
   677.58         8.4410
   677.72         8.4179
   677.86         8.3885
   678.00         8.3548
   678.14         8.3201
   678.28         8.2882
   678.42         8.2631
   678.56         8.2473
   678.70         8.2419
   678.84         8.2463
   678.98         8.2596
   679.12         8.2811
   679.26         8.3091
   679.40         8.3412
   679.54         8.3749
   679.68         8.4085
   679.82         8.4404
   679.96         8.4678
   680.10         8.4880
   680.24         8.5008
   680.38         8.5074
   680.52         8.5103
   680.66         8.5120
   680.80         8.5142
   680.94         8.5180
   681.08         8.5235
   681.22         8.5303
   681.36         8.5383
   681.50         8.5481
   681.64         8.5605
   681.78         8.5759
   681.92         8.5932
   682.06         8.6095
   682.20         8.6219
   682.34         8.6284
   682.48         8.6279
   682.62         8.6214
   682.76         8.6116
   682.90         8.6019
   683.04         8.5943
   683.18         8.5881
   683.32         8.5813
   683.46         8.5710
   683.60         8.5547
   683.74         8.5309
   683.88         8.4995
   684.02         8.4608
   684.16         8.4163
   684.30         8.3675
   684.44         8.3158
   684.58         8.2625
   684.72         8.2096
   684.86         8.1600
   685.00         8.1171
   685.14         8.0831
   685.28         8.0580
   685.42         8.0393
   685.56         8.0212
   685.70         7.9936
   685.84         7.9459
   685.98         7.8695
   686.12         7.7592
   686.26         7.6157
   686.40         7.4453
   686.54         7.2589
   686.68         7.0702
   686.82         6.8943
   686.96         6.7459
   687.10         6.6372
   687.24         6.5766
   687.38         6.5670
   687.52         6.6061
   687.66         6.6869
   687.80         6.7981
   687.94         6.9242
   688.08         7.0473
   688.22         7.1510
   688.36         7.2241
   688.50         7.2628
   688.64         7.2699
   688.78         7.2530
   688.92         7.2230
   689.06         7.1918
   689.20         7.1687
   689.34         7.1598
   689.48         7.1682
   689.62         7.1942
   689.76         7.2364
   689.90         7.2927
   690.04         7.3598
   690.18         7.4322
   690.32         7.5035
   690.46         7.5682
   690.60         7.6225
   690.74         7.6642
   690.88         7.6936
   691.02         7.7122
   691.16         7.7212
   691.30         7.7212
   691.44         7.7136
   691.58         7.7002
   691.72         7.6826
   691.86         7.6618
   692.00         7.6387
   692.14         7.6156
   692.28         7.5957
   692.42         7.5817
   692.56         7.5745
   692.70         7.5730
   692.84         7.5758
   692.98         7.5820
   693.12         7.5913
   693.26         7.6032
   693.40         7.6161
   693.54         7.6279
   693.68         7.6379
   693.82         7.6470
   693.96         7.6566
   694.10         7.6672
   694.24         7.6778
   694.38         7.6863
   694.52         7.6906
   694.66         7.6902
   694.80         7.6865
   694.94         7.6817
   695.08         7.6780
   695.22         7.6773
   695.36         7.6809
   695.50         7.6905
   695.64         7.7085
   695.78         7.7382
   695.92         7.7824
   696.06         7.8418
   696.20         7.9147
   696.34         7.9976
   696.48         8.0844
   696.62         8.1661
   696.76         8.2346
   696.90         8.2852
   697.04         8.3164
   697.18         8.3292
   697.32         8.3259
   697.46         8.3086
   697.60         8.2793
   697.74         8.2383
   697.88         8.1863
   698.02         8.1257
   698.16         8.0606
   698.30         7.9950
   698.44         7.9315
   698.58         7.8705
   698.72         7.8127
   698.86         7.7599
   699.00         7.7154
   699.14         7.6823
   699.28         7.6640
   699.42         7.6627
   699.56         7.6790
   699.70         7.7104
   699.84         7.7520
   699.98         7.7987
   700.12         7.8449
   700.26         7.8845
   700.40         7.9117
   700.54         7.9236
   700.68         7.9194
   700.82         7.9000
   700.96         7.8666
   701.10         7.8213
   701.24         7.7682
   701.38         7.7137
   701.52         7.6635
   701.66         7.6202
   701.80         7.5847
   701.94         7.5581
   702.08         7.5409
   702.22         7.5323
   702.36         7.5316
   702.50         7.5387
   702.64         7.5524
   702.78         7.5694
   702.92         7.5864
   703.06         7.6009
   703.20         7.6107
   703.34         7.6141
   703.48         7.6111
   703.62         7.6031
   703.76         7.5931
   703.90         7.5837
   704.04         7.5764
   704.18         7.5721
   704.32         7.5717
   704.46         7.5773
   704.60         7.5899
   704.74         7.6087
   704.88         7.6315
   705.02         7.6547
   705.16         7.6725
   705.30         7.6781
   705.44         7.6665
   705.58         7.6370
   705.72         7.5926
   705.86         7.5389
   706.00         7.4828
   706.14         7.4312
   706.28         7.3885
   706.42         7.3570
   706.56         7.3381
   706.70         7.3332
   706.84         7.3425
   706.98         7.3646
   707.12         7.3963
   707.26         7.4323
   707.40         7.4680
   707.54         7.5007
   707.68         7.5291
   707.82         7.5531
   707.96         7.5755
   708.10         7.5999
   708.24         7.6290
   708.38         7.6628
   708.52         7.6993
   708.66         7.7363
   708.80         7.7717
   708.94         7.8039
   709.08         7.8315
   709.22         7.8535
   709.36         7.8683
   709.50         7.8745
   709.64         7.8706
   709.78         7.8541
   709.92         7.8232
   710.06         7.7796
   710.20         7.7267
   710.34         7.6684
   710.48         7.6088
   710.62         7.5528
   710.76         7.5050
   710.90         7.4691
   711.04         7.4489
   711.18         7.4479
   711.32         7.4669
   711.46         7.5043
   711.60         7.5563
   711.74         7.6182
   711.88         7.6846
   712.02         7.7491
   712.16         7.8056
   712.30         7.8490
   712.44         7.8766
   712.58         7.8889
   712.72         7.8879
   712.86         7.8751
   713.00         7.8500
   713.14         7.8132
   713.28         7.7670
   713.42         7.7159
   713.56         7.6650
   713.70         7.6200
   713.84         7.5854
   713.98         7.5640
   714.12         7.5571
   714.26         7.5643
   714.40         7.5831
   714.54         7.6095
   714.68         7.6375
   714.82         7.6609
   714.96         7.6748
   715.10         7.6763
   715.24         7.6650
   715.38         7.6422
   715.52         7.6101
   715.66         7.5709
   715.80         7.5275
   715.94         7.4833
   716.08         7.4407
   716.22         7.4013
   716.36         7.3653
   716.50         7.3320
   716.64         7.3004
   716.78         7.2699
   716.92         7.2404
   717.06         7.2115
   717.20         7.1824
   717.34         7.1513
   717.48         7.1169
   717.62         7.0803
   717.76         7.0430
   717.90         7.0054
   718.04         6.9667
   718.18         6.9250
   718.32         6.8798
   718.46         6.8326
   718.60         6.7864
   718.74         6.7445
   718.88         6.7097
   719.02         6.6840
   719.16         6.6683
   719.30         6.6621
   719.44         6.6649
   719.58         6.6773
   719.72         6.6999
   719.86         6.7331
   720.00         6.7778
   720.14         6.8356
   720.28         6.9070
   720.42         6.9892
   720.56         7.0782
   720.70         7.1704
   720.84         7.2620
   720.98         7.3477
   721.12         7.4209
   721.26         7.4755
   721.40         7.5082
   721.54         7.5183
   721.68         7.5075
   721.82         7.4791
   721.96         7.4381
   722.10         7.3911
   722.24         7.3430
   722.38         7.2954
   722.52         7.2497
   722.66         7.2091
   722.80         7.1754
   722.94         7.1483
   723.08         7.1269
   723.22         7.1114
   723.36         7.1016
   723.50         7.0970
   723.64         7.0966
   723.78         7.1004
   723.92         7.1093
   724.06         7.1224
   724.20         7.1363
   724.34         7.1480
   724.48         7.1551
   724.62         7.1556
   724.76         7.1491
   724.90         7.1381
   725.04         7.1261
   725.18         7.1161
   725.32         7.1082
   725.46         7.1012
   725.60         7.0959
   725.74         7.0949
   725.88         7.1005
   726.02         7.1133
   726.16         7.1322
   726.30         7.1550
   726.44         7.1775
   726.58         7.1957
   726.72         7.2067
   726.86         7.2105
   727.00         7.2082
   727.14         7.2010
   727.28         7.1904
   727.42         7.1782
   727.56         7.1641
   727.70         7.1462
   727.84         7.1236
   727.98         7.0976
   728.12         7.0705
   728.26         7.0447
   728.40         7.0204
   728.54         6.9973
   728.68         6.9755
   728.82         6.9562
   728.96         6.9414
   729.10         6.9323
   729.24         6.9297
   729.38         6.9354
   729.52         6.9508
   729.66         6.9762
   729.80         7.0104
   729.94         7.0503
   730.08         7.0916
   730.22         7.1307
   730.36         7.1655
   730.50         7.1937
   730.64         7.2125
   730.78         7.2200
   730.92         7.2163
   731.06         7.2035
   731.20         7.1851
   731.34         7.1652
   731.48         7.1467
   731.62         7.1309
   731.76         7.1178
   731.90         7.1089
   732.04         7.1063
   732.18         7.1102
   732.32         7.1200
   732.46         7.1360
   732.60         7.1585
   732.74         7.1865
   732.88         7.2171
   733.02         7.2457
   733.16         7.2670
   733.30         7.2776
   733.44         7.2768
   733.58         7.2653
   733.72         7.2444
   733.86         7.2149
   734.00         7.1782
   734.14         7.1375
   734.28         7.0975
   734.42         7.0638
   734.56         7.0419
   734.70         7.0346
   734.84         7.0436
   734.98         7.0684
   735.12         7.1066
   735.26         7.1530
   735.40         7.2015
   735.54         7.2464
   735.68         7.2830
   735.82         7.3073
   735.96         7.3174
   736.10         7.3128
   736.24         7.2933
   736.38         7.2600
   736.52         7.2154
   736.66         7.1637
   736.80         7.1095
   736.94         7.0569
   737.08         7.0097
   737.22         6.9703
   737.36         6.9397
   737.50         6.9185
   737.64         6.9072
   737.78         6.9057
   737.92         6.9125
   738.06         6.9241
   738.20         6.9369
   738.34         6.9481
   738.48         6.9561
   738.62         6.9599
   738.76         6.9581
   738.90         6.9490
   739.04         6.9319
   739.18         6.9063
   739.32         6.8722
   739.46         6.8300
   739.60         6.7814
   739.74         6.7294
   739.88         6.6781
   740.02         6.6324
   740.16         6.5963
   740.30         6.5723
   740.44         6.5612
   740.58         6.5633
   740.72         6.5805
   740.86         6.6159
   741.00         6.6713
   741.14         6.7451
   741.28         6.8330
   741.42         6.9284
   741.56         7.0240
   741.70         7.1127
   741.84         7.1885
   741.98         7.2482
   742.12         7.2915
   742.26         7.3205
   742.40         7.3393
   742.54         7.3520
   742.68         7.3604
   742.82         7.3646
   742.96         7.3646
   743.10         7.3604
   743.24         7.3520
   743.38         7.3393
   743.52         7.3205
   743.66         7.2915
   743.80         7.2482
   743.94         7.1885
   744.08         7.1127
   744.22         7.0240
