# File HD35619
# Wavelength [nm]    Normalized Amplitude
   349.70         374.9208
   349.84         375.9820
   349.98         376.5590
   350.12         376.5336
   350.26         375.9028
   350.40         374.7995
   350.54         373.4359
   350.68         372.0359
   350.82         370.8133
   350.96         369.9689
   351.10         369.6653
   351.24         369.9689
   351.38         370.8133
   351.52         372.0359
   351.66         373.4359
   351.80         374.7995
   351.94         375.9028
   352.08         376.5336
   352.22         376.5590
   352.36         375.9820
   352.50         374.9208
   352.64         373.5329
   352.78         371.9809
   352.92         370.4303
   353.06         369.0152
   353.20         367.8241
   353.34         366.9076
   353.48         366.2835
   353.62         365.9268
   353.76         365.7413
   353.90         365.5651
   354.04         365.2375
   354.18         364.6544
   354.32         363.7757
   354.46         362.6097
   354.60         361.2070
   354.74         359.6732
   354.88         358.1570
   355.02         356.8009
   355.16         355.7156
   355.30         354.9738
   355.44         354.5985
   355.58         354.5938
   355.72         354.9673
   355.86         355.6960
   356.00         356.6839
   356.14         357.7691
   356.28         358.7541
   356.42         359.4273
   356.56         359.6041
   356.70         359.1684
   356.84         358.0768
   356.98         356.3375
   357.12         353.9925
   357.26         351.1280
   357.40         347.8871
   357.54         344.4465
   357.68         340.9910
   357.82         337.7208
   357.96         334.8508
   358.10         332.5710
   358.24         331.0115
   358.38         330.2076
   358.52         330.0715
   358.66         330.4308
   358.80         331.0915
   358.94         331.8804
   359.08         332.6552
   359.22         333.3017
   359.36         333.7443
   359.50         333.9505
   359.64         333.9284
   359.78         333.7160
   359.92         333.3765
   360.06         332.9950
   360.20         332.6490
   360.34         332.3851
   360.48         332.2166
   360.62         332.1091
   360.76         331.9780
   360.90         331.7286
   361.04         331.2922
   361.18         330.6483
   361.32         329.8339
   361.46         328.9255
   361.60         328.0199
   361.74         327.2044
   361.88         326.5405
   362.02         326.0686
   362.16         325.7801
   362.30         325.6140
   362.44         325.5043
   362.58         325.4059
   362.72         325.2966
   362.86         325.1698
   363.00         325.0289
   363.14         324.8944
   363.28         324.8079
   363.42         324.8183
   363.56         324.9564
   363.70         325.2350
   363.84         325.6639
   363.98         326.2195
   364.12         326.8264
   364.26         327.4098
   364.40         327.9241
   364.54         328.3338
   364.68         328.6159
   364.82         328.7772
   364.96         328.8510
   365.10         328.8461
   365.24         328.7126
   365.38         328.4000
   365.52         327.8823
   365.66         327.1395
   365.80         326.1647
   365.94         324.9673
   366.08         323.5886
   366.22         322.1236
   366.36         320.7018
   366.50         319.4203
   366.64         318.3339
   366.78         317.5125
   366.92         317.0455
   367.06         316.9624
   367.20         317.1924
   367.34         317.6107
   367.48         318.0755
   367.62         318.4622
   367.76         318.7109
   367.90         318.8349
   368.04         318.8846
   368.18         318.8924
   368.32         318.8692
   368.46         318.8338
   368.60         318.8164
   368.74         318.8407
   368.88         318.8843
   369.02         318.8540
   369.16         318.6227
   369.30         318.1063
   369.44         317.2845
   369.58         316.1636
   369.72         314.7735
   369.86         313.1891
   370.00         311.5243
   370.14         309.9096
   370.28         308.4737
   370.42         307.3010
   370.56         306.4042
   370.70         305.7603
   370.84         305.3419
   370.98         305.0999
   371.12         304.9626
   371.26         304.8678
   371.40         304.7836
   371.54         304.7041
   371.68         304.6451
   371.82         304.6445
   371.96         304.7186
   372.10         304.8141
   372.24         304.8300
   372.38         304.6775
   372.52         304.3160
   372.66         303.7574
   372.80         303.0578
   372.94         302.2963
   373.08         301.5592
   373.22         300.9227
   373.36         300.4335
   373.50         300.0935
   373.64         299.8501
   373.78         299.6147
   373.92         299.3020
   374.06         298.8381
   374.20         298.1376
   374.34         297.1191
   374.48         295.7266
   374.62         293.9078
   374.76         291.6605
   374.90         289.1315
   375.04         286.5948
   375.18         284.3321
   375.32         282.5472
   375.46         281.3340
   375.60         280.6703
   375.74         280.4286
   375.88         280.4116
   376.02         280.4210
   376.16         280.3298
   376.30         280.1186
   376.44         279.8844
   376.58         279.8127
   376.72         280.1064
   376.86         280.9123
   377.00         282.3110
   377.14         284.3368
   377.28         287.0011
   377.42         290.3222
   377.56         294.2937
   377.70         298.7869
   377.84         303.5023
   377.98         308.0273
   378.12         311.9377
   378.26         314.8586
   378.40         316.4939
   378.54         316.6667
   378.68         315.3680
   378.82         312.7581
   378.96         309.1162
   379.10         304.7960
   379.24         300.1973
   379.38         295.7451
   379.52         291.8720
   379.66         288.9826
   379.80         287.4018
   379.94         287.3204
   380.08         288.7560
   380.22         291.5371
   380.36         295.3185
   380.50         299.6377
   380.64         304.0004
   380.78         307.9656
   380.92         311.1945
   381.06         313.4768
   381.20         314.7565
   381.34         315.1290
   381.48         314.7841
   381.62         313.9321
   381.76         312.7548
   381.90         311.3614
   382.04         309.7508
   382.18         307.8134
   382.32         305.3958
   382.46         302.4010
   382.60         298.8571
   382.74         294.9160
   382.88         290.8079
   383.02         286.8027
   383.16         283.2019
   383.30         280.3154
   383.44         278.4308
   383.58         277.7591
   383.72         278.3608
   383.86         280.1305
   384.00         282.8594
   384.14         286.2704
   384.28         290.0041
   384.42         293.6542
   384.56         296.8502
   384.70         299.3338
   384.84         301.0073
   384.98         301.9452
   385.12         302.3321
   385.26         302.3619
   385.40         302.1773
   385.54         301.8599
   385.68         301.4619
   385.82         301.0210
   385.96         300.5386
   386.10         299.9843
   386.24         299.3301
   386.38         298.5675
   386.52         297.7057
   386.66         296.7607
   386.80         295.7162
   386.94         294.5194
   387.08         293.1208
   387.22         291.4771
   387.36         289.5112
   387.50         287.0942
   387.64         284.0879
   387.78         280.4182
   387.92         276.1435
   388.06         271.4793
   388.20         266.7567
   388.34         262.3577
   388.48         258.6488
   388.62         255.9522
   388.76         254.5296
   388.90         254.5278
   389.04         255.9319
   389.18         258.5793
   389.32         262.2156
   389.46         266.5359
   389.60         271.2052
   389.74         275.8761
   389.88         280.2149
   390.02         283.9486
   390.16         286.9199
   390.30         289.1157
   390.44         290.6328
   390.58         291.5951
   390.72         292.0822
   390.86         292.1134
   391.00         291.6741
   391.14         290.7494
   391.28         289.3593
   391.42         287.5802
   391.56         285.5468
   391.70         283.4357
   391.84         281.4216
   391.98         279.6327
   392.12         278.1334
   392.26         276.9442
   392.40         276.0659
   392.54         275.4869
   392.68         275.1868
   392.82         275.1428
   392.96         275.3288
   393.10         275.7039
   393.24         276.2131
   393.38         276.8114
   393.52         277.4739
   393.66         278.1810
   393.80         278.9045
   393.94         279.6182
   394.08         280.2993
   394.22         280.9007
   394.36         281.3373
   394.50         281.5140
   394.64         281.3644
   394.78         280.8662
   394.92         280.0374
   395.06         278.8969
   395.20         277.4278
   395.34         275.5683
   395.48         273.1988
   395.62         270.1500
   395.76         266.2646
   395.90         261.4965
   396.04         255.9787
   396.18         250.0061
   396.32         243.9775
   396.46         238.3391
   396.60         233.5357
   396.74         229.9568
   396.88         227.8806
   397.02         227.4409
   397.16         228.6141
   397.30         231.2305
   397.44         235.0056
   397.58         239.5664
   397.72         244.4777
   397.86         249.2939
   398.00         253.6172
   398.14         257.1592
   398.28         259.7915
   398.42         261.5504
   398.56         262.5918
   398.70         263.1144
   398.84         263.2931
   398.98         263.2424
   399.12         263.0101
   399.26         262.6121
   399.40         262.0678
   399.54         261.3968
   399.68         260.6171
   399.82         259.7660
   399.96         258.9112
   400.10         258.1257
   400.24         257.4604
   400.38         256.9430
   400.52         256.5903
   400.66         256.3998
   400.80         256.3319
   400.94         256.2999
   401.08         256.1716
   401.22         255.7843
   401.36         254.9862
   401.50         253.6841
   401.64         251.8635
   401.78         249.6028
   401.92         247.0724
   402.06         244.4941
   402.20         242.0920
   402.34         240.0728
   402.48         238.6095
   402.62         237.8153
   402.76         237.7246
   402.90         238.2952
   403.04         239.4221
   403.18         240.9495
   403.32         242.6765
   403.46         244.3835
   403.60         245.8785
   403.74         247.0325
   403.88         247.8088
   404.02         248.2694
   404.16         248.5184
   404.30         248.6397
   404.44         248.6872
   404.58         248.6838
   404.72         248.6243
   404.86         248.4931
   405.00         248.2769
   405.14         247.9571
   405.28         247.5146
   405.42         246.9381
   405.56         246.2130
   405.70         245.3271
   405.84         244.2782
   405.98         243.0795
   406.12         241.7675
   406.26         240.3993
   406.40         239.0426
   406.54         237.7676
   406.68         236.6312
   406.82         235.6698
   406.96         234.9116
   407.10         234.3734
   407.24         234.0484
   407.38         233.9055
   407.52         233.8935
   407.66         233.9341
   407.80         233.9387
   407.94         233.8481
   408.08         233.6274
   408.22         233.2362
   408.36         232.6212
   408.50         231.7129
   408.64         230.4174
   408.78         228.6181
   408.92         226.1990
   409.06         223.1064
   409.20         219.4065
   409.34         215.2887
   409.48         211.0316
   409.62         206.9578
   409.76         203.3947
   409.90         200.6478
   410.04         198.9602
   410.18         198.4764
   410.32         199.2354
   410.46         201.1775
   410.60         204.1303
   410.74         207.7984
   410.88         211.8120
   411.02         215.8033
   411.16         219.4598
   411.30         222.5554
   411.44         224.9763
   411.58         226.7338
   411.72         227.9497
   411.86         228.7924
   412.00         229.4063
   412.14         229.8855
   412.28         230.2739
   412.42         230.5774
   412.56         230.7816
   412.70         230.8645
   412.84         230.8077
   412.98         230.5958
   413.12         230.2090
   413.26         229.6293
   413.40         228.8621
   413.54         227.9516
   413.68         226.9617
   413.82         225.9488
   413.96         224.9566
   414.10         224.0230
   414.24         223.1848
   414.38         222.4711
   414.52         221.8998
   414.66         221.4800
   414.80         221.2060
   414.94         221.0501
   415.08         220.9743
   415.22         220.9489
   415.36         220.9542
   415.50         220.9647
   415.64         220.9508
   415.78         220.8999
   415.92         220.8174
   416.06         220.7090
   416.20         220.5703
   416.34         220.3949
   416.48         220.1877
   416.62         219.9638
   416.76         219.7383
   416.90         219.5236
   417.04         219.3332
   417.18         219.1769
   417.32         219.0401
   417.46         218.8798
   417.60         218.6505
   417.74         218.3186
   417.88         217.8576
   418.02         217.2490
   418.16         216.4913
   418.30         215.6055
   418.44         214.6246
   418.58         213.5650
   418.72         212.4193
   418.86         211.1809
   419.00         209.8675
   419.14         208.5210
   419.28         207.1899
   419.42         205.9252
   419.56         204.7893
   419.70         203.8505
   419.84         203.1621
   419.98         202.7555
   420.12         202.6556
   420.26         202.8823
   420.40         203.4347
   420.54         204.2833
   420.68         205.3589
   420.82         206.5518
   420.96         207.7355
   421.10         208.7855
   421.24         209.5915
   421.38         210.0873
   421.52         210.2720
   421.66         210.1965
   421.80         209.9350
   421.94         209.5610
   422.08         209.1357
   422.22         208.7097
   422.36         208.3198
   422.50         207.9915
   422.64         207.7407
   422.78         207.5685
   422.92         207.4549
   423.06         207.3646
   423.20         207.2562
   423.34         207.0914
   423.48         206.8525
   423.62         206.5373
   423.76         206.1375
   423.90         205.6485
   424.04         205.0893
   424.18         204.4975
   424.32         203.9195
   424.46         203.4007
   424.60         202.9670
   424.74         202.6195
   424.88         202.3504
   425.02         202.1510
   425.16         202.0031
   425.30         201.8688
   425.44         201.7022
   425.58         201.4702
   425.72         201.1564
   425.86         200.7520
   426.00         200.2515
   426.14         199.6548
   426.28         198.9775
   426.42         198.2588
   426.56         197.5534
   426.70         196.9091
   426.84         196.3545
   426.98         195.9029
   427.12         195.5541
   427.26         195.2979
   427.40         195.1322
   427.54         195.0715
   427.68         195.1257
   427.82         195.2833
   427.96         195.5275
   428.10         195.8480
   428.24         196.2351
   428.38         196.6688
   428.52         197.1174
   428.66         197.5474
   428.80         197.9366
   428.94         198.2727
   429.08         198.5383
   429.22         198.7072
   429.36         198.7550
   429.50         198.6660
   429.64         198.4371
   429.78         198.0830
   429.92         197.6388
   430.06         197.1494
   430.20         196.6499
   430.34         196.1547
   430.48         195.6703
   430.62         195.2072
   430.76         194.7779
   430.90         194.3965
   431.04         194.0693
   431.18         193.7894
   431.32         193.5472
   431.46         193.3345
   431.60         193.1394
   431.74         192.9441
   431.88         192.7193
   432.02         192.4199
   432.16         191.9970
   432.30         191.4050
   432.44         190.5878
   432.58         189.4570
   432.72         187.8883
   432.86         185.7678
   433.00         183.0547
   433.14         179.8185
   433.28         176.2381
   433.42         172.5691
   433.56         169.0966
   433.70         166.0944
   433.84         163.8019
   433.98         162.4085
   434.12         162.0248
   434.26         162.6605
   434.40         164.2264
   434.54         166.5503
   434.68         169.4074
   434.82         172.5528
   434.96         175.7387
   435.10         178.7374
   435.24         181.3670
   435.38         183.5158
   435.52         185.1634
   435.66         186.3657
   435.80         187.2153
   435.94         187.8047
   436.08         188.2048
   436.22         188.4661
   436.36         188.6231
   436.50         188.6929
   436.64         188.6772
   436.78         188.5672
   436.92         188.3553
   437.06         188.0445
   437.20         187.6399
   437.34         187.1422
   437.48         186.5540
   437.62         185.8813
   437.76         185.1320
   437.90         184.3192
   438.04         183.4740
   438.18         182.6525
   438.32         181.9233
   438.46         181.3455
   438.60         180.9500
   438.74         180.7366
   438.88         180.6854
   439.02         180.7669
   439.16         180.9424
   439.30         181.1654
   439.44         181.3862
   439.58         181.5578
   439.72         181.6387
   439.86         181.5951
   440.00         181.4103
   440.14         181.0843
   440.28         180.6284
   440.42         180.0667
   440.56         179.4368
   440.70         178.7751
   440.84         178.1039
   440.98         177.4301
   441.12         176.7497
   441.26         176.0578
   441.40         175.3568
   441.54         174.6564
   441.68         173.9632
   441.82         173.2731
   441.96         172.5746
   442.10         171.8664
   442.24         171.1705
   442.38         170.5223
   442.52         169.9553
   442.66         169.4960
   442.80         169.1661
   442.94         168.9863
   443.08         168.9706
   443.22         169.1171
   443.36         169.4021
   443.50         169.7858
   443.64         170.2245
   443.78         170.6801
   443.92         171.1252
   444.06         171.5419
   444.20         171.9182
   444.34         172.2451
   444.48         172.5142
   444.62         172.7173
   444.76         172.8573
   444.90         172.9496
   445.04         173.0064
   445.18         173.0311
   445.32         173.0211
   445.46         172.9690
   445.60         172.8472
   445.74         172.5994
   445.88         172.1578
   446.02         171.4703
   446.16         170.5270
   446.30         169.3696
   446.44         168.0762
   446.58         166.7421
   446.72         165.4619
   446.86         164.3163
   447.00         163.3729
   447.14         162.6872
   447.28         162.2969
   447.42         162.2141
   447.56         162.4178
   447.70         162.8536
   447.84         163.4409
   447.98         164.0945
   448.12         164.7349
   448.26         165.2949
   448.40         165.7390
   448.54         166.0727
   448.68         166.3261
   448.82         166.5360
   448.96         166.7292
   449.10         166.9117
   449.24         167.0765
   449.38         167.2134
   449.52         167.3106
   449.66         167.3568
   449.80         167.3415
   449.94         167.2508
   450.08         167.0725
   450.22         166.8076
   450.36         166.4736
   450.50         166.0959
   450.64         165.7052
   450.78         165.3314
   450.92         164.9951
   451.06         164.7109
   451.20         164.4913
   451.34         164.3425
   451.48         164.2592
   451.62         164.2258
   451.76         164.2206
   451.90         164.2212
   452.04         164.1998
   452.18         164.1249
   452.32         163.9743
   452.46         163.7336
   452.60         163.3903
   452.74         162.9285
   452.88         162.3264
   453.02         161.5690
   453.16         160.6681
   453.30         159.6665
   453.44         158.6256
   453.58         157.6143
   453.72         156.7151
   453.86         156.0065
   454.00         155.5313
   454.14         155.3011
   454.28         155.3173
   454.42         155.5684
   454.56         156.0201
   454.70         156.6161
   454.84         157.2899
   454.98         157.9725
   455.12         158.5963
   455.26         159.1009
   455.40         159.4417
   455.54         159.6073
   455.68         159.6246
   455.82         159.5392
   455.96         159.3991
   456.10         159.2465
   456.24         159.1102
   456.38         158.9994
   456.52         158.8998
   456.66         158.7883
   456.80         158.6537
   456.94         158.4948
   457.08         158.3062
   457.22         158.0811
   457.36         157.8182
   457.50         157.5229
   457.64         157.2058
   457.78         156.8830
   457.92         156.5743
   458.06         156.2946
   458.20         156.0479
   458.34         155.8321
   458.48         155.6520
   458.62         155.5202
   458.76         155.4363
   458.90         155.3816
   459.04         155.3332
   459.18         155.2715
   459.32         155.1807
   459.46         155.0542
   459.60         154.8932
   459.74         154.7038
   459.88         154.5049
   460.02         154.3188
   460.16         154.1605
   460.30         154.0473
   460.44         153.9927
   460.58         153.9919
   460.72         154.0279
   460.86         154.0900
   461.00         154.1800
   461.14         154.2972
   461.28         154.4158
   461.42         154.4921
   461.56         154.4867
   461.70         154.3695
   461.84         154.1224
   461.98         153.7488
   462.12         153.2718
   462.26         152.7173
   462.40         152.1083
   462.54         151.4734
   462.68         150.8476
   462.82         150.2773
   462.96         149.8169
   463.10         149.5009
   463.24         149.3356
   463.38         149.3063
   463.52         149.3765
   463.66         149.4869
   463.80         149.5704
   463.94         149.5693
   464.08         149.4546
   464.22         149.2296
   464.36         148.9161
   464.50         148.5509
   464.64         148.1730
   464.78         147.8147
   464.92         147.5093
   465.06         147.2979
   465.20         147.2213
   465.34         147.3059
   465.48         147.5509
   465.62         147.9189
   465.76         148.3445
   465.90         148.7624
   466.04         149.1183
   466.18         149.3679
   466.32         149.4849
   466.46         149.4663
   466.60         149.3243
   466.74         149.0724
   466.88         148.7204
   467.02         148.2693
   467.16         147.7077
   467.30         147.0153
   467.44         146.1852
   467.58         145.2442
   467.72         144.2462
   467.86         143.2576
   468.00         142.3508
   468.14         141.5942
   468.28         141.0385
   468.42         140.7189
   468.56         140.6581
   468.70         140.8507
   468.84         141.2601
   468.98         141.8371
   469.12         142.5294
   469.26         143.2747
   469.40         144.0001
   469.54         144.6345
   469.68         145.1167
   469.82         145.4052
   469.96         145.4861
   470.10         145.3719
   470.24         145.0924
   470.38         144.6848
   470.52         144.1894
   470.66         143.6434
   470.80         143.0761
   470.94         142.5091
   471.08         141.9640
   471.22         141.4606
   471.36         141.0073
   471.50         140.6042
   471.64         140.2567
   471.78         139.9773
   471.92         139.7775
   472.06         139.6653
   472.20         139.6399
   472.34         139.6917
   472.48         139.8100
   472.62         139.9849
   472.76         140.2027
   472.90         140.4466
   473.04         140.6999
   473.18         140.9478
   473.32         141.1776
   473.46         141.3731
   473.60         141.5164
   473.74         141.5999
   473.88         141.6266
   474.02         141.5964
   474.16         141.5017
   474.30         141.3287
   474.44         141.0554
   474.58         140.6547
   474.72         140.1084
   474.86         139.4133
   475.00         138.5800
   475.14         137.6352
   475.28         136.6165
   475.42         135.5697
   475.56         134.5496
   475.70         133.6206
   475.84         132.8481
   475.98         132.2778
   476.12         131.9256
   476.26         131.7859
   476.40         131.8328
   476.54         132.0157
   476.68         132.2675
   476.82         132.5289
   476.96         132.7581
   477.10         132.9322
   477.24         133.0476
   477.38         133.1071
   477.52         133.1073
   477.66         133.0463
   477.80         132.9367
   477.94         132.7966
   478.08         132.6421
   478.22         132.4911
   478.36         132.3628
   478.50         132.2745
   478.64         132.2353
   478.78         132.2435
   478.92         132.2959
   479.06         132.3879
   479.20         132.5050
   479.34         132.6260
   479.48         132.7328
   479.62         132.8096
   479.76         132.8435
   479.90         132.8258
   480.04         132.7491
   480.18         132.6111
   480.32         132.4186
   480.46         132.1795
   480.60         131.9025
   480.74         131.6038
   480.88         131.3015
   481.02         131.0044
   481.16         130.7113
   481.30         130.4125
   481.44         130.0958
   481.58         129.7562
   481.72         129.3884
   481.86         128.9863
   482.00         128.5605
   482.14         128.1398
   482.28         127.7578
   482.42         127.4384
   482.56         127.1865
   482.70         126.9941
   482.84         126.8520
   482.98         126.7474
   483.12         126.6643
   483.26         126.5933
   483.40         126.5276
   483.54         126.4540
   483.68         126.3556
   483.82         126.2185
   483.96         126.0343
   484.10         125.7970
   484.24         125.4937
   484.38         125.0917
   484.52         124.5388
   484.66         123.7677
   484.80         122.6944
   484.94         121.2375
   485.08         119.3558
   485.22         117.0788
   485.36         114.5152
   485.50         111.8334
   485.64         109.2272
   485.78         106.8895
   485.92         104.9946
   486.06         103.6771
   486.20         103.0206
   486.34         103.0540
   486.48         103.7446
   486.62         104.9994
   486.76         106.6784
   486.90         108.6111
   487.04         110.6125
   487.18         112.5090
   487.32         114.1677
   487.46         115.5161
   487.60         116.5506
   487.74         117.3177
   487.88         117.8787
   488.02         118.2907
   488.16         118.6029
   488.30         118.8515
   488.44         119.0623
   488.58         119.2560
   488.72         119.4427
   488.86         119.6203
   489.00         119.7766
   489.14         119.8971
   489.28         119.9740
   489.42         120.0055
   489.56         119.9902
   489.70         119.9284
   489.84         119.8393
   489.98         119.7584
   490.12         119.7134
   490.26         119.7187
   490.40         119.7755
   490.54         119.8773
   490.68         120.0131
   490.82         120.1621
   490.96         120.2867
   491.10         120.3438
   491.24         120.3028
   491.38         120.1515
   491.52         119.8985
   491.66         119.5719
   491.80         119.2188
   491.94         118.8914
   492.08         118.6256
   492.22         118.4434
   492.36         118.3620
   492.50         118.3897
   492.64         118.5117
   492.78         118.6901
   492.92         118.8816
   493.06         119.0471
   493.20         119.1600
   493.34         119.2060
   493.48         119.1823
   493.62         119.0998
   493.76         118.9855
   493.90         118.8783
   494.04         118.8131
   494.18         118.8093
   494.32         118.8657
   494.46         118.9641
   494.60         119.0739
   494.74         119.1601
   494.88         119.2032
   495.02         119.1997
   495.16         119.1461
   495.30         119.0361
   495.44         118.8633
   495.58         118.6234
   495.72         118.3198
   495.86         117.9619
   496.00         117.5563
   496.14         117.1117
   496.28         116.6420
   496.42         116.1627
   496.56         115.6925
   496.70         115.2448
   496.84         114.8275
   496.98         114.4488
   497.12         114.1178
   497.26         113.8449
   497.40         113.6384
   497.54         113.4976
   497.68         113.4114
   497.82         113.3593
   497.96         113.3175
   498.10         113.2633
   498.24         113.1848
   498.38         113.0832
   498.52         112.9640
   498.66         112.8395
   498.80         112.7317
   498.94         112.6614
   499.08         112.6370
   499.22         112.6542
   499.36         112.6970
   499.50         112.7412
   499.64         112.7646
   499.78         112.7530
   499.92         112.7039
   500.06         112.6084
   500.20         112.4426
   500.34         112.1845
   500.48         111.8232
   500.62         111.3640
   500.76         110.8346
   500.90         110.2803
   501.04         109.7472
   501.18         109.2727
   501.32         108.8828
   501.46         108.5888
   501.60         108.3858
   501.74         108.2580
   501.88         108.1896
   502.02         108.1654
   502.16         108.1729
   502.30         108.2099
   502.44         108.2735
   502.58         108.3486
   502.72         108.4122
   502.86         108.4501
   503.00         108.4657
   503.14         108.4678
   503.28         108.4686
   503.42         108.4777
   503.56         108.4886
   503.70         108.4853
   503.84         108.4551
   503.98         108.3932
   504.12         108.3022
   504.26         108.1877
   504.40         108.0546
   504.54         107.9036
   504.68         107.7311
   504.82         107.5356
   504.96         107.3156
   505.10         107.0608
   505.24         106.7605
   505.38         106.4118
   505.52         106.0231
   505.66         105.6121
   505.80         105.2001
   505.94         104.8114
   506.08         104.4680
   506.22         104.1863
   506.36         103.9783
   506.50         103.8484
   506.64         103.7881
   506.78         103.7788
   506.92         103.7969
   507.06         103.8175
   507.20         103.8202
   507.34         103.7918
   507.48         103.7304
   507.62         103.6424
   507.76         103.5337
   507.90         103.4101
   508.04         103.2778
   508.18         103.1446
   508.32         103.0170
   508.46         102.9042
   508.60         102.8227
   508.74         102.7892
   508.88         102.8062
   509.02         102.8635
   509.16         102.9492
   509.30         103.0527
   509.44         103.1591
   509.58         103.2482
   509.72         103.2949
   509.86         103.2703
   510.00         103.1539
   510.14         102.9450
   510.28         102.6563
   510.42         102.3067
   510.56         101.9275
   510.70         101.5591
   510.84         101.2367
   510.98         100.9849
   511.12         100.8187
   511.26         100.7407
   511.40         100.7369
   511.54         100.7818
   511.68         100.8541
   511.82         100.9375
   511.96         101.0118
   512.10         101.0522
   512.24         101.0383
   512.38         100.9623
   512.52         100.8312
   512.66         100.6653
   512.80         100.4857
   512.94         100.3068
   513.08         100.1398
   513.22         99.9926
   513.36         99.8651
   513.50         99.7550
   513.64         99.6703
   513.78         99.6214
   513.92         99.6109
   514.06         99.6354
   514.20         99.6896
   514.34         99.7651
   514.48         99.8473
   514.62         99.9147
   514.76         99.9467
   514.90         99.9364
   515.04         99.8889
   515.18         99.8122
   515.32         99.7107
   515.46         99.5868
   515.60         99.4427
   515.74         99.2765
   515.88         99.0790
   516.02         98.8433
   516.16         98.5759
   516.30         98.2900
   516.44         97.9916
   516.58         97.6845
   516.72         97.3802
   516.86         97.0906
   517.00         96.8202
   517.14         96.5694
   517.28         96.3426
   517.42         96.1520
   517.56         96.0113
   517.70         95.9212
   517.84         95.8704
   517.98         95.8451
   518.12         95.8363
   518.26         95.8389
   518.40         95.8510
   518.54         95.8727
   518.68         95.9059
   518.82         95.9471
   518.96         95.9839
   519.10         96.0041
   519.24         96.0033
   519.38         95.9828
   519.52         95.9454
   519.66         95.8923
   519.80         95.8236
   519.94         95.7406
   520.08         95.6441
   520.22         95.5347
   520.36         95.4170
   520.50         95.3005
   520.64         95.1945
   520.78         95.1050
   520.92         95.0328
   521.06         94.9728
   521.20         94.9182
   521.34         94.8654
   521.48         94.8144
   521.62         94.7678
   521.76         94.7292
   521.90         94.6982
   522.04         94.6689
   522.18         94.6323
   522.32         94.5751
   522.46         94.4857
   522.60         94.3676
   522.74         94.2334
   522.88         94.0921
   523.02         93.9381
   523.16         93.7615
   523.30         93.5609
   523.44         93.3382
   523.58         93.0960
   523.72         92.8412
   523.86         92.5843
   524.00         92.3337
   524.14         92.0939
   524.28         91.8695
   524.42         91.6612
   524.56         91.4617
   524.70         91.2642
   524.84         91.0719
   524.98         90.8910
   525.12         90.7249
   525.26         90.5735
   525.40         90.4320
   525.54         90.2941
   525.68         90.1603
   525.82         90.0451
   525.96         89.9638
   526.10         89.9190
   526.24         89.9078
   526.38         89.9261
   526.52         89.9657
   526.66         90.0138
   526.80         90.0573
   526.94         90.0856
   527.08         90.0849
   527.22         90.0408
   527.36         89.9481
   527.50         89.8067
   527.64         89.6170
   527.78         89.3818
   527.92         89.1119
   528.06         88.8249
   528.20         88.5399
   528.34         88.2777
   528.48         88.0596
   528.62         87.9038
   528.76         87.8223
   528.90         87.8168
   529.04         87.8792
   529.18         87.9948
   529.32         88.1440
   529.46         88.3077
   529.60         88.4679
   529.74         88.6043
   529.88         88.7009
   530.02         88.7525
   530.16         88.7624
   530.30         88.7346
   530.44         88.6674
   530.58         88.5591
   530.72         88.4114
   530.86         88.2258
   531.00         88.0003
   531.14         87.7318
   531.28         87.4214
   531.42         87.0755
   531.56         86.7037
   531.70         86.3225
   531.84         85.9522
   531.98         85.6078
   532.12         85.2977
   532.26         85.0244
   532.40         84.7883
   532.54         84.5912
   532.68         84.4354
   532.82         84.3238
   532.96         84.2552
   533.10         84.2243
   533.24         84.2258
   533.38         84.2509
   533.52         84.2887
   533.66         84.3327
   533.80         84.3815
   533.94         84.4348
   534.08         84.4885
   534.22         84.5311
   534.36         84.5490
   534.50         84.5324
   534.64         84.4790
   534.78         84.3957
   534.92         84.2951
   535.06         84.1874
   535.20         84.0751
   535.34         83.9561
   535.48         83.8278
   535.62         83.6852
   535.76         83.5250
   535.90         83.3502
   536.04         83.1679
   536.18         82.9908
   536.32         82.8337
   536.46         82.7081
   536.60         82.6223
   536.74         82.5776
   536.88         82.5715
   537.02         82.6019
   537.16         82.6651
   537.30         82.7517
   537.44         82.8430
   537.58         82.9135
   537.72         82.9407
   537.86         82.9124
   538.00         82.8315
   538.14         82.7109
   538.28         82.5636
   538.42         82.3983
   538.56         82.2146
   538.70         82.0069
   538.84         81.7751
   538.98         81.5260
   539.12         81.2678
   539.26         81.0061
   539.40         80.7440
   539.54         80.4866
   539.68         80.2347
   539.82         79.9783
   539.96         79.6969
   540.10         79.3644
   540.24         78.9633
   540.38         78.4977
   540.52         77.9929
   540.66         77.4893
   540.80         77.0257
   540.94         76.6322
   541.08         76.3329
   541.22         76.1503
   541.36         76.1061
   541.50         76.2143
   541.64         76.4710
   541.78         76.8569
   541.92         77.3440
   542.06         77.8977
   542.20         78.4770
   542.34         79.0322
   542.48         79.5173
   542.62         79.9043
   542.76         80.1852
   542.90         80.3691
   543.04         80.4724
   543.18         80.5095
   543.32         80.4879
   543.46         80.4087
   543.60         80.2777
   543.74         80.1087
   543.88         79.9136
   544.02         79.7010
   544.16         79.4794
   544.30         79.2599
   544.44         79.0529
   544.58         78.8593
   544.72         78.6691
   544.86         78.4694
   545.00         78.2506
   545.14         78.0137
   545.28         77.7643
   545.42         77.5046
   545.56         77.2369
   545.70         76.9675
   545.84         76.7069
   545.98         76.4644
   546.12         76.2428
   546.26         76.0448
   546.40         75.8722
   546.54         75.7231
   546.68         75.5957
   546.82         75.4865
   546.96         75.3884
   547.10         75.2937
   547.24         75.1969
   547.38         75.0963
   547.52         74.9947
   547.66         74.8983
   547.80         74.8127
   547.94         74.7400
   548.08         74.6780
   548.22         74.6260
   548.36         74.5878
   548.50         74.5667
   548.64         74.5604
   548.78         74.5662
   548.92         74.5849
   549.06         74.6131
   549.20         74.6431
   549.34         74.6687
   549.48         74.6880
   549.62         74.7013
   549.76         74.7072
   549.90         74.6959
   550.04         74.6561
   550.18         74.5882
   550.32         74.5021
   550.46         74.4070
   550.60         74.3093
   550.74         74.2140
   550.88         74.1269
   551.02         74.0519
   551.16         73.9867
   551.30         73.9246
   551.44         73.8599
   551.58         73.7879
   551.72         73.7014
   551.86         73.5943
   552.00         73.4638
   552.14         73.3077
   552.28         73.1240
   552.42         72.9121
   552.56         72.6787
   552.70         72.4405
   552.84         72.2147
   552.98         72.0106
   553.12         71.8293
   553.26         71.6700
   553.40         71.5329
   553.54         71.4184
   553.68         71.3276
   553.82         71.2600
   553.96         71.2106
   554.10         71.1740
   554.24         71.1449
   554.38         71.1166
   554.52         71.0861
   554.66         71.0511
   554.80         71.0082
   554.94         70.9584
   555.08         70.9123
   555.22         70.8850
   555.36         70.8873
   555.50         70.9219
   555.64         70.9866
   555.78         71.0713
   555.92         71.1606
   556.06         71.2421
   556.20         71.3042
   556.34         71.3340
   556.48         71.3190
   556.62         71.2501
   556.76         71.1258
   556.90         70.9515
   557.04         70.7385
   557.18         70.5009
   557.32         70.2536
   557.46         70.0135
   557.60         69.7997
   557.74         69.6244
   557.88         69.4879
   558.02         69.3793
   558.16         69.2802
   558.30         69.1729
   558.44         69.0477
   558.58         68.9038
   558.72         68.7446
   558.86         68.5746
   559.00         68.4022
   559.14         68.2403
   559.28         68.1021
   559.42         67.9961
   559.56         67.9264
   559.70         67.8948
   559.84         67.8992
   559.98         67.9328
   560.12         67.9865
   560.26         68.0470
   560.40         68.0962
   560.54         68.1160
   560.68         68.0907
   560.82         68.0135
   560.96         67.8919
   561.10         67.7410
   561.24         67.5783
   561.38         67.4205
   561.52         67.2800
   561.66         67.1628
   561.80         67.0655
   561.94         66.9779
   562.08         66.8890
   562.22         66.7932
   562.36         66.6904
   562.50         66.5825
   562.64         66.4713
   562.78         66.3592
   562.92         66.2481
   563.06         66.1414
   563.20         66.0473
   563.34         65.9751
   563.48         65.9327
   563.62         65.9216
   563.76         65.9341
   563.90         65.9561
   564.04         65.9701
   564.18         65.9620
   564.32         65.9270
   564.46         65.8679
   564.60         65.7937
   564.74         65.7151
   564.88         65.6396
   565.02         65.5718
   565.16         65.5130
   565.30         65.4616
   565.44         65.4138
   565.58         65.3649
   565.72         65.3120
   565.86         65.2499
   566.00         65.1705
   566.14         65.0701
   566.28         64.9540
   566.42         64.8353
   566.56         64.7290
   566.70         64.6474
   566.84         64.5973
   566.98         64.5779
   567.12         64.5795
   567.26         64.5884
   567.40         64.5909
   567.54         64.5773
   567.68         64.5409
   567.82         64.4760
   567.96         64.3798
   568.10         64.2547
   568.24         64.1087
   568.38         63.9565
   568.52         63.8184
   568.66         63.7152
   568.80         63.6589
   568.94         63.6477
   569.08         63.6695
   569.22         63.7070
   569.36         63.7437
   569.50         63.7670
   569.64         63.7688
   569.78         63.7442
   569.92         63.6927
   570.06         63.6154
   570.20         63.5140
   570.34         63.3907
   570.48         63.2525
   570.62         63.1119
   570.76         62.9826
   570.90         62.8748
   571.04         62.7939
   571.18         62.7408
   571.32         62.7097
   571.46         62.6914
   571.60         62.6790
   571.74         62.6712
   571.88         62.6684
   572.02         62.6682
   572.16         62.6657
   572.30         62.6551
   572.44         62.6317
   572.58         62.5927
   572.72         62.5366
   572.86         62.4643
   573.00         62.3776
   573.14         62.2800
   573.28         62.1755
   573.42         62.0667
   573.56         61.9534
   573.70         61.8367
   573.84         61.7211
   573.98         61.6113
   574.12         61.5092
   574.26         61.4180
   574.40         61.3431
   574.54         61.2880
   574.68         61.2515
   574.82         61.2300
   574.96         61.2213
   575.10         61.2213
   575.24         61.2201
   575.38         61.2056
   575.52         61.1685
   575.66         61.1062
   575.80         61.0203
   575.94         60.9097
   576.08         60.7718
   576.22         60.6078
   576.36         60.4265
   576.50         60.2393
   576.64         60.0507
   576.78         59.8576
   576.92         59.6543
   577.06         59.4360
   577.20         59.2009
   577.34         58.9521
   577.48         58.6986
   577.62         58.4522
   577.76         58.2223
   577.90         58.0180
   578.04         57.8496
   578.18         57.7276
   578.32         57.6587
   578.46         57.6405
   578.60         57.6634
   578.74         57.7171
   578.88         57.7885
   579.02         57.8563
   579.16         57.8938
   579.30         57.8828
   579.44         57.8216
   579.58         57.7219
   579.72         57.6017
   579.86         57.4773
   580.00         57.3574
   580.14         57.2419
   580.28         57.1287
   580.42         57.0212
   580.56         56.9277
   580.70         56.8576
   580.84         56.8189
   580.98         56.8133
   581.12         56.8353
   581.26         56.8759
   581.40         56.9281
   581.54         56.9881
   581.68         57.0567
   581.82         57.1404
   581.96         57.2457
   582.10         57.3688
   582.24         57.4961
   582.38         57.6087
   582.52         57.6875
   582.66         57.7222
   582.80         57.7168
   582.94         57.6850
   583.08         57.6415
   583.22         57.5946
   583.36         57.5482
   583.50         57.5037
   583.64         57.4597
   583.78         57.4161
   583.92         57.3761
   584.06         57.3473
   584.20         57.3381
   584.34         57.3504
   584.48         57.3765
   584.62         57.4033
   584.76         57.4215
   584.90         57.4280
   585.04         57.4195
   585.18         57.3941
   585.32         57.3553
   585.46         57.3063
   585.60         57.2457
   585.74         57.1751
   585.88         57.1020
   586.02         57.0312
   586.16         56.9595
   586.30         56.8737
   586.44         56.7499
   586.58         56.5685
   586.72         56.3318
   586.86         56.0601
   587.00         55.7786
   587.14         55.5125
   587.28         55.2899
   587.42         55.1379
   587.56         55.0694
   587.70         55.0722
   587.84         55.1122
   587.98         55.1511
   588.12         55.1599
   588.26         55.1189
   588.40         55.0089
   588.54         54.8074
   588.68         54.5038
   588.82         54.1135
   588.96         53.6744
   589.10         53.2447
   589.24         52.8994
   589.38         52.7092
   589.52         52.7124
   589.66         52.9136
   589.80         53.2940
   589.94         53.8172
   590.08         54.4308
   590.22         55.0721
   590.36         55.6792
   590.50         56.2048
   590.64         56.6262
   590.78         56.9339
   590.92         57.1177
   591.06         57.1733
   591.20         57.1171
   591.34         56.9830
   591.48         56.8039
   591.62         56.6052
   591.76         56.4082
   591.90         56.2313
   592.04         56.0860
   592.18         55.9744
   592.32         55.8935
   592.46         55.8373
   592.60         55.7956
   592.74         55.7568
   592.88         55.7148
   593.02         55.6654
   593.16         55.6035
   593.30         55.5255
   593.44         55.4306
   593.58         55.3215
   593.72         55.2060
   593.86         55.0942
   594.00         54.9918
   594.14         54.8993
   594.28         54.8147
   594.42         54.7335
   594.56         54.6500
   594.70         54.5604
   594.84         54.4629
   594.98         54.3578
   595.12         54.2478
   595.26         54.1348
   595.40         54.0206
   595.54         53.9116
   595.68         53.8141
   595.82         53.7332
   595.96         53.6746
   596.10         53.6440
   596.24         53.6467
   596.38         53.6849
   596.52         53.7519
   596.66         53.8328
   596.80         53.9101
   596.94         53.9714
   597.08         54.0106
   597.22         54.0265
   597.36         54.0206
   597.50         53.9938
   597.64         53.9502
   597.78         53.8970
   597.92         53.8378
   598.06         53.7766
   598.20         53.7222
   598.34         53.6823
   598.48         53.6624
   598.62         53.6649
   598.76         53.6847
   598.90         53.7118
   599.04         53.7326
   599.18         53.7321
   599.32         53.7007
   599.46         53.6362
   599.60         53.5435
   599.74         53.4329
   599.88         53.3164
   600.02         53.2044
   600.16         53.1055
   600.30         53.0258
   600.44         52.9668
   600.58         52.9243
   600.72         52.8932
   600.86         52.8701
   601.00         52.8504
   601.14         52.8275
   601.28         52.7910
   601.42         52.7292
   601.56         52.6366
   601.70         52.5168
   601.84         52.3823
   601.98         52.2500
   602.12         52.1334
   602.26         52.0396
   602.40         51.9703
   602.54         51.9200
   602.68         51.8822
   602.82         51.8545
   602.96         51.8328
   603.10         51.8085
   603.24         51.7742
   603.38         51.7271
   603.52         51.6639
   603.66         51.5803
   603.80         51.4737
   603.94         51.3438
   604.08         51.1958
   604.22         51.0425
   604.36         50.8983
   604.50         50.7729
   604.64         50.6684
   604.78         50.5820
   604.92         50.5114
   605.06         50.4549
   605.20         50.4098
   605.34         50.3783
   605.48         50.3634
   605.62         50.3644
   605.76         50.3812
   605.90         50.4160
   606.04         50.4694
   606.18         50.5400
   606.32         50.6265
   606.46         50.7254
   606.60         50.8277
   606.74         50.9223
   606.88         50.9972
   607.02         51.0404
   607.16         51.0442
   607.30         51.0038
   607.44         50.9173
   607.58         50.7902
   607.72         50.6373
   607.86         50.4793
   608.00         50.3358
   608.14         50.2172
   608.28         50.1234
   608.42         50.0516
   608.56         49.9983
   608.70         49.9586
   608.84         49.9232
   608.98         49.8781
   609.12         49.8119
   609.26         49.7206
   609.40         49.6074
   609.54         49.4810
   609.68         49.3533
   609.82         49.2381
   609.96         49.1459
   610.10         49.0840
   610.24         49.0589
   610.38         49.0710
   610.52         49.1119
   610.66         49.1696
   610.80         49.2340
   610.94         49.2973
   611.08         49.3532
   611.22         49.3931
   611.36         49.4067
   611.50         49.3862
   611.64         49.3296
   611.78         49.2424
   611.92         49.1328
   612.06         49.0080
   612.20         48.8780
   612.34         48.7558
   612.48         48.6548
   612.62         48.5863
   612.76         48.5591
   612.90         48.5781
   613.04         48.6398
   613.18         48.7321
   613.32         48.8391
   613.46         48.9437
   613.60         49.0287
   613.74         49.0803
   613.88         49.0924
   614.02         49.0711
   614.16         49.0311
   614.30         48.9845
   614.44         48.9396
   614.58         48.9019
   614.72         48.8765
   614.86         48.8650
   615.00         48.8634
   615.14         48.8610
   615.28         48.8439
   615.42         48.8016
   615.56         48.7265
   615.70         48.6167
   615.84         48.4767
   615.98         48.3145
   616.12         48.1407
   616.26         47.9670
   616.40         47.8057
   616.54         47.6674
   616.68         47.5590
   616.82         47.4768
   616.96         47.4092
   617.10         47.3500
   617.24         47.2973
   617.38         47.2502
   617.52         47.2084
   617.66         47.1747
   617.80         47.1528
   617.94         47.1449
   618.08         47.1501
   618.22         47.1611
   618.36         47.1700
   618.50         47.1695
   618.64         47.1531
   618.78         47.1202
   618.92         47.0736
   619.06         47.0174
   619.20         46.9566
   619.34         46.8964
   619.48         46.8436
   619.62         46.8096
   619.76         46.8107
   619.90         46.8589
   620.04         46.9581
   620.18         47.1104
   620.32         47.3149
   620.46         47.5577
   620.60         47.8118
   620.74         48.0497
   620.88         48.2483
   621.02         48.3905
   621.16         48.4647
   621.30         48.4655
   621.44         48.3969
   621.58         48.2668
   621.72         48.0858
   621.86         47.8724
   622.00         47.6528
   622.14         47.4552
   622.28         47.3012
   622.42         47.2014
   622.56         47.1569
   622.70         47.1618
   622.84         47.2060
   622.98         47.2713
   623.12         47.3332
   623.26         47.3755
   623.40         47.3968
   623.54         47.4041
   623.68         47.4053
   623.82         47.4071
   623.96         47.4148
   624.10         47.4312
   624.24         47.4571
   624.38         47.4955
   624.52         47.5517
   624.66         47.6255
   624.80         47.7105
   624.94         47.7967
   625.08         47.8735
   625.22         47.9298
   625.36         47.9561
   625.50         47.9469
   625.64         47.9023
   625.78         47.8264
   625.92         47.7260
   626.06         47.6069
   626.20         47.4702
   626.34         47.3094
   626.48         47.1127
   626.62         46.8702
   626.76         46.5801
   626.90         46.2470
   627.04         45.8759
   627.18         45.4696
   627.32         45.0314
   627.46         44.5720
   627.60         44.1132
   627.74         43.6817
   627.88         43.3069
   628.02         43.0185
   628.16         42.8372
   628.30         42.7682
   628.44         42.8071
   628.58         42.9446
   628.72         43.1641
   628.86         43.4391
   629.00         43.7356
   629.14         44.0216
   629.28         44.2759
   629.42         44.4879
   629.56         44.6510
   629.70         44.7630
   629.84         44.8272
   629.98         44.8516
   630.12         44.8502
   630.26         44.8359
   630.40         44.8151
   630.54         44.7908
   630.68         44.7634
   630.82         44.7296
   630.96         44.6872
   631.10         44.6392
   631.24         44.5901
   631.38         44.5418
   631.52         44.4965
   631.66         44.4599
   631.80         44.4403
   631.94         44.4438
   632.08         44.4710
   632.22         44.5177
   632.36         44.5754
   632.50         44.6322
   632.64         44.6790
   632.78         44.7121
   632.92         44.7282
   633.06         44.7236
   633.20         44.6959
   633.34         44.6455
   633.48         44.5773
   633.62         44.5003
   633.76         44.4236
   633.90         44.3542
   634.04         44.2953
   634.18         44.2484
   634.32         44.2121
   634.46         44.1819
   634.60         44.1526
   634.74         44.1199
   634.88         44.0790
   635.02         44.0244
   635.16         43.9532
   635.30         43.8666
   635.44         43.7695
   635.58         43.6698
   635.72         43.5787
   635.86         43.5059
   636.00         43.4558
   636.14         43.4295
   636.28         43.4244
   636.42         43.4333
   636.56         43.4483
   636.70         43.4622
   636.84         43.4682
   636.98         43.4578
   637.12         43.4244
   637.26         43.3659
   637.40         43.2833
   637.54         43.1800
   637.68         43.0650
   637.82         42.9528
   637.96         42.8584
   638.10         42.7922
   638.24         42.7572
   638.38         42.7477
   638.52         42.7530
   638.66         42.7634
   638.80         42.7713
   638.94         42.7679
   639.08         42.7461
   639.22         42.7038
   639.36         42.6435
   639.50         42.5695
   639.64         42.4845
   639.78         42.3927
   639.92         42.2997
   640.06         42.2114
   640.20         42.1344
   640.34         42.0741
   640.48         42.0315
   640.62         42.0008
   640.76         41.9734
   640.90         41.9451
   641.04         41.9169
   641.18         41.8935
   641.32         41.8800
   641.46         41.8796
   641.60         41.8957
   641.74         41.9316
   641.88         41.9860
   642.02         42.0512
   642.16         42.1151
   642.30         42.1664
   642.44         42.1975
   642.58         42.2067
   642.72         42.1964
   642.86         42.1687
   643.00         42.1248
   643.14         42.0672
   643.28         41.9984
   643.42         41.9204
   643.56         41.8331
   643.70         41.7350
   643.84         41.6252
   643.98         41.5045
   644.12         41.3781
   644.26         41.2542
   644.40         41.1403
   644.54         41.0411
   644.68         40.9620
   644.82         40.9089
   644.96         40.8851
   645.10         40.8913
   645.24         40.9269
   645.38         40.9873
   645.52         41.0621
   645.66         41.1416
   645.80         41.2192
   645.94         41.2881
   646.08         41.3401
   646.22         41.3694
   646.36         41.3754
   646.50         41.3609
   646.64         41.3299
   646.78         41.2885
   646.92         41.2436
   647.06         41.2006
   647.20         41.1621
   647.34         41.1296
   647.48         41.1041
   647.62         41.0857
   647.76         41.0727
   647.90         41.0613
   648.04         41.0450
   648.18         41.0178
   648.32         40.9757
   648.46         40.9185
   648.60         40.8475
   648.74         40.7684
   648.88         40.6935
   649.02         40.6366
   649.16         40.6049
   649.30         40.5982
   649.44         40.6129
   649.58         40.6432
   649.72         40.6807
   649.86         40.7154
   650.00         40.7392
   650.14         40.7452
   650.28         40.7279
   650.42         40.6865
   650.56         40.6259
   650.70         40.5552
   650.84         40.4874
   650.98         40.4368
   651.12         40.4136
   651.26         40.4206
   651.40         40.4532
   651.54         40.5000
   651.68         40.5453
   651.82         40.5763
   651.96         40.5849
   652.10         40.5684
   652.24         40.5291
   652.38         40.4723
   652.52         40.4048
   652.66         40.3333
   652.80         40.2647
   652.94         40.2089
   653.08         40.1767
   653.22         40.1726
   653.36         40.1933
   653.50         40.2320
   653.64         40.2809
   653.78         40.3298
   653.92         40.3670
   654.06         40.3829
   654.20         40.3706
   654.34         40.3259
   654.48         40.2441
   654.62         40.1158
   654.76         39.9273
   654.90         39.6647
   655.04         39.3137
   655.18         38.8601
   655.32         38.2970
   655.46         37.6338
   655.60         36.8988
   655.74         36.1331
   655.88         35.3859
   656.02         34.7136
   656.16         34.1742
   656.30         33.8137
   656.44         33.6561
   656.58         33.7076
   656.72         33.9597
   656.86         34.3861
   657.00         34.9437
   657.14         35.5791
   657.28         36.2366
   657.42         36.8647
   657.56         37.4216
   657.70         37.8802
   657.84         38.2318
   657.98         38.4849
   658.12         38.6591
   658.26         38.7764
   658.40         38.8546
   658.54         38.9077
   658.68         38.9457
   658.82         38.9738
   658.96         38.9926
   659.10         39.0038
   659.24         39.0130
   659.38         39.0255
   659.52         39.0432
   659.66         39.0662
   659.80         39.0925
   659.94         39.1171
   660.08         39.1321
   660.22         39.1313
   660.36         39.1141
   660.50         39.0837
   660.64         39.0426
   660.78         38.9934
   660.92         38.9405
   661.06         38.8919
   661.20         38.8598
   661.34         38.8556
   661.48         38.8853
   661.62         38.9505
   661.76         39.0476
   661.90         39.1669
   662.04         39.2926
   662.18         39.4081
   662.32         39.4988
   662.46         39.5520
   662.60         39.5604
   662.74         39.5204
   662.88         39.4345
   663.02         39.3129
   663.16         39.1675
   663.30         39.0090
   663.44         38.8481
   663.58         38.6958
   663.72         38.5602
   663.86         38.4434
   664.00         38.3410
   664.14         38.2480
   664.28         38.1611
   664.42         38.0785
   664.56         37.9989
   664.70         37.9214
   664.84         37.8471
   664.98         37.7759
   665.12         37.7042
   665.26         37.6266
   665.40         37.5395
   665.54         37.4429
   665.68         37.3394
   665.82         37.2296
   665.96         37.1135
   666.10         36.9951
   666.24         36.8806
   666.38         36.7745
   666.52         36.6778
   666.66         36.5908
   666.80         36.5127
   666.94         36.4393
   667.08         36.3660
   667.22         36.2869
   667.36         36.1955
   667.50         36.0897
   667.64         35.9702
   667.78         35.8390
   667.92         35.7044
   668.06         35.5807
   668.20         35.4830
   668.34         35.4254
   668.48         35.4185
   668.62         35.4662
   668.76         35.5618
   668.90         35.6900
   669.04         35.8328
   669.18         35.9769
   669.32         36.1125
   669.46         36.2301
   669.60         36.3247
   669.74         36.3968
   669.88         36.4459
   670.02         36.4710
   670.16         36.4741
   670.30         36.4595
   670.44         36.4329
   670.58         36.4044
   670.72         36.3857
   670.86         36.3857
   671.00         36.4086
   671.14         36.4529
   671.28         36.5119
   671.42         36.5792
   671.56         36.6539
   671.70         36.7395
   671.84         36.8366
   671.98         36.9391
   672.12         37.0362
   672.26         37.1154
   672.40         37.1630
   672.54         37.1665
   672.68         37.1209
   672.82         37.0324
   672.96         36.9151
   673.10         36.7862
   673.24         36.6624
   673.38         36.5562
   673.52         36.4725
   673.66         36.4106
   673.80         36.3669
   673.94         36.3368
   674.08         36.3155
   674.22         36.3004
   674.36         36.2885
   674.50         36.2736
   674.64         36.2474
   674.78         36.2029
   674.92         36.1406
   675.06         36.0682
   675.20         35.9961
   675.34         35.9336
   675.48         35.8867
   675.62         35.8570
   675.76         35.8416
   675.90         35.8353
   676.04         35.8328
   676.18         35.8274
   676.32         35.8118
   676.46         35.7823
   676.60         35.7397
   676.74         35.6882
   676.88         35.6337
   677.02         35.5804
   677.16         35.5314
   677.30         35.4894
   677.44         35.4579
   677.58         35.4396
   677.72         35.4342
   677.86         35.4400
   678.00         35.4562
   678.14         35.4835
   678.28         35.5211
   678.42         35.5646
   678.56         35.6066
   678.70         35.6372
   678.84         35.6490
   678.98         35.6407
   679.12         35.6183
   679.26         35.5903
   679.40         35.5649
   679.54         35.5488
   679.68         35.5431
   679.82         35.5417
   679.96         35.5350
   680.10         35.5159
   680.24         35.4834
   680.38         35.4395
   680.52         35.3867
   680.66         35.3265
   680.80         35.2596
   680.94         35.1870
   681.08         35.1106
   681.22         35.0329
   681.36         34.9599
   681.50         34.9018
   681.64         34.8693
   681.78         34.8677
   681.92         34.8935
   682.06         34.9369
   682.20         34.9852
   682.34         35.0260
   682.48         35.0509
   682.62         35.0594
   682.76         35.0582
   682.90         35.0558
   683.04         35.0581
   683.18         35.0670
   683.32         35.0795
   683.46         35.0907
   683.60         35.0949
   683.74         35.0873
   683.88         35.0690
   684.02         35.0466
   684.16         35.0260
   684.30         35.0079
   684.44         34.9888
   684.58         34.9659
   684.72         34.9398
   684.86         34.9136
   685.00         34.8917
   685.14         34.8765
   685.28         34.8632
   685.42         34.8374
   685.56         34.7704
   685.70         34.6206
   685.84         34.3448
   685.98         33.9139
   686.12         33.3243
   686.26         32.5956
   686.40         31.7663
   686.54         30.8882
   686.68         30.0180
   686.82         29.2132
   686.96         28.5312
   687.10         28.0247
   687.24         27.7305
   687.38         27.6583
   687.52         27.7887
   687.66         28.0782
   687.80         28.4649
   687.94         28.8803
   688.08         29.2609
   688.22         29.5574
   688.36         29.7453
   688.50         29.8269
   688.64         29.8263
   688.78         29.7766
   688.92         29.7105
   689.06         29.6590
   689.20         29.6453
   689.34         29.6822
   689.48         29.7759
   689.62         29.9254
   689.76         30.1208
   689.90         30.3455
   690.04         30.5788
   690.18         30.8006
   690.32         30.9968
   690.46         31.1605
   690.60         31.2903
   690.74         31.3884
   690.88         31.4601
   691.02         31.5118
   691.16         31.5472
   691.30         31.5698
   691.44         31.5833
   691.58         31.5918
   691.72         31.5977
   691.86         31.5992
   692.00         31.5957
   692.14         31.5901
   692.28         31.5867
   692.42         31.5905
   692.56         31.6041
   692.70         31.6259
   692.84         31.6528
   692.98         31.6847
   693.12         31.7255
   693.26         31.7807
   693.40         31.8526
   693.54         31.9369
   693.68         32.0242
   693.82         32.1071
   693.96         32.1833
   694.10         32.2515
   694.24         32.3074
   694.38         32.3444
   694.52         32.3579
   694.66         32.3490
   694.80         32.3245
   694.94         32.2961
   695.08         32.2745
   695.22         32.2673
   695.36         32.2824
   695.50         32.3282
   695.64         32.4100
   695.78         32.5259
   695.92         32.6649
   696.06         32.8108
   696.20         32.9486
   696.34         33.0696
   696.48         33.1711
   696.62         33.2505
   696.76         33.3045
   696.90         33.3307
   697.04         33.3285
   697.18         33.3012
   697.32         33.2553
   697.46         33.1979
   697.60         33.1335
   697.74         33.0618
   697.88         32.9824
   698.02         32.8966
   698.16         32.8071
   698.30         32.7174
   698.44         32.6322
   698.58         32.5589
   698.72         32.5050
   698.86         32.4743
   699.00         32.4675
   699.14         32.4810
   699.28         32.5047
   699.42         32.5257
   699.56         32.5320
   699.70         32.5138
   699.84         32.4671
   699.98         32.3959
   700.12         32.3102
   700.26         32.2212
   700.40         32.1369
   700.54         32.0656
   700.68         32.0171
   700.82         31.9999
   700.96         32.0144
   701.10         32.0513
   701.24         32.0958
   701.38         32.1320
   701.52         32.1476
   701.66         32.1361
   701.80         32.0963
   701.94         32.0317
   702.08         31.9507
   702.22         31.8647
   702.36         31.7858
   702.50         31.7277
   702.64         31.7050
   702.78         31.7274
   702.92         31.7959
   703.06         31.9073
   703.20         32.0546
   703.34         32.2244
   703.48         32.3973
   703.62         32.5533
   703.76         32.6776
   703.90         32.7661
   704.04         32.8255
   704.18         32.8664
   704.32         32.8962
   704.46         32.9183
   704.60         32.9346
   704.74         32.9482
   704.88         32.9623
   705.02         32.9766
   705.16         32.9842
   705.30         32.9682
   705.44         32.9081
   705.58         32.7898
   705.72         32.6115
   705.86         32.3826
   706.00         32.1221
   706.14         31.8577
   706.28         31.6203
   706.42         31.4351
   706.56         31.3188
   706.70         31.2775
   706.84         31.3049
   706.98         31.3890
   707.12         31.5204
   707.26         31.6914
   707.40         31.8894
   707.54         32.0937
   707.68         32.2803
   707.82         32.4285
   707.96         32.5283
   708.10         32.5826
   708.24         32.6035
   708.38         32.6061
   708.52         32.6017
   708.66         32.5934
   708.80         32.5775
   708.94         32.5451
   709.08         32.4890
   709.22         32.4084
   709.36         32.3047
   709.50         32.1795
   709.64         32.0369
   709.78         31.8816
   709.92         31.7139
   710.06         31.5326
   710.20         31.3429
   710.34         31.1572
   710.48         30.9914
   710.62         30.8611
   710.76         30.7797
   710.90         30.7564
   711.04         30.7956
   711.18         30.8945
   711.32         31.0431
   711.46         31.2280
   711.60         31.4374
   711.74         31.6619
   711.88         31.8896
   712.02         32.1054
   712.16         32.2986
   712.30         32.4656
   712.44         32.6069
   712.58         32.7232
   712.72         32.8197
   712.86         32.9042
   713.00         32.9796
   713.14         33.0423
   713.28         33.0875
   713.42         33.1111
   713.56         33.1120
   713.70         33.0915
   713.84         33.0489
   713.98         32.9811
   714.12         32.8872
   714.26         32.7700
   714.40         32.6355
   714.54         32.4896
   714.68         32.3374
   714.82         32.1829
   714.96         32.0271
   715.10         31.8702
   715.24         31.7166
   715.38         31.5736
   715.52         31.4435
   715.66         31.3202
   715.80         31.1971
   715.94         31.0718
   716.08         30.9432
   716.22         30.8072
   716.36         30.6534
   716.50         30.4655
   716.64         30.2324
   716.78         29.9533
   716.92         29.6328
   717.06         29.2801
   717.20         28.9085
   717.34         28.5318
   717.48         28.1636
   717.62         27.8224
   717.76         27.5309
   717.90         27.3059
   718.04         27.1538
   718.18         27.0742
   718.32         27.0656
   718.46         27.1273
   718.60         27.2546
   718.74         27.4330
   718.88         27.6384
   719.02         27.8453
   719.16         28.0346
   719.30         28.1948
   719.44         28.3202
   719.58         28.4115
   719.72         28.4788
   719.86         28.5369
   720.00         28.6028
   720.14         28.6938
   720.28         28.8238
   720.42         28.9995
   720.56         29.2212
   720.70         29.4890
   720.84         29.8009
   720.98         30.1466
   721.12         30.5078
   721.26         30.8622
   721.40         31.1879
   721.54         31.4678
   721.68         31.6936
   721.82         31.8623
   721.96         31.9710
   722.10         32.0150
   722.24         31.9868
   722.38         31.8804
   722.52         31.6978
   722.66         31.4499
   722.80         31.1523
   722.94         30.8255
   723.08         30.4947
   723.22         30.1830
   723.36         29.9066
   723.50         29.6781
   723.64         29.5067
   723.78         29.3966
   723.92         29.3463
   724.06         29.3456
   724.20         29.3789
   724.34         29.4326
   724.48         29.4951
   724.62         29.5542
   724.76         29.6018
   724.90         29.6403
   725.04         29.6780
   725.18         29.7184
   725.32         29.7549
   725.46         29.7784
   725.60         29.7858
   725.74         29.7780
   725.88         29.7591
   726.02         29.7352
   726.16         29.7109
   726.30         29.6810
   726.44         29.6312
   726.58         29.5506
   726.72         29.4412
   726.86         29.3173
   727.00         29.1956
   727.14         29.0861
   727.28         28.9942
   727.42         28.9206
   727.56         28.8594
   727.70         28.8000
   727.84         28.7311
   727.98         28.6471
   728.12         28.5520
   728.26         28.4563
   728.40         28.3705
   728.54         28.3031
   728.68         28.2603
   728.82         28.2447
   728.96         28.2585
   729.10         28.3035
   729.24         28.3787
   729.38         28.4791
   729.52         28.5941
   729.66         28.7086
   729.80         28.8055
   729.94         28.8698
   730.08         28.8953
   730.22         28.8871
   730.36         28.8609
   730.50         28.8385
   730.64         28.8420
   730.78         28.8897
   730.92         28.9921
   731.06         29.1497
   731.20         29.3514
   731.34         29.5773
   731.48         29.8036
   731.62         30.0084
   731.76         30.1760
   731.90         30.2986
   732.04         30.3749
   732.18         30.4069
   732.32         30.3984
   732.46         30.3570
   732.60         30.2974
   732.74         30.2377
   732.88         30.1910
   733.02         30.1608
   733.16         30.1387
   733.30         30.1127
   733.44         30.0746
   733.58         30.0151
   733.72         29.9242
   733.86         29.7968
   734.00         29.6368
   734.14         29.4552
   734.28         29.2646
   734.42         29.0753
   734.56         28.8911
   734.70         28.7128
   734.84         28.5456
   734.98         28.3970
   735.12         28.2744
   735.26         28.1829
   735.40         28.1241
   735.54         28.0981
   735.68         28.1041
   735.82         28.1414
   735.96         28.2121
   736.10         28.3126
   736.24         28.4292
   736.38         28.5465
   736.52         28.6507
   736.66         28.7274
   736.80         28.7604
   736.94         28.7366
   737.08         28.6511
   737.22         28.5089
   737.36         28.3258
   737.50         28.1245
   737.64         27.9278
   737.78         27.7563
   737.92         27.6244
   738.06         27.5396
   738.20         27.5036
   738.34         27.5118
   738.48         27.5551
   738.62         27.6235
   738.76         27.7064
   738.90         27.7927
   739.04         27.8738
   739.18         27.9423
   739.32         27.9901
   739.46         28.0108
   739.60         28.0008
   739.74         27.9592
   739.88         27.8874
   740.02         27.7892
   740.16         27.6670
   740.30         27.5226
   740.44         27.3625
   740.58         27.1969
   740.72         27.0397
   740.86         26.9087
   741.00         26.8196
   741.14         26.7829
   741.28         26.8046
   741.42         26.8817
   741.56         27.0030
   741.70         27.1535
   741.84         27.3183
   741.98         27.4853
   742.12         27.6458
   742.26         27.7916
   742.40         27.9166
   742.54         28.0173
   742.68         28.0887
   742.82         28.1254
   742.96         28.1254
   743.10         28.0887
   743.24         28.0173
   743.38         27.9166
   743.52         27.7916
   743.66         27.6458
   743.80         27.4853
   743.94         27.3183
   744.08         27.1535
   744.22         27.0030
