# File HD37767
# Wavelength [nm]    Normalized Amplitude
   349.70         84.1595
   349.84         84.3654
   349.98         84.3624
   350.12         84.1422
   350.26         83.7321
   350.40         83.1915
   350.54         82.5947
   350.68         82.0192
   350.82         81.5398
   350.96         81.2211
   351.10         81.1091
   351.24         81.2211
   351.38         81.5398
   351.52         82.0192
   351.66         82.5947
   351.80         83.1915
   351.94         83.7321
   352.08         84.1422
   352.22         84.3624
   352.36         84.3654
   352.50         84.1595
   352.64         83.7789
   352.78         83.2751
   352.92         82.7059
   353.06         82.1200
   353.20         81.5555
   353.34         81.0479
   353.48         80.6249
   353.62         80.2996
   353.76         80.0698
   353.90         79.9205
   354.04         79.8288
   354.18         79.7702
   354.32         79.7257
   354.46         79.6828
   354.60         79.6292
   354.74         79.5569
   354.88         79.4729
   355.02         79.4020
   355.16         79.3756
   355.30         79.4128
   355.44         79.5144
   355.58         79.6752
   355.72         79.8962
   355.86         80.1758
   356.00         80.4974
   356.14         80.8283
   356.28         81.1294
   356.42         81.3640
   356.56         81.4988
   356.70         81.5015
   356.84         81.3453
   356.98         81.0187
   357.12         80.5300
   357.26         79.9082
   357.40         79.1959
   357.54         78.4381
   357.68         77.6735
   357.82         76.9307
   357.96         76.2329
   358.10         75.6069
   358.24         75.0803
   358.38         74.6677
   358.52         74.3634
   358.66         74.1528
   358.80         74.0252
   358.94         73.9704
   359.08         73.9711
   359.22         74.0067
   359.36         74.0613
   359.50         74.1249
   359.64         74.1932
   359.78         74.2653
   359.92         74.3367
   360.06         74.3993
   360.20         74.4517
   360.34         74.5039
   360.48         74.5704
   360.62         74.6574
   360.76         74.7555
   360.90         74.8428
   361.04         74.8979
   361.18         74.9130
   361.32         74.8974
   361.46         74.8717
   361.60         74.8557
   361.74         74.8589
   361.88         74.8790
   362.02         74.8990
   362.16         74.8856
   362.30         74.8033
   362.44         74.6318
   362.58         74.3687
   362.72         74.0271
   362.86         73.6297
   363.00         73.2062
   363.14         72.7917
   363.28         72.4242
   363.42         72.1462
   363.56         72.0000
   363.70         72.0134
   363.84         72.1880
   363.98         72.4969
   364.12         72.8934
   364.26         73.3210
   364.40         73.7284
   364.54         74.0793
   364.68         74.3501
   364.82         74.5295
   364.96         74.6224
   365.10         74.6443
   365.24         74.6081
   365.38         74.5200
   365.52         74.3863
   365.66         74.2171
   365.80         74.0229
   365.94         73.8101
   366.08         73.5802
   366.22         73.3305
   366.36         73.0624
   366.50         72.7862
   366.64         72.5191
   366.78         72.2839
   366.92         72.1068
   367.06         72.0055
   367.20         71.9759
   367.34         71.9954
   367.48         72.0392
   367.62         72.0932
   367.76         72.1564
   367.90         72.2305
   368.04         72.3129
   368.18         72.4039
   368.32         72.5110
   368.46         72.6445
   368.60         72.8069
   368.74         72.9902
   368.88         73.1816
   369.02         73.3659
   369.16         73.5243
   369.30         73.6339
   369.44         73.6743
   369.58         73.6288
   369.72         73.4834
   369.86         73.2324
   370.00         72.8835
   370.14         72.4610
   370.28         72.0033
   370.42         71.5534
   370.56         71.1486
   370.70         70.8218
   370.84         70.6011
   370.98         70.4992
   371.12         70.5053
   371.26         70.5942
   371.40         70.7435
   371.54         70.9426
   371.68         71.1913
   371.82         71.4907
   371.96         71.8263
   372.10         72.1628
   372.24         72.4548
   372.38         72.6624
   372.52         72.7644
   372.66         72.7685
   372.80         72.7129
   372.94         72.6600
   373.08         72.6814
   373.22         72.8350
   373.36         73.1474
   373.50         73.6029
   373.64         74.1456
   373.78         74.6915
   373.92         75.1479
   374.06         75.4375
   374.20         75.5138
   374.34         75.3667
   374.48         75.0178
   374.62         74.5133
   374.76         73.9365
   374.90         73.4143
   375.04         73.0884
   375.18         73.0748
   375.32         73.4301
   375.46         74.1317
   375.60         75.0762
   375.74         76.0900
   375.88         76.9604
   376.02         77.4907
   376.16         77.5545
   376.30         77.1273
   376.44         76.2904
   376.58         75.2187
   376.72         74.1487
   376.86         73.3254
   377.00         72.9579
   377.14         73.1919
   377.28         74.0969
   377.42         75.6643
   377.56         77.8023
   377.70         80.3404
   377.84         83.0535
   377.98         85.6893
   378.12         87.9908
   378.26         89.7220
   378.40         90.6994
   378.54         90.8210
   378.68         90.0820
   378.82         88.5746
   378.96         86.4720
   379.10         84.0076
   379.24         81.4507
   379.38         79.0780
   379.52         77.1467
   379.66         75.8769
   379.80         75.4296
   379.94         75.8832
   380.08         77.2238
   380.22         79.3459
   380.36         82.0590
   380.50         85.1011
   380.64         88.1660
   380.78         90.9535
   380.92         93.2269
   381.06         94.8525
   381.20         95.7982
   381.34         96.1179
   381.48         95.9283
   381.62         95.3657
   381.76         94.5495
   381.90         93.5586
   382.04         92.4201
   382.18         91.1157
   382.32         89.6060
   382.46         87.8567
   382.60         85.8627
   382.74         83.6638
   382.88         81.3488
   383.02         79.0560
   383.16         76.9681
   383.30         75.2924
   383.44         74.2291
   383.58         73.9356
   383.72         74.4909
   383.86         75.8743
   384.00         77.9771
   384.14         80.6195
   384.28         83.5700
   384.42         86.5865
   384.56         89.4531
   384.70         92.0024
   384.84         94.1286
   384.98         95.7930
   385.12         97.0116
   385.26         97.8320
   385.40         98.3136
   385.54         98.5174
   385.68         98.5000
   385.82         98.3083
   385.96         97.9763
   386.10         97.5293
   386.24         96.9926
   386.38         96.3880
   386.52         95.7317
   386.66         95.0391
   386.80         94.3185
   386.94         93.5647
   387.08         92.7595
   387.22         91.8595
   387.36         90.7890
   387.50         89.4596
   387.64         87.7995
   387.78         85.7768
   387.92         83.4157
   388.06         80.8081
   388.20         78.1108
   388.34         75.5232
   388.48         73.2573
   388.62         71.5087
   388.76         70.4339
   388.90         70.1335
   389.04         70.6409
   389.18         71.9224
   389.32         73.8828
   389.46         76.3705
   389.60         79.1914
   389.74         82.1315
   389.88         84.9807
   390.02         87.5643
   390.16         89.7714
   390.30         91.5569
   390.44         92.9268
   390.58         93.9185
   390.72         94.5864
   390.86         94.9880
   391.00         95.1695
   391.14         95.1646
   391.28         95.0054
   391.42         94.7274
   391.56         94.3700
   391.70         93.9782
   391.84         93.5945
   391.98         93.2478
   392.12         92.9501
   392.26         92.7033
   392.40         92.5110
   392.54         92.3839
   392.68         92.3353
   392.82         92.3763
   392.96         92.5078
   393.10         92.7183
   393.24         92.9887
   393.38         93.2947
   393.52         93.6080
   393.66         93.8996
   393.80         94.1483
   393.94         94.3400
   394.08         94.4626
   394.22         94.5053
   394.36         94.4572
   394.50         94.3031
   394.64         94.0259
   394.78         93.6131
   394.92         93.0577
   395.06         92.3465
   395.20         91.4497
   395.34         90.3217
   395.48         88.9051
   395.62         87.1399
   395.76         84.9839
   395.90         82.4378
   396.04         79.5654
   396.18         76.4985
   396.32         73.4212
   396.46         70.5422
   396.60         68.0668
   396.74         66.1777
   396.88         65.0172
   397.02         64.6712
   397.16         65.1548
   397.30         66.4092
   397.44         68.3133
   397.58         70.6973
   397.72         73.3591
   397.86         76.0899
   398.00         78.6998
   398.14         81.0356
   398.28         83.0009
   398.42         84.5626
   398.56         85.7394
   398.70         86.5831
   398.84         87.1605
   398.98         87.5364
   399.12         87.7631
   399.26         87.8778
   399.40         87.9035
   399.54         87.8494
   399.68         87.7098
   399.82         87.4741
   399.96         87.1412
   400.10         86.7236
   400.24         86.2423
   400.38         85.7235
   400.52         85.1991
   400.66         84.7023
   400.80         84.2600
   400.94         83.8841
   401.08         83.5641
   401.22         83.2645
   401.36         82.9358
   401.50         82.5303
   401.64         82.0161
   401.78         81.3907
   401.92         80.6830
   402.06         79.9457
   402.20         79.2471
   402.34         78.6661
   402.48         78.2816
   402.62         78.1538
   402.76         78.3108
   402.90         78.7447
   403.04         79.4163
   403.18         80.2637
   403.32         81.2089
   403.46         82.1650
   403.60         83.0467
   403.74         83.7821
   403.88         84.3302
   404.02         84.6891
   404.16         84.8899
   404.30         84.9792
   404.44         85.0003
   404.58         84.9828
   404.72         84.9415
   404.86         84.8819
   405.00         84.8036
   405.14         84.7009
   405.28         84.5678
   405.42         84.4052
   405.56         84.2185
   405.70         84.0165
   405.84         83.8072
   405.98         83.5928
   406.12         83.3707
   406.26         83.1391
   406.40         82.9033
   406.54         82.6758
   406.68         82.4699
   406.82         82.2929
   406.96         82.1414
   407.10         82.0033
   407.24         81.8661
   407.38         81.7153
   407.52         81.5350
   407.66         81.3123
   407.80         81.0389
   407.94         80.7091
   408.08         80.3150
   408.22         79.8394
   408.36         79.2517
   408.50         78.5093
   408.64         77.5628
   408.78         76.3617
   408.92         74.8647
   409.06         73.0572
   409.20         70.9647
   409.34         68.6577
   409.48         66.2475
   409.62         63.8756
   409.76         61.7039
   409.90         59.8981
   410.04         58.6042
   410.18         57.9321
   410.32         57.9419
   410.46         58.6301
   410.60         59.9261
   410.74         61.7023
   410.88         63.7952
   411.02         66.0284
   411.16         68.2328
   411.30         70.2653
   411.44         72.0241
   411.58         73.4614
   411.72         74.5820
   411.86         75.4241
   412.00         76.0392
   412.14         76.4811
   412.28         76.8006
   412.42         77.0409
   412.56         77.2332
   412.70         77.3905
   412.84         77.5064
   412.98         77.5584
   413.12         77.5156
   413.26         77.3490
   413.40         77.0482
   413.54         76.6295
   413.68         76.1266
   413.82         75.5825
   413.96         75.0464
   414.10         74.5682
   414.24         74.1938
   414.38         73.9596
   414.52         73.8884
   414.66         73.9883
   414.80         74.2479
   414.94         74.6332
   415.08         75.0916
   415.22         75.5655
   415.36         76.0055
   415.50         76.3739
   415.64         76.6463
   415.78         76.8148
   415.92         76.8874
   416.06         76.8852
   416.20         76.8337
   416.34         76.7548
   416.48         76.6677
   416.62         76.5878
   416.76         76.5266
   416.90         76.4926
   417.04         76.4907
   417.18         76.5169
   417.32         76.5552
   417.46         76.5844
   417.60         76.5879
   417.74         76.5558
   417.88         76.4853
   418.02         76.3784
   418.16         76.2391
   418.30         76.0754
   418.44         75.8987
   418.58         75.7197
   418.72         75.5470
   418.86         75.3857
   419.00         75.2378
   419.14         75.1015
   419.28         74.9688
   419.42         74.8295
   419.56         74.6759
   419.70         74.5033
   419.84         74.3107
   419.98         74.1038
   420.12         73.8975
   420.26         73.7135
   420.40         73.5709
   420.54         73.4813
   420.68         73.4459
   420.82         73.4518
   420.96         73.4769
   421.10         73.4970
   421.24         73.4920
   421.38         73.4481
   421.52         73.3595
   421.66         73.2315
   421.80         73.0760
   421.94         72.9059
   422.08         72.7355
   422.22         72.5788
   422.36         72.4485
   422.50         72.3533
   422.64         72.2981
   422.78         72.2835
   422.92         72.3025
   423.06         72.3399
   423.20         72.3768
   423.34         72.3989
   423.48         72.4013
   423.62         72.3886
   423.76         72.3677
   423.90         72.3408
   424.04         72.3068
   424.18         72.2651
   424.32         72.2139
   424.46         72.1461
   424.60         72.0526
   424.74         71.9283
   424.88         71.7737
   425.02         71.5929
   425.16         71.3895
   425.30         71.1667
   425.44         70.9282
   425.58         70.6786
   425.72         70.4249
   425.86         70.1777
   426.00         69.9498
   426.14         69.7535
   426.28         69.5961
   426.42         69.4781
   426.56         69.3967
   426.70         69.3510
   426.84         69.3417
   426.98         69.3682
   427.12         69.4280
   427.26         69.5166
   427.40         69.6239
   427.54         69.7337
   427.68         69.8278
   427.82         69.8904
   427.96         69.9124
   428.10         69.8919
   428.24         69.8338
   428.38         69.7485
   428.52         69.6500
   428.66         69.5522
   428.80         69.4670
   428.94         69.4027
   429.08         69.3635
   429.22         69.3504
   429.36         69.3616
   429.50         69.3906
   429.64         69.4230
   429.78         69.4371
   429.92         69.4112
   430.06         69.3298
   430.20         69.1882
   430.34         68.9909
   430.48         68.7485
   430.62         68.4745
   430.76         68.1826
   430.90         67.8895
   431.04         67.6128
   431.18         67.3657
   431.32         67.1544
   431.46         66.9758
   431.60         66.8177
   431.74         66.6626
   431.88         66.4874
   432.02         66.2619
   432.16         65.9481
   432.30         65.5014
   432.44         64.8760
   432.58         64.0303
   432.72         62.9319
   432.86         61.5662
   433.00         59.9455
   433.14         58.1167
   433.28         56.1620
   433.42         54.1933
   433.56         52.3400
   433.70         50.7316
   433.84         49.4804
   433.98         48.6710
   434.12         48.3533
   434.26         48.5396
   434.40         49.2059
   434.54         50.2930
   434.68         51.7133
   434.82         53.3605
   434.96         55.1212
   435.10         56.8862
   435.24         58.5618
   435.38         60.0771
   435.52         61.3896
   435.66         62.4835
   435.80         63.3637
   435.94         64.0468
   436.08         64.5558
   436.22         64.9162
   436.36         65.1519
   436.50         65.2840
   436.64         65.3329
   436.78         65.3197
   436.92         65.2675
   437.06         65.1975
   437.20         65.1202
   437.34         65.0313
   437.48         64.9143
   437.62         64.7464
   437.76         64.5104
   437.90         64.2047
   438.04         63.8468
   438.18         63.4675
   438.32         63.1025
   438.46         62.7867
   438.60         62.5494
   438.74         62.4106
   438.88         62.3803
   439.02         62.4568
   439.16         62.6264
   439.30         62.8663
   439.44         63.1480
   439.58         63.4376
   439.72         63.6985
   439.86         63.8971
   440.00         64.0109
   440.14         64.0350
   440.28         63.9827
   440.42         63.8802
   440.56         63.7561
   440.70         63.6298
   440.84         63.5065
   440.98         63.3821
   441.12         63.2513
   441.26         63.1088
   441.40         62.9505
   441.54         62.7730
   441.68         62.5726
   441.82         62.3471
   441.96         62.0970
   442.10         61.8257
   442.24         61.5375
   442.38         61.2392
   442.52         60.9389
   442.66         60.6479
   442.80         60.3812
   442.94         60.1534
   443.08         59.9758
   443.22         59.8561
   443.36         59.7975
   443.50         59.7968
   443.64         59.8488
   443.78         59.9481
   443.92         60.0897
   444.06         60.2675
   444.20         60.4726
   444.34         60.6930
   444.48         60.9161
   444.62         61.1302
   444.76         61.3249
   444.90         61.4921
   445.04         61.6265
   445.18         61.7230
   445.32         61.7742
   445.46         61.7698
   445.60         61.6936
   445.74         61.5215
   445.88         61.2253
   446.02         60.7825
   446.16         60.1929
   446.30         59.4868
   446.44         58.7186
   446.58         57.9525
   446.72         57.2491
   446.86         56.6585
   447.00         56.2187
   447.14         55.9545
   447.28         55.8753
   447.42         55.9743
   447.56         56.2316
   447.70         56.6141
   447.84         57.0776
   447.98         57.5751
   448.12         58.0607
   448.26         58.4904
   448.40         58.8322
   448.54         59.0757
   448.68         59.2313
   448.82         59.3207
   448.96         59.3646
   449.10         59.3738
   449.24         59.3529
   449.38         59.3070
   449.52         59.2434
   449.66         59.1706
   449.80         59.0975
   449.94         59.0326
   450.08         58.9823
   450.22         58.9508
   450.36         58.9393
   450.50         58.9453
   450.64         58.9632
   450.78         58.9846
   450.92         59.0006
   451.06         59.0066
   451.20         59.0015
   451.34         58.9859
   451.48         58.9612
   451.62         58.9281
   451.76         58.8859
   451.90         58.8329
   452.04         58.7666
   452.18         58.6841
   452.32         58.5867
   452.46         58.4805
   452.60         58.3725
   452.74         58.2698
   452.88         58.1766
   453.02         58.0913
   453.16         58.0104
   453.30         57.9320
   453.44         57.8557
   453.58         57.7798
   453.72         57.7009
   453.86         57.6143
   454.00         57.5151
   454.14         57.4010
   454.28         57.2751
   454.42         57.1455
   454.56         57.0232
   454.70         56.9183
   454.84         56.8398
   454.98         56.7962
   455.12         56.7908
   455.26         56.8205
   455.40         56.8801
   455.54         56.9604
   455.68         57.0513
   455.82         57.1458
   455.96         57.2378
   456.10         57.3173
   456.24         57.3714
   456.38         57.3919
   456.52         57.3763
   456.66         57.3271
   456.80         57.2485
   456.94         57.1431
   457.08         57.0134
   457.22         56.8635
   457.36         56.7010
   457.50         56.5355
   457.64         56.3749
   457.78         56.2243
   457.92         56.0875
   458.06         55.9661
   458.20         55.8581
   458.34         55.7609
   458.48         55.6739
   458.62         55.5948
   458.76         55.5200
   458.90         55.4478
   459.04         55.3778
   459.18         55.3052
   459.32         55.2243
   459.46         55.1333
   459.60         55.0351
   459.74         54.9389
   459.88         54.8560
   460.02         54.7925
   460.16         54.7488
   460.30         54.7248
   460.44         54.7229
   460.58         54.7433
   460.72         54.7808
   460.86         54.8290
   461.00         54.8830
   461.14         54.9389
   461.28         54.9911
   461.42         55.0319
   461.56         55.0527
   461.70         55.0453
   461.84         55.0054
   461.98         54.9355
   462.12         54.8424
   462.26         54.7325
   462.40         54.6093
   462.54         54.4724
   462.68         54.3230
   462.82         54.1687
   462.96         54.0212
   463.10         53.8897
   463.24         53.7788
   463.38         53.6906
   463.52         53.6263
   463.66         53.5862
   463.80         53.5695
   463.94         53.5741
   464.08         53.5997
   464.22         53.6482
   464.36         53.7205
   464.50         53.8127
   464.64         53.9149
   464.78         54.0128
   464.92         54.0927
   465.06         54.1459
   465.20         54.1691
   465.34         54.1611
   465.48         54.1217
   465.62         54.0521
   465.76         53.9563
   465.90         53.8448
   466.04         53.7298
   466.18         53.6180
   466.32         53.5118
   466.46         53.4140
   466.60         53.3271
   466.74         53.2503
   466.88         53.1802
   467.02         53.1132
   467.16         53.0484
   467.30         52.9859
   467.44         52.9267
   467.58         52.8732
   467.72         52.8272
   467.86         52.7869
   468.00         52.7502
   468.14         52.7181
   468.28         52.6916
   468.42         52.6706
   468.56         52.6545
   468.70         52.6397
   468.84         52.6183
   468.98         52.5839
   469.12         52.5352
   469.26         52.4742
   469.40         52.4043
   469.54         52.3289
   469.68         52.2478
   469.82         52.1536
   469.96         52.0354
   470.10         51.8843
   470.24         51.6985
   470.38         51.4844
   470.52         51.2573
   470.66         51.0371
   470.80         50.8406
   470.94         50.6798
   471.08         50.5620
   471.22         50.4892
   471.36         50.4564
   471.50         50.4517
   471.64         50.4612
   471.78         50.4764
   471.92         50.4942
   472.06         50.5101
   472.20         50.5167
   472.34         50.5040
   472.48         50.4641
   472.62         50.3954
   472.76         50.3042
   472.90         50.2029
   473.04         50.1068
   473.18         50.0273
   473.32         49.9682
   473.46         49.9281
   473.60         49.9049
   473.74         49.8959
   473.88         49.8985
   474.02         49.9103
   474.16         49.9296
   474.30         49.9546
   474.44         49.9838
   474.58         50.0121
   474.72         50.0292
   474.86         50.0207
   475.00         49.9740
   475.14         49.8848
   475.28         49.7572
   475.42         49.6003
   475.56         49.4234
   475.70         49.2344
   475.84         49.0390
   475.98         48.8434
   476.12         48.6572
   476.26         48.4904
   476.40         48.3508
   476.54         48.2421
   476.68         48.1610
   476.82         48.0993
   476.96         48.0469
   477.10         47.9960
   477.24         47.9408
   477.38         47.8755
   477.52         47.7965
   477.66         47.7061
   477.80         47.6111
   477.94         47.5176
   478.08         47.4312
   478.22         47.3605
   478.36         47.3161
   478.50         47.3074
   478.64         47.3397
   478.78         47.4103
   478.92         47.5058
   479.06         47.6056
   479.20         47.6871
   479.34         47.7311
   479.48         47.7278
   479.62         47.6769
   479.76         47.5835
   479.90         47.4546
   480.04         47.2990
   480.18         47.1307
   480.32         46.9660
   480.46         46.8184
   480.60         46.6969
   480.74         46.6064
   480.88         46.5454
   481.02         46.5054
   481.16         46.4749
   481.30         46.4428
   481.44         46.4001
   481.58         46.3436
   481.72         46.2772
   481.86         46.2072
   482.00         46.1427
   482.14         46.0916
   482.28         46.0581
   482.42         46.0412
   482.56         46.0355
   482.70         46.0350
   482.84         46.0326
   482.98         46.0194
   483.12         45.9856
   483.26         45.9226
   483.40         45.8256
   483.54         45.6942
   483.68         45.5322
   483.82         45.3428
   483.96         45.1250
   484.10         44.8729
   484.24         44.5768
   484.38         44.2221
   484.52         43.7883
   484.66         43.2520
   484.80         42.5888
   484.94         41.7793
   485.08         40.8188
   485.22         39.7249
   485.36         38.5387
   485.50         37.3221
   485.64         36.1504
   485.78         35.1016
   485.92         34.2465
   486.06         33.6429
   486.20         33.3308
   486.34         33.3248
   486.48         33.6114
   486.62         34.1533
   486.76         34.8943
   486.90         35.7673
   487.04         36.7023
   487.18         37.6313
   487.32         38.4991
   487.46         39.2714
   487.60         39.9351
   487.74         40.4923
   487.88         40.9550
   488.02         41.3399
   488.16         41.6640
   488.30         41.9389
   488.44         42.1704
   488.58         42.3629
   488.72         42.5189
   488.86         42.6400
   489.00         42.7269
   489.14         42.7814
   489.28         42.8078
   489.42         42.8113
   489.56         42.7972
   489.70         42.7702
   489.84         42.7382
   489.98         42.7132
   490.12         42.7051
   490.26         42.7210
   490.40         42.7642
   490.54         42.8332
   490.68         42.9189
   490.82         43.0036
   490.96         43.0641
   491.10         43.0774
   491.24         43.0258
   491.38         42.9024
   491.52         42.7145
   491.66         42.4824
   491.80         42.2337
   491.94         41.9979
   492.08         41.8020
   492.22         41.6708
   492.36         41.6251
   492.50         41.6770
   492.64         41.8245
   492.78         42.0508
   492.92         42.3271
   493.06         42.6176
   493.20         42.8879
   493.34         43.1117
   493.48         43.2755
   493.62         43.3777
   493.76         43.4260
   493.90         43.4354
   494.04         43.4243
   494.18         43.4100
   494.32         43.4037
   494.46         43.4088
   494.60         43.4237
   494.74         43.4437
   494.88         43.4642
   495.02         43.4795
   495.16         43.4798
   495.30         43.4554
   495.44         43.4007
   495.58         43.3150
   495.72         43.2047
   495.86         43.0801
   496.00         42.9491
   496.14         42.8150
   496.28         42.6778
   496.42         42.5350
   496.56         42.3855
   496.70         42.2333
   496.84         42.0872
   496.98         41.9557
   497.12         41.8418
   497.26         41.7437
   497.40         41.6580
   497.54         41.5833
   497.68         41.5194
   497.82         41.4675
   497.96         41.4307
   498.10         41.4115
   498.24         41.4092
   498.38         41.4217
   498.52         41.4422
   498.66         41.4580
   498.80         41.4555
   498.94         41.4247
   499.08         41.3596
   499.22         41.2598
   499.36         41.1319
   499.50         40.9846
   499.64         40.8247
   499.78         40.6587
   499.92         40.4956
   500.06         40.3436
   500.20         40.2059
   500.34         40.0808
   500.48         39.9646
   500.62         39.8546
   500.76         39.7510
   500.90         39.6557
   501.04         39.5683
   501.18         39.4854
   501.32         39.4038
   501.46         39.3231
   501.60         39.2442
   501.74         39.1698
   501.88         39.1070
   502.02         39.0641
   502.16         39.0429
   502.30         39.0397
   502.44         39.0482
   502.58         39.0603
   502.72         39.0695
   502.86         39.0734
   503.00         39.0746
   503.14         39.0769
   503.28         39.0829
   503.42         39.0912
   503.56         39.0962
   503.70         39.0902
   503.84         39.0685
   503.98         39.0327
   504.12         38.9881
   504.26         38.9424
   504.40         38.9040
   504.54         38.8793
   504.68         38.8688
   504.82         38.8710
   504.96         38.8858
   505.10         38.9120
   505.24         38.9461
   505.38         38.9826
   505.52         39.0157
   505.66         39.0401
   505.80         39.0504
   505.94         39.0422
   506.08         39.0122
   506.22         38.9595
   506.36         38.8871
   506.50         38.8026
   506.64         38.7162
   506.78         38.6347
   506.92         38.5603
   507.06         38.4951
   507.20         38.4433
   507.34         38.4097
   507.48         38.3976
   507.62         38.4060
   507.76         38.4290
   507.90         38.4590
   508.04         38.4884
   508.18         38.5120
   508.32         38.5270
   508.46         38.5336
   508.60         38.5331
   508.74         38.5273
   508.88         38.5182
   509.02         38.5070
   509.16         38.4948
   509.30         38.4815
   509.44         38.4640
   509.58         38.4394
   509.72         38.4062
   509.86         38.3613
   510.00         38.2993
   510.14         38.2179
   510.28         38.1198
   510.42         38.0105
   510.56         37.8971
   510.70         37.7870
   510.84         37.6874
   510.98         37.6034
   511.12         37.5364
   511.26         37.4845
   511.40         37.4446
   511.54         37.4146
   511.68         37.3934
   511.82         37.3783
   511.96         37.3627
   512.10         37.3387
   512.24         37.3025
   512.38         37.2550
   512.52         37.2000
   512.66         37.1421
   512.80         37.0849
   512.94         37.0301
   513.08         36.9779
   513.22         36.9276
   513.36         36.8778
   513.50         36.8269
   513.64         36.7766
   513.78         36.7292
   513.92         36.6856
   514.06         36.6464
   514.20         36.6109
   514.34         36.5754
   514.48         36.5362
   514.62         36.4923
   514.76         36.4454
   514.90         36.3995
   515.04         36.3586
   515.18         36.3245
   515.32         36.2960
   515.46         36.2720
   515.60         36.2541
   515.74         36.2435
   515.88         36.2375
   516.02         36.2315
   516.16         36.2215
   516.30         36.2055
   516.44         36.1812
   516.58         36.1485
   516.72         36.1107
   516.86         36.0695
   517.00         36.0244
   517.14         35.9748
   517.28         35.9205
   517.42         35.8618
   517.56         35.8007
   517.70         35.7399
   517.84         35.6814
   517.98         35.6267
   518.12         35.5785
   518.26         35.5412
   518.40         35.5175
   518.54         35.5082
   518.68         35.5146
   518.82         35.5385
   518.96         35.5798
   519.10         35.6337
   519.24         35.6928
   519.38         35.7477
   519.52         35.7893
   519.66         35.8132
   519.80         35.8199
   519.94         35.8134
   520.08         35.7984
   520.22         35.7779
   520.36         35.7530
   520.50         35.7237
   520.64         35.6894
   520.78         35.6514
   520.92         35.6122
   521.06         35.5738
   521.20         35.5385
   521.34         35.5092
   521.48         35.4851
   521.62         35.4624
   521.76         35.4388
   521.90         35.4144
   522.04         35.3896
   522.18         35.3659
   522.32         35.3435
   522.46         35.3193
   522.60         35.2895
   522.74         35.2511
   522.88         35.2017
   523.02         35.1397
   523.16         35.0651
   523.30         34.9806
   523.44         34.8900
   523.58         34.7970
   523.72         34.7061
   523.86         34.6210
   524.00         34.5421
   524.14         34.4679
   524.28         34.3996
   524.42         34.3411
   524.56         34.2940
   524.70         34.2596
   524.84         34.2401
   524.98         34.2352
   525.12         34.2405
   525.26         34.2504
   525.40         34.2591
   525.54         34.2601
   525.68         34.2483
   525.82         34.2229
   525.96         34.1866
   526.10         34.1424
   526.24         34.0930
   526.38         34.0409
   526.52         33.9883
   526.66         33.9372
   526.80         33.8901
   526.94         33.8500
   527.08         33.8186
   527.22         33.7955
   527.36         33.7786
   527.50         33.7641
   527.64         33.7469
   527.78         33.7228
   527.92         33.6906
   528.06         33.6519
   528.20         33.6087
   528.34         33.5650
   528.48         33.5270
   528.62         33.5007
   528.76         33.4884
   528.90         33.4882
   529.04         33.4950
   529.18         33.5011
   529.32         33.4987
   529.46         33.4822
   529.60         33.4495
   529.74         33.4007
   529.88         33.3388
   530.02         33.2697
   530.16         33.2016
   530.30         33.1418
   530.44         33.0947
   530.58         33.0614
   530.72         33.0405
   530.86         33.0281
   531.00         33.0198
   531.14         33.0099
   531.28         32.9922
   531.42         32.9617
   531.56         32.9159
   531.70         32.8555
   531.84         32.7844
   531.98         32.7079
   532.12         32.6312
   532.26         32.5591
   532.40         32.4959
   532.54         32.4454
   532.68         32.4103
   532.82         32.3908
   532.96         32.3843
   533.10         32.3860
   533.24         32.3911
   533.38         32.3941
   533.52         32.3910
   533.66         32.3803
   533.80         32.3627
   533.94         32.3398
   534.08         32.3128
   534.22         32.2814
   534.36         32.2457
   534.50         32.2086
   534.64         32.1749
   534.78         32.1501
   534.92         32.1381
   535.06         32.1403
   535.20         32.1552
   535.34         32.1782
   535.48         32.2023
   535.62         32.2204
   535.76         32.2268
   535.90         32.2192
   536.04         32.1983
   536.18         32.1677
   536.32         32.1320
   536.46         32.0948
   536.60         32.0599
   536.74         32.0297
   536.88         32.0063
   537.02         31.9930
   537.16         31.9911
   537.30         31.9979
   537.44         32.0068
   537.58         32.0106
   537.72         32.0042
   537.86         31.9847
   538.00         31.9509
   538.14         31.9037
   538.28         31.8464
   538.42         31.7843
   538.56         31.7232
   538.70         31.6677
   538.84         31.6207
   538.98         31.5825
   539.12         31.5525
   539.26         31.5289
   539.40         31.5090
   539.54         31.4915
   539.68         31.4747
   539.82         31.4550
   539.96         31.4298
   540.10         31.3973
   540.24         31.3559
   540.38         31.3033
   540.52         31.2373
   540.66         31.1590
   540.80         31.0730
   540.94         30.9848
   541.08         30.8992
   541.22         30.8203
   541.36         30.7526
   541.50         30.7013
   541.64         30.6704
   541.78         30.6626
   541.92         30.6769
   542.06         30.7083
   542.20         30.7495
   542.34         30.7905
   542.48         30.8217
   542.62         30.8369
   542.76         30.8318
   542.90         30.8045
   543.04         30.7581
   543.18         30.7006
   543.32         30.6416
   543.46         30.5880
   543.60         30.5452
   543.74         30.5179
   543.88         30.5084
   544.02         30.5164
   544.16         30.5368
   544.30         30.5601
   544.44         30.5752
   544.58         30.5730
   544.72         30.5489
   544.86         30.5030
   545.00         30.4378
   545.14         30.3587
   545.28         30.2719
   545.42         30.1813
   545.56         30.0900
   545.70         30.0023
   545.84         29.9234
   545.98         29.8570
   546.12         29.8046
   546.26         29.7675
   546.40         29.7459
   546.54         29.7371
   546.68         29.7364
   546.82         29.7374
   546.96         29.7332
   547.10         29.7193
   547.24         29.6931
   547.38         29.6543
   547.52         29.6028
   547.66         29.5377
   547.80         29.4586
   547.94         29.3673
   548.08         29.2685
   548.22         29.1694
   548.36         29.0775
   548.50         28.9998
   548.64         28.9417
   548.78         28.9071
   548.92         28.9001
   549.06         28.9211
   549.20         28.9656
   549.34         29.0252
   549.48         29.0893
   549.62         29.1485
   549.76         29.1959
   549.90         29.2258
   550.04         29.2333
   550.18         29.2161
   550.32         29.1776
   550.46         29.1247
   550.60         29.0649
   550.74         29.0045
   550.88         28.9481
   551.02         28.8997
   551.16         28.8621
   551.30         28.8351
   551.44         28.8162
   551.58         28.8021
   551.72         28.7880
   551.86         28.7690
   552.00         28.7422
   552.14         28.7081
   552.28         28.6694
   552.42         28.6291
   552.56         28.5895
   552.70         28.5529
   552.84         28.5213
   552.98         28.4942
   553.12         28.4690
   553.26         28.4436
   553.40         28.4181
   553.54         28.3926
   553.68         28.3672
   553.82         28.3425
   553.96         28.3194
   554.10         28.2985
   554.24         28.2795
   554.38         28.2605
   554.52         28.2411
   554.66         28.2233
   554.80         28.2095
   554.94         28.2012
   555.08         28.1990
   555.22         28.2030
   555.36         28.2132
   555.50         28.2289
   555.64         28.2474
   555.78         28.2647
   555.92         28.2761
   556.06         28.2770
   556.20         28.2631
   556.34         28.2309
   556.48         28.1787
   556.62         28.1076
   556.76         28.0221
   556.90         27.9291
   557.04         27.8366
   557.18         27.7540
   557.32         27.6881
   557.46         27.6411
   557.60         27.6128
   557.74         27.6035
   557.88         27.6143
   558.02         27.6447
   558.16         27.6899
   558.30         27.7426
   558.44         27.7965
   558.58         27.8455
   558.72         27.8834
   558.86         27.9054
   559.00         27.9101
   559.14         27.8991
   559.28         27.8744
   559.42         27.8370
   559.56         27.7872
   559.70         27.7272
   559.84         27.6607
   559.98         27.5911
   560.12         27.5221
   560.26         27.4584
   560.40         27.4026
   560.54         27.3545
   560.68         27.3122
   560.82         27.2737
   560.96         27.2396
   561.10         27.2115
   561.24         27.1907
   561.38         27.1784
   561.52         27.1756
   561.66         27.1804
   561.80         27.1891
   561.94         27.1968
   562.08         27.1991
   562.22         27.1934
   562.36         27.1786
   562.50         27.1549
   562.64         27.1234
   562.78         27.0855
   562.92         27.0440
   563.06         27.0024
   563.20         26.9643
   563.34         26.9314
   563.48         26.9042
   563.62         26.8816
   563.76         26.8626
   563.90         26.8471
   564.04         26.8344
   564.18         26.8228
   564.32         26.8100
   564.46         26.7944
   564.60         26.7757
   564.74         26.7550
   564.88         26.7337
   565.02         26.7127
   565.16         26.6934
   565.30         26.6754
   565.44         26.6561
   565.58         26.6327
   565.72         26.6021
   565.86         26.5618
   566.00         26.5107
   566.14         26.4495
   566.28         26.3798
   566.42         26.3049
   566.56         26.2286
   566.70         26.1547
   566.84         26.0886
   566.98         26.0347
   567.12         25.9948
   567.26         25.9693
   567.40         25.9564
   567.54         25.9532
   567.68         25.9568
   567.82         25.9643
   567.96         25.9708
   568.10         25.9715
   568.24         25.9634
   568.38         25.9451
   568.52         25.9176
   568.66         25.8833
   568.80         25.8447
   568.94         25.8036
   569.08         25.7621
   569.22         25.7215
   569.36         25.6813
   569.50         25.6391
   569.64         25.5930
   569.78         25.5442
   569.92         25.4969
   570.06         25.4550
   570.20         25.4219
   570.34         25.4001
   570.48         25.3906
   570.62         25.3924
   570.76         25.4045
   570.90         25.4253
   571.04         25.4534
   571.18         25.4864
   571.32         25.5198
   571.46         25.5486
   571.60         25.5694
   571.74         25.5802
   571.88         25.5791
   572.02         25.5653
   572.16         25.5400
   572.30         25.5077
   572.44         25.4719
   572.58         25.4311
   572.72         25.3823
   572.86         25.3233
   573.00         25.2540
   573.14         25.1764
   573.28         25.0938
   573.42         25.0103
   573.56         24.9290
   573.70         24.8502
   573.84         24.7723
   573.98         24.6943
   574.12         24.6161
   574.26         24.5384
   574.40         24.4634
   574.54         24.3955
   574.68         24.3404
   574.82         24.3021
   574.96         24.2816
   575.10         24.2762
   575.24         24.2822
   575.38         24.2983
   575.52         24.3239
   575.66         24.3579
   575.80         24.3980
   575.94         24.4395
   576.08         24.4778
   576.22         24.5097
   576.36         24.5339
   576.50         24.5510
   576.64         24.5614
   576.78         24.5628
   576.92         24.5496
   577.06         24.5171
   577.20         24.4633
   577.34         24.3896
   577.48         24.3016
   577.62         24.2084
   577.76         24.1209
   577.90         24.0498
   578.04         24.0042
   578.18         23.9895
   578.32         24.0065
   578.46         24.0504
   578.60         24.1128
   578.74         24.1854
   578.88         24.2591
   579.02         24.3228
   579.16         24.3679
   579.30         24.3904
   579.44         24.3915
   579.58         24.3769
   579.72         24.3561
   579.86         24.3389
   580.00         24.3306
   580.14         24.3318
   580.28         24.3386
   580.42         24.3458
   580.56         24.3492
   580.70         24.3452
   580.84         24.3306
   580.98         24.3028
   581.12         24.2622
   581.26         24.2131
   581.40         24.1599
   581.54         24.1056
   581.68         24.0525
   581.82         24.0030
   581.96         23.9573
   582.10         23.9132
   582.24         23.8677
   582.38         23.8197
   582.52         23.7687
   582.66         23.7148
   582.80         23.6596
   582.94         23.6066
   583.08         23.5599
   583.22         23.5224
   583.36         23.4941
   583.50         23.4753
   583.64         23.4685
   583.78         23.4763
   583.92         23.4981
   584.06         23.5322
   584.20         23.5776
   584.34         23.6331
   584.48         23.6966
   584.62         23.7667
   584.76         23.8427
   584.90         23.9232
   585.04         24.0063
   585.18         24.0893
   585.32         24.1698
   585.46         24.2459
   585.60         24.3136
   585.74         24.3682
   585.88         24.4048
   586.02         24.4186
   586.16         24.4048
   586.30         24.3574
   586.44         24.2678
   586.58         24.1320
   586.72         23.9560
   586.86         23.7543
   587.00         23.5451
   587.14         23.3488
   587.28         23.1842
   587.42         23.0646
   587.56         22.9966
   587.70         22.9781
   587.84         22.9962
   587.98         23.0320
   588.12         23.0682
   588.26         23.0885
   588.40         23.0779
   588.54         23.0240
   588.68         22.9226
   588.82         22.7800
   588.96         22.6113
   589.10         22.4375
   589.24         22.2834
   589.38         22.1727
   589.52         22.1218
   589.66         22.1368
   589.80         22.2150
   589.94         22.3464
   590.08         22.5140
   590.22         22.6974
   590.36         22.8771
   590.50         23.0386
   590.64         23.1758
   590.78         23.2865
   590.92         23.3685
   591.06         23.4222
   591.20         23.4525
   591.34         23.4667
   591.48         23.4702
   591.62         23.4647
   591.76         23.4497
   591.90         23.4245
   592.04         23.3882
   592.18         23.3401
   592.32         23.2787
   592.46         23.2036
   592.60         23.1155
   592.74         23.0178
   592.88         22.9166
   593.02         22.8188
   593.16         22.7307
   593.30         22.6571
   593.44         22.6011
   593.58         22.5638
   593.72         22.5443
   593.86         22.5394
   594.00         22.5450
   594.14         22.5576
   594.28         22.5732
   594.42         22.5878
   594.56         22.5986
   594.70         22.6039
   594.84         22.6032
   594.98         22.5972
   595.12         22.5869
   595.26         22.5745
   595.40         22.5617
   595.54         22.5491
   595.68         22.5365
   595.82         22.5238
   595.96         22.5113
   596.10         22.4988
   596.24         22.4863
   596.38         22.4738
   596.52         22.4615
   596.66         22.4491
   596.80         22.4368
   596.94         22.4245
   597.08         22.4123
   597.22         22.4000
   597.36         22.3877
   597.50         22.3755
   597.64         22.3633
   597.78         22.3512
   597.92         22.3391
   598.06         22.3270
   598.20         22.3150
   598.34         22.3030
   598.48         22.2911
   598.62         22.2792
   598.76         22.2683
   598.90         22.2593
   599.04         22.2526
   599.18         22.2495
   599.32         22.2513
   599.46         22.2590
   599.60         22.2713
   599.74         22.2860
   599.88         22.3018
   600.02         22.3194
   600.16         22.3412
   600.30         22.3693
   600.44         22.4050
   600.58         22.4493
   600.72         22.5020
   600.86         22.5603
   601.00         22.6181
   601.14         22.6679
   601.28         22.7033
   601.42         22.7189
   601.56         22.7096
   601.70         22.6733
   601.84         22.6127
   601.98         22.5317
   602.12         22.4322
   602.26         22.3161
   602.40         22.1902
   602.54         22.0652
   602.68         21.9522
   602.82         21.8604
   602.96         21.7931
   603.10         21.7488
   603.24         21.7230
   603.38         21.7091
   603.52         21.6999
   603.66         21.6905
   603.80         21.6796
   603.94         21.6678
   604.08         21.6568
   604.22         21.6488
   604.36         21.6461
   604.50         21.6490
   604.64         21.6540
   604.78         21.6574
   604.92         21.6587
   605.06         21.6616
   605.20         21.6692
   605.34         21.6808
   605.48         21.6915
   605.62         21.6968
   605.76         21.6962
   605.90         21.6927
   606.04         21.6909
   606.18         21.6952
   606.32         21.7072
   606.46         21.7258
   606.60         21.7485
   606.74         21.7715
   606.88         21.7891
   607.02         21.7944
   607.16         21.7810
   607.30         21.7441
   607.44         21.6818
   607.58         21.5975
   607.72         21.4993
   607.86         21.3957
   608.00         21.2953
   608.14         21.2081
   608.28         21.1422
   608.42         21.1017
   608.56         21.0869
   608.70         21.0964
   608.84         21.1257
   608.98         21.1665
   609.12         21.2073
   609.26         21.2367
   609.40         21.2466
   609.54         21.2322
   609.68         21.1915
   609.82         21.1258
   609.96         21.0395
   610.10         20.9406
   610.24         20.8387
   610.38         20.7434
   610.52         20.6635
   610.66         20.6059
   610.80         20.5733
   610.94         20.5648
   611.08         20.5792
   611.22         20.6147
   611.36         20.6673
   611.50         20.7309
   611.64         20.7986
   611.78         20.8640
   611.92         20.9237
   612.06         20.9759
   612.20         21.0163
   612.34         21.0401
   612.48         21.0450
   612.62         21.0320
   612.76         21.0055
   612.90         20.9720
   613.04         20.9376
   613.18         20.9048
   613.32         20.8710
   613.46         20.8318
   613.60         20.7841
   613.74         20.7280
   613.88         20.6655
   614.02         20.6004
   614.16         20.5389
   614.30         20.4853
   614.44         20.4407
   614.58         20.4045
   614.72         20.3757
   614.86         20.3524
   615.00         20.3353
   615.14         20.3263
   615.28         20.3261
   615.42         20.3363
   615.56         20.3563
   615.70         20.3828
   615.84         20.4116
   615.98         20.4389
   616.12         20.4625
   616.26         20.4813
   616.40         20.4948
   616.54         20.5014
   616.68         20.4989
   616.82         20.4842
   616.96         20.4532
   617.10         20.4048
   617.24         20.3427
   617.38         20.2745
   617.52         20.2088
   617.66         20.1538
   617.80         20.1144
   617.94         20.0920
   618.08         20.0851
   618.22         20.0888
   618.36         20.0985
   618.50         20.1122
   618.64         20.1292
   618.78         20.1495
   618.92         20.1727
   619.06         20.1989
   619.20         20.2268
   619.34         20.2539
   619.48         20.2774
   619.62         20.2959
   619.76         20.3093
   619.90         20.3173
   620.04         20.3201
   620.18         20.3185
   620.32         20.3142
   620.46         20.3089
   620.60         20.3016
   620.74         20.2909
   620.88         20.2781
   621.02         20.2656
   621.16         20.2550
   621.30         20.2467
   621.44         20.2399
   621.58         20.2324
   621.72         20.2230
   621.86         20.2142
   622.00         20.2095
   622.14         20.2123
   622.28         20.2232
   622.42         20.2411
   622.56         20.2634
   622.70         20.2866
   622.84         20.3077
   622.98         20.3233
   623.12         20.3303
   623.26         20.3259
   623.40         20.3115
   623.54         20.2904
   623.68         20.2656
   623.82         20.2400
   623.96         20.2162
   624.10         20.1950
   624.24         20.1765
   624.38         20.1635
   624.52         20.1591
   624.66         20.1640
   624.80         20.1757
   624.94         20.1906
   625.08         20.2045
   625.22         20.2133
   625.36         20.2138
   625.50         20.2044
   625.64         20.1830
   625.78         20.1459
   625.92         20.0917
   626.06         20.0218
   626.20         19.9394
   626.34         19.8488
   626.48         19.7518
   626.62         19.6475
   626.76         19.5354
   626.90         19.4162
   627.04         19.2904
   627.18         19.1567
   627.32         19.0127
   627.46         18.8591
   627.60         18.7008
   627.74         18.5456
   627.88         18.4028
   628.02         18.2817
   628.16         18.1893
   628.30         18.1298
   628.44         18.1064
   628.58         18.1198
   628.72         18.1662
   628.86         18.2375
   629.00         18.3228
   629.14         18.4096
   629.28         18.4874
   629.42         18.5516
   629.56         18.6007
   629.70         18.6336
   629.84         18.6508
   629.98         18.6554
   630.12         18.6526
   630.26         18.6461
   630.40         18.6375
   630.54         18.6264
   630.68         18.6135
   630.82         18.6008
   630.96         18.5911
   631.10         18.5854
   631.24         18.5828
   631.38         18.5828
   631.52         18.5859
   631.66         18.5924
   631.80         18.6011
   631.94         18.6114
   632.08         18.6233
   632.22         18.6340
   632.36         18.6381
   632.50         18.6316
   632.64         18.6147
   632.78         18.5910
   632.92         18.5639
   633.06         18.5355
   633.20         18.5080
   633.34         18.4842
   633.48         18.4661
   633.62         18.4532
   633.76         18.4431
   633.90         18.4333
   634.04         18.4229
   634.18         18.4117
   634.32         18.3962
   634.46         18.3710
   634.60         18.3332
   634.74         18.2840
   634.88         18.2266
   635.02         18.1662
   635.16         18.1089
   635.30         18.0598
   635.44         18.0214
   635.58         17.9951
   635.72         17.9809
   635.86         17.9783
   636.00         17.9860
   636.14         18.0014
   636.28         18.0201
   636.42         18.0366
   636.56         18.0467
   636.70         18.0468
   636.84         18.0324
   636.98         17.9993
   637.12         17.9486
   637.26         17.8880
   637.40         17.8266
   637.54         17.7710
   637.68         17.7251
   637.82         17.6910
   637.96         17.6698
   638.10         17.6632
   638.24         17.6722
   638.38         17.6958
   638.52         17.7304
   638.66         17.7709
   638.80         17.8113
   638.94         17.8461
   639.08         17.8725
   639.22         17.8895
   639.36         17.8973
   639.50         17.8980
   639.64         17.8957
   639.78         17.8943
   639.92         17.8957
   640.06         17.8992
   640.20         17.9025
   640.34         17.9041
   640.48         17.9034
   640.62         17.8993
   640.76         17.8903
   640.90         17.8755
   641.04         17.8550
   641.18         17.8297
   641.32         17.8011
   641.46         17.7701
   641.60         17.7382
   641.74         17.7082
   641.88         17.6834
   642.02         17.6667
   642.16         17.6608
   642.30         17.6658
   642.44         17.6784
   642.58         17.6948
   642.72         17.7126
   642.86         17.7296
   643.00         17.7429
   643.14         17.7500
   643.28         17.7508
   643.42         17.7482
   643.56         17.7448
   643.70         17.7408
   643.84         17.7342
   643.98         17.7225
   644.12         17.7064
   644.26         17.6898
   644.40         17.6764
   644.54         17.6681
   644.68         17.6654
   644.82         17.6674
   644.96         17.6699
   645.10         17.6680
   645.24         17.6595
   645.38         17.6451
   645.52         17.6265
   645.66         17.6069
   645.80         17.5908
   645.94         17.5813
   646.08         17.5761
   646.22         17.5694
   646.36         17.5568
   646.50         17.5363
   646.64         17.5073
   646.78         17.4699
   646.92         17.4245
   647.06         17.3718
   647.20         17.3138
   647.34         17.2532
   647.48         17.1925
   647.62         17.1351
   647.76         17.0858
   647.90         17.0498
   648.04         17.0288
   648.18         17.0211
   648.32         17.0217
   648.46         17.0248
   648.60         17.0255
   648.74         17.0214
   648.88         17.0142
   649.02         17.0083
   649.16         17.0070
   649.30         17.0127
   649.44         17.0287
   649.58         17.0581
   649.72         17.1013
   649.86         17.1558
   650.00         17.2182
   650.14         17.2841
   650.28         17.3484
   650.42         17.4048
   650.56         17.4464
   650.70         17.4693
   650.84         17.4736
   650.98         17.4626
   651.12         17.4403
   651.26         17.4112
   651.40         17.3788
   651.54         17.3463
   651.68         17.3159
   651.82         17.2888
   651.96         17.2658
   652.10         17.2467
   652.24         17.2305
   652.38         17.2143
   652.52         17.1960
   652.66         17.1742
   652.80         17.1487
   652.94         17.1204
   653.08         17.0904
   653.22         17.0589
   653.36         17.0248
   653.50         16.9852
   653.64         16.9359
   653.78         16.8734
   653.92         16.7960
   654.06         16.7031
   654.20         16.5940
   654.34         16.4681
   654.48         16.3258
   654.62         16.1668
   654.76         15.9891
   654.90         15.7897
   655.04         15.5657
   655.18         15.3152
   655.32         15.0397
   655.46         14.7469
   655.60         14.4493
   655.74         14.1627
   655.88         13.9049
   656.02         13.6938
   656.16         13.5453
   656.30         13.4711
   656.44         13.4771
   656.58         13.5630
   656.72         13.7221
   656.86         13.9423
   657.00         14.2070
   657.14         14.4965
   657.28         14.7889
   657.42         15.0647
   657.56         15.3100
   657.70         15.5180
   657.84         15.6879
   657.98         15.8252
   658.12         15.9379
   658.26         16.0332
   658.40         16.1148
   658.54         16.1849
   658.68         16.2453
   658.82         16.2983
   658.96         16.3451
   659.10         16.3852
   659.24         16.4182
   659.38         16.4438
   659.52         16.4625
   659.66         16.4756
   659.80         16.4840
   659.94         16.4878
   660.08         16.4855
   660.22         16.4749
   660.36         16.4561
   660.50         16.4316
   660.64         16.4048
   660.78         16.3786
   660.92         16.3545
   661.06         16.3340
   661.20         16.3191
   661.34         16.3108
   661.48         16.3080
   661.62         16.3071
   661.76         16.3037
   661.90         16.2951
   662.04         16.2786
   662.18         16.2522
   662.32         16.2143
   662.46         16.1647
   662.60         16.1061
   662.74         16.0436
   662.88         15.9848
   663.02         15.9382
   663.16         15.9100
   663.30         15.9021
   663.44         15.9133
   663.58         15.9408
   663.72         15.9814
   663.86         16.0313
   664.00         16.0863
   664.14         16.1428
   664.28         16.1980
   664.42         16.2493
   664.56         16.2952
   664.70         16.3336
   664.84         16.3615
   664.98         16.3752
   665.12         16.3716
   665.26         16.3483
   665.40         16.3028
   665.54         16.2346
   665.68         16.1462
   665.82         16.0413
   665.96         15.9242
   666.10         15.8007
   666.24         15.6769
   666.38         15.5574
   666.52         15.4442
   666.66         15.3375
   666.80         15.2359
   666.94         15.1377
   667.08         15.0444
   667.22         14.9588
   667.36         14.8833
   667.50         14.8200
   667.64         14.7710
   667.78         14.7384
   667.92         14.7246
   668.06         14.7306
   668.20         14.7545
   668.34         14.7923
   668.48         14.8388
   668.62         14.8899
   668.76         14.9414
   668.90         14.9888
   669.04         15.0292
   669.18         15.0625
   669.32         15.0919
   669.46         15.1223
   669.60         15.1593
   669.74         15.2069
   669.88         15.2648
   670.02         15.3292
   670.16         15.3963
   670.30         15.4617
   670.44         15.5203
   670.58         15.5675
   670.72         15.5993
   670.86         15.6133
   671.00         15.6101
   671.14         15.5929
   671.28         15.5641
   671.42         15.5258
   671.56         15.4805
   671.70         15.4314
   671.84         15.3816
   671.98         15.3328
   672.12         15.2856
   672.26         15.2403
   672.40         15.1974
   672.54         15.1583
   672.68         15.1248
   672.82         15.0973
   672.96         15.0749
   673.10         15.0575
   673.24         15.0462
   673.38         15.0416
   673.52         15.0423
   673.66         15.0446
   673.80         15.0432
   673.94         15.0330
   674.08         15.0109
   674.22         14.9758
   674.36         14.9302
   674.50         14.8786
   674.64         14.8266
   674.78         14.7796
   674.92         14.7419
   675.06         14.7171
   675.20         14.7071
   675.34         14.7104
   675.48         14.7232
   675.62         14.7420
   675.76         14.7645
   675.90         14.7875
   676.04         14.8077
   676.18         14.8231
   676.32         14.8339
   676.46         14.8426
   676.60         14.8515
   676.74         14.8616
   676.88         14.8724
   677.02         14.8826
   677.16         14.8903
   677.30         14.8938
   677.44         14.8914
   677.58         14.8827
   677.72         14.8681
   677.86         14.8477
   678.00         14.8207
   678.14         14.7861
   678.28         14.7444
   678.42         14.6990
   678.56         14.6552
   678.70         14.6173
   678.84         14.5878
   678.98         14.5664
   679.12         14.5507
   679.26         14.5374
   679.40         14.5254
   679.54         14.5169
   679.68         14.5165
   679.82         14.5269
   679.96         14.5473
   680.10         14.5748
   680.24         14.6069
   680.38         14.6403
   680.52         14.6718
   680.66         14.6988
   680.80         14.7200
   680.94         14.7364
   681.08         14.7481
   681.22         14.7526
   681.36         14.7457
   681.50         14.7254
   681.64         14.6927
   681.78         14.6523
   681.92         14.6102
   682.06         14.5717
   682.20         14.5406
   682.34         14.5168
   682.48         14.4980
   682.62         14.4817
   682.76         14.4674
   682.90         14.4551
   683.04         14.4452
   683.18         14.4376
   683.32         14.4305
   683.46         14.4215
   683.60         14.4087
   683.74         14.3907
   683.88         14.3682
   684.02         14.3452
   684.16         14.3252
   684.30         14.3102
   684.44         14.3015
   684.58         14.2998
   684.72         14.3052
   684.86         14.3173
   685.00         14.3336
   685.14         14.3506
   685.28         14.3642
   685.42         14.3679
   685.56         14.3502
   685.70         14.2956
   685.84         14.1884
   685.98         14.0186
   686.12         13.7863
   686.26         13.5004
   686.40         13.1759
   686.54         12.8322
   686.68         12.4911
   686.82         12.1760
   686.96         11.9107
   687.10         11.7161
   687.24         11.6055
   687.38         11.5815
   687.52         11.6354
   687.66         11.7501
   687.80         11.9041
   687.94         12.0741
   688.08         12.2362
   688.22         12.3710
   688.36         12.4687
   688.50         12.5286
   688.64         12.5555
   688.78         12.5566
   688.92         12.5408
   689.06         12.5191
   689.20         12.5021
   689.34         12.4974
   689.48         12.5095
   689.62         12.5382
   689.76         12.5792
   689.90         12.6266
   690.04         12.6740
   690.18         12.7155
   690.32         12.7480
   690.46         12.7717
   690.60         12.7889
   690.74         12.8043
   690.88         12.8240
   691.02         12.8541
   691.16         12.8979
   691.30         12.9571
   691.44         13.0329
   691.58         13.1236
   691.72         13.2228
   691.86         13.3200
   692.00         13.4064
   692.14         13.4764
   692.28         13.5269
   692.42         13.5561
   692.56         13.5632
   692.70         13.5480
   692.84         13.5126
   692.98         13.4612
   693.12         13.3995
   693.26         13.3338
   693.40         13.2693
   693.54         13.2086
   693.68         13.1520
   693.82         13.1006
   693.96         13.0575
   694.10         13.0249
   694.24         13.0036
   694.38         12.9949
   694.52         13.0013
   694.66         13.0240
   694.80         13.0603
   694.94         13.1049
   695.08         13.1518
   695.22         13.1967
   695.36         13.2379
   695.50         13.2757
   695.64         13.3111
   695.78         13.3450
   695.92         13.3771
   696.06         13.4060
   696.20         13.4313
   696.34         13.4557
   696.48         13.4844
   696.62         13.5200
   696.76         13.5604
   696.90         13.6015
   697.04         13.6388
   697.18         13.6689
   697.32         13.6887
   697.46         13.6965
   697.60         13.6926
   697.74         13.6788
   697.88         13.6589
   698.02         13.6382
   698.16         13.6202
   698.30         13.6064
   698.44         13.5978
   698.58         13.5961
   698.72         13.6023
   698.86         13.6151
   699.00         13.6298
   699.14         13.6396
   699.28         13.6354
   699.42         13.6092
   699.56         13.5574
   699.70         13.4823
   699.84         13.3904
   699.98         13.2908
   700.12         13.1941
   700.26         13.1101
   700.40         13.0461
   700.54         13.0066
   700.68         12.9914
   700.82         12.9959
   700.96         13.0142
   701.10         13.0403
   701.24         13.0680
   701.38         13.0912
   701.52         13.1073
   701.66         13.1178
   701.80         13.1261
   701.94         13.1351
   702.08         13.1470
   702.22         13.1641
   702.36         13.1868
   702.50         13.2125
   702.64         13.2361
   702.78         13.2508
   702.92         13.2495
   703.06         13.2298
   703.20         13.1936
   703.34         13.1462
   703.48         13.0954
   703.62         13.0498
   703.76         13.0157
   703.90         12.9962
   704.04         12.9931
   704.18         13.0050
   704.32         13.0263
   704.46         13.0509
   704.60         13.0741
   704.74         13.0921
   704.88         13.1014
   705.02         13.0992
   705.16         13.0845
   705.30         13.0584
   705.44         13.0235
   705.58         12.9847
   705.72         12.9497
   705.86         12.9261
   706.00         12.9187
   706.14         12.9283
   706.28         12.9513
   706.42         12.9831
   706.56         13.0205
   706.70         13.0595
   706.84         13.0936
   706.98         13.1153
   707.12         13.1197
   707.26         13.1037
   707.40         13.0663
   707.54         13.0110
   707.68         12.9448
   707.82         12.8765
   707.96         12.8163
   708.10         12.7733
   708.24         12.7547
   708.38         12.7650
   708.52         12.8025
   708.66         12.8598
   708.80         12.9279
   708.94         12.9983
   709.08         13.0623
   709.22         13.1122
   709.36         13.1416
   709.50         13.1477
   709.64         13.1330
   709.78         13.1031
   709.92         13.0651
   710.06         13.0257
   710.20         12.9902
   710.34         12.9614
   710.48         12.9403
   710.62         12.9279
   710.76         12.9235
   710.90         12.9250
   711.04         12.9304
   711.18         12.9390
   711.32         12.9510
   711.46         12.9669
   711.60         12.9866
   711.74         13.0105
   711.88         13.0397
   712.02         13.0764
   712.16         13.1234
   712.30         13.1826
   712.44         13.2516
   712.58         13.3248
   712.72         13.3951
   712.86         13.4553
   713.00         13.4985
   713.14         13.5196
   713.28         13.5173
   713.42         13.4938
   713.56         13.4547
   713.70         13.4069
   713.84         13.3568
   713.98         13.3086
   714.12         13.2644
   714.26         13.2260
   714.40         13.1958
   714.54         13.1770
   714.68         13.1719
   714.82         13.1787
   714.96         13.1915
   715.10         13.2044
   715.24         13.2140
   715.38         13.2186
   715.52         13.2163
   715.66         13.2049
   715.80         13.1829
   715.94         13.1507
   716.08         13.1073
   716.22         13.0494
   716.36         12.9733
   716.50         12.8771
   716.64         12.7631
   716.78         12.6375
   716.92         12.5082
   717.06         12.3814
   717.20         12.2603
   717.34         12.1433
   717.48         12.0269
   717.62         11.9122
   717.76         11.8041
   717.90         11.7073
   718.04         11.6246
   718.18         11.5594
   718.32         11.5151
   718.46         11.4948
   718.60         11.5002
   718.74         11.5284
   718.88         11.5723
   719.02         11.6249
   719.16         11.6814
   719.30         11.7381
   719.44         11.7899
   719.58         11.8313
   719.72         11.8586
   719.86         11.8727
   720.00         11.8799
   720.14         11.8926
   720.28         11.9233
   720.42         11.9789
   720.56         12.0592
   720.70         12.1619
   720.84         12.2841
   720.98         12.4196
   721.12         12.5593
   721.26         12.6925
   721.40         12.8076
   721.54         12.8972
   721.68         12.9609
   721.82         13.0003
   721.96         13.0149
   722.10         13.0036
   722.24         12.9663
   722.38         12.9060
   722.52         12.8297
   722.66         12.7473
   722.80         12.6659
   722.94         12.5881
   723.08         12.5155
   723.22         12.4498
   723.36         12.3932
   723.50         12.3463
   723.64         12.3083
   723.78         12.2786
   723.92         12.2550
   724.06         12.2331
   724.20         12.2102
   724.34         12.1869
   724.48         12.1626
   724.62         12.1352
   724.76         12.1058
   724.90         12.0805
   725.04         12.0672
   725.18         12.0708
   725.32         12.0903
   725.46         12.1214
   725.60         12.1614
   725.74         12.2095
   725.88         12.2647
   726.02         12.3253
   726.16         12.3874
   726.30         12.4440
   726.44         12.4853
   726.58         12.5007
   726.72         12.4856
   726.86         12.4447
   727.00         12.3869
   727.14         12.3192
   727.28         12.2477
   727.42         12.1780
   727.56         12.1136
   727.70         12.0560
   727.84         12.0066
   727.98         11.9675
   728.12         11.9420
   728.26         11.9334
   728.40         11.9418
   728.54         11.9630
   728.68         11.9908
   728.82         12.0177
   728.96         12.0363
   729.10         12.0407
   729.24         12.0282
   729.38         12.0008
   729.52         11.9631
   729.66         11.9168
   729.80         11.8600
   729.94         11.7899
   730.08         11.7067
   730.22         11.6154
   730.36         11.5247
   730.50         11.4429
   730.64         11.3768
   730.78         11.3330
   730.92         11.3169
   731.06         11.3294
   731.20         11.3677
   731.34         11.4268
   731.48         11.5014
   731.62         11.5863
   731.76         11.6765
   731.90         11.7676
   732.04         11.8548
   732.18         11.9316
   732.32         11.9895
   732.46         12.0232
   732.60         12.0331
   732.74         12.0237
   732.88         12.0018
   733.02         11.9724
   733.16         11.9379
   733.30         11.8995
   733.44         11.8584
   733.58         11.8150
   733.72         11.7701
   733.86         11.7246
   734.00         11.6792
   734.14         11.6355
   734.28         11.5959
   734.42         11.5623
   734.56         11.5369
   734.70         11.5222
   734.84         11.5205
   734.98         11.5321
   735.12         11.5557
   735.26         11.5882
   735.40         11.6251
   735.54         11.6617
   735.68         11.6944
   735.82         11.7220
   735.96         11.7462
   736.10         11.7693
   736.24         11.7925
   736.38         11.8156
   736.52         11.8356
   736.66         11.8480
   736.80         11.8487
   736.94         11.8340
   737.08         11.8007
   737.22         11.7479
   737.36         11.6761
   737.50         11.5873
   737.64         11.4849
   737.78         11.3740
   737.92         11.2625
   738.06         11.1591
   738.20         11.0726
   738.34         11.0115
   738.48         10.9812
   738.62         10.9825
   738.76         11.0120
   738.90         11.0637
   739.04         11.1299
   739.18         11.2010
   739.32         11.2676
   739.46         11.3217
   739.60         11.3572
   739.74         11.3697
   739.88         11.3555
   740.02         11.3127
   740.16         11.2422
   740.30         11.1489
   740.44         11.0429
   740.58         10.9377
   740.72         10.8463
   740.86         10.7780
   741.00         10.7372
   741.14         10.7242
   741.28         10.7370
   741.42         10.7708
   741.56         10.8192
   741.70         10.8753
   741.84         10.9316
   741.98         10.9824
   742.12         11.0241
   742.26         11.0540
   742.40         11.0709
   742.54         11.0771
   742.68         11.0770
   742.82         11.0751
   742.96         11.0751
   743.10         11.0770
   743.24         11.0771
   743.38         11.0709
   743.52         11.0540
   743.66         11.0241
   743.80         10.9824
   743.94         10.9316
   744.08         10.8753
   744.22         10.8192
