# File HD39136
# Wavelength [nm]    Normalized Amplitude
   349.70         62.1448
   349.84         62.2195
   349.98         62.2911
   350.12         62.3583
   350.26         62.4146
   350.40         62.4531
   350.54         62.4721
   350.68         62.4757
   350.82         62.4719
   350.96         62.4674
   351.10         62.4656
   351.24         62.4674
   351.38         62.4719
   351.52         62.4757
   351.66         62.4721
   351.80         62.4531
   351.94         62.4146
   352.08         62.3583
   352.22         62.2911
   352.36         62.2195
   352.50         62.1448
   352.64         62.0621
   352.78         61.9664
   352.92         61.8605
   353.06         61.7573
   353.20         61.6712
   353.34         61.6144
   353.48         61.5941
   353.62         61.6076
   353.76         61.6430
   353.90         61.6822
   354.04         61.7057
   354.18         61.6952
   354.32         61.6355
   354.46         61.5201
   354.60         61.3520
   354.74         61.1400
   354.88         60.9002
   355.02         60.6548
   355.16         60.4278
   355.30         60.2429
   355.44         60.1182
   355.58         60.0678
   355.72         60.0972
   355.86         60.1939
   356.00         60.3285
   356.14         60.4627
   356.28         60.5566
   356.42         60.5792
   356.56         60.5151
   356.70         60.3650
   356.84         60.1407
   356.98         59.8624
   357.12         59.5554
   357.26         59.2459
   357.40         58.9590
   357.54         58.7167
   357.68         58.5324
   357.82         58.4068
   357.96         58.3351
   358.10         58.3096
   358.24         58.3147
   358.38         58.3242
   358.52         58.3090
   358.66         58.2510
   358.80         58.1466
   358.94         58.0018
   359.08         57.8310
   359.22         57.6524
   359.36         57.4830
   359.50         57.3323
   359.64         57.2062
   359.78         57.1091
   359.92         57.0434
   360.06         57.0104
   360.20         57.0098
   360.34         57.0381
   360.48         57.0883
   360.62         57.1488
   360.76         57.2047
   360.90         57.2416
   361.04         57.2542
   361.18         57.2465
   361.32         57.2247
   361.46         57.1931
   361.60         57.1547
   361.74         57.1141
   361.88         57.0782
   362.02         57.0546
   362.16         57.0434
   362.30         57.0363
   362.44         57.0237
   362.58         56.9998
   362.72         56.9641
   362.86         56.9189
   363.00         56.8669
   363.14         56.8108
   363.28         56.7536
   363.42         56.7012
   363.56         56.6638
   363.70         56.6547
   363.84         56.6839
   363.98         56.7539
   364.12         56.8574
   364.26         56.9798
   364.40         57.1058
   364.54         57.2193
   364.68         57.3017
   364.82         57.3375
   364.96         57.3259
   365.10         57.2794
   365.24         57.2106
   365.38         57.1291
   365.52         57.0443
   365.66         56.9606
   365.80         56.8758
   365.94         56.7873
   366.08         56.6977
   366.22         56.6156
   366.36         56.5490
   366.50         56.4956
   366.64         56.4449
   366.78         56.3890
   366.92         56.3280
   367.06         56.2699
   367.20         56.2268
   367.34         56.2107
   367.48         56.2274
   367.62         56.2741
   367.76         56.3451
   367.90         56.4330
   368.04         56.5322
   368.18         56.6387
   368.32         56.7513
   368.46         56.8722
   368.60         57.0024
   368.74         57.1373
   368.88         57.2673
   369.02         57.3795
   369.16         57.4575
   369.30         57.4878
   369.44         57.4693
   369.58         57.4151
   369.72         57.3497
   369.86         57.2926
   370.00         57.2421
   370.14         57.1791
   370.28         57.0915
   370.42         56.9880
   370.56         56.8947
   370.70         56.8423
   370.84         56.8475
   370.98         56.8998
   371.12         56.9676
   371.26         57.0217
   371.40         57.0586
   371.54         57.1058
   371.68         57.2089
   371.82         57.4180
   371.96         57.7665
   372.10         58.2491
   372.24         58.8175
   372.38         59.3967
   372.52         59.9130
   372.66         60.3273
   372.80         60.6505
   372.94         60.9363
   373.08         61.2548
   373.22         61.6620
   373.36         62.1811
   373.50         62.7940
   373.64         63.4482
   373.78         64.0718
   373.92         64.5928
   374.06         64.9551
   374.20         65.1239
   374.34         65.0897
   374.48         64.8704
   374.62         64.5028
   374.76         64.0569
   374.90         63.6525
   375.04         63.4338
   375.18         63.5278
   375.32         64.0057
   375.46         64.8611
   375.60         66.0055
   375.74         67.2706
   375.88         68.4308
   376.02         69.2590
   376.16         69.5865
   376.30         69.3495
   376.44         68.6114
   376.58         67.5494
   376.72         66.4115
   376.86         65.4608
   377.00         64.9265
   377.14         64.9695
   377.28         65.6675
   377.42         67.0206
   377.56         68.9518
   377.70         71.3123
   377.84         73.9038
   377.98         76.4972
   378.12         78.8481
   378.26         80.7151
   378.40         81.8901
   378.54         82.2362
   378.68         81.7151
   378.82         80.3938
   378.96         78.4301
   379.10         76.0466
   379.24         73.5030
   379.38         71.0705
   379.52         69.0055
   379.66         67.5188
   379.80         66.7616
   379.94         66.8220
   380.08         67.7147
   380.22         69.3706
   380.36         71.6328
   380.50         74.2711
   380.64         77.0114
   380.78         79.5745
   380.92         81.7279
   381.06         83.3280
   381.20         84.3331
   381.34         84.7930
   381.48         84.8152
   381.62         84.5172
   381.76         83.9933
   381.90         83.2989
   382.04         82.4424
   382.18         81.3862
   382.32         80.0684
   382.46         78.4484
   382.60         76.5368
   382.74         74.3993
   382.88         72.1500
   383.02         69.9405
   383.16         67.9492
   383.30         66.3611
   383.44         65.3482
   383.58         65.0467
   383.72         65.5269
   383.86         66.7721
   384.00         68.6774
   384.14         71.0662
   384.28         73.7214
   384.42         76.4199
   384.56         78.9604
   384.70         81.1837
   384.84         82.9895
   384.98         84.3509
   385.12         85.3117
   385.26         85.9556
   385.40         86.3647
   385.54         86.5940
   385.68         86.6745
   385.82         86.6270
   385.96         86.4689
   386.10         86.2142
   386.24         85.8736
   386.38         85.4595
   386.52         84.9857
   386.66         84.4635
   386.80         83.8980
   386.94         83.2855
   387.08         82.6106
   387.22         81.8399
   387.36         80.9141
   387.50         79.7555
   387.64         78.2888
   387.78         76.4702
   387.92         74.3083
   388.06         71.8733
   388.20         69.2986
   388.34         66.7695
   388.48         64.4980
   388.62         62.6880
   388.76         61.5087
   388.90         61.0771
   389.04         61.4424
   389.18         62.5773
   389.32         64.3807
   389.46         66.6912
   389.60         69.3105
   389.74         72.0283
   389.88         74.6446
   390.02         76.9935
   390.16         78.9645
   390.30         80.5156
   390.44         81.6681
   390.58         82.4803
   390.72         83.0195
   390.86         83.3480
   391.00         83.5168
   391.14         83.5617
   391.28         83.5034
   391.42         83.3554
   391.56         83.1303
   391.70         82.8423
   391.84         82.5076
   391.98         82.1390
   392.12         81.7447
   392.26         81.3359
   392.40         80.9326
   392.54         80.5578
   392.68         80.2307
   392.82         79.9677
   392.96         79.7860
   393.10         79.6993
   393.24         79.7129
   393.38         79.8251
   393.52         80.0268
   393.66         80.3019
   393.80         80.6242
   393.94         80.9618
   394.08         81.2829
   394.22         81.5569
   394.36         81.7515
   394.50         81.8333
   394.64         81.7727
   394.78         81.5531
   394.92         81.1758
   395.06         80.6467
   395.20         79.9575
   395.34         79.0848
   395.48         77.9923
   395.62         76.6310
   395.76         74.9520
   395.90         72.9333
   396.04         70.6060
   396.18         68.0616
   396.32         65.4435
   396.46         62.9234
   396.60         60.6795
   396.74         58.8804
   396.88         57.6651
   397.02         57.1243
   397.16         57.2906
   397.30         58.1366
   397.44         59.5818
   397.58         61.4967
   397.72         63.7093
   397.86         66.0265
   398.00         68.2626
   398.14         70.2637
   398.28         71.9287
   398.42         73.2216
   398.56         74.1636
   398.70         74.8135
   398.84         75.2441
   398.98         75.5216
   399.12         75.6939
   399.26         75.7918
   399.40         75.8328
   399.54         75.8216
   399.68         75.7534
   399.82         75.6220
   399.96         75.4319
   400.10         75.1983
   400.24         74.9358
   400.38         74.6580
   400.52         74.3822
   400.66         74.1279
   400.80         73.9105
   400.94         73.7347
   401.08         73.5869
   401.22         73.4347
   401.36         73.2367
   401.50         72.9526
   401.64         72.5544
   401.78         72.0390
   401.92         71.4314
   402.06         70.7780
   402.20         70.1392
   402.34         69.5819
   402.48         69.1702
   402.62         68.9548
   402.76         68.9602
   402.90         69.1806
   403.04         69.5869
   403.18         70.1323
   403.32         70.7551
   403.46         71.3872
   403.60         71.9648
   403.74         72.4373
   403.88         72.7779
   404.02         72.9882
   404.16         73.0885
   404.30         73.1092
   404.44         73.0843
   404.58         73.0419
   404.72         72.9980
   404.86         72.9599
   405.00         72.9277
   405.14         72.8973
   405.28         72.8646
   405.42         72.8274
   405.56         72.7843
   405.70         72.7344
   405.84         72.6772
   405.98         72.6098
   406.12         72.5281
   406.26         72.4292
   406.40         72.3112
   406.54         72.1745
   406.68         72.0212
   406.82         71.8554
   406.96         71.6848
   407.10         71.5153
   407.24         71.3451
   407.38         71.1676
   407.52         70.9759
   407.66         70.7636
   407.80         70.5256
   407.94         70.2585
   408.08         69.9553
   408.22         69.5985
   408.36         69.1580
   408.50         68.5945
   408.64         67.8614
   408.78         66.9087
   408.92         65.6908
   409.06         64.1814
   409.20         62.3920
   409.34         60.3843
   409.48         58.2674
   409.62         56.1824
   409.76         54.2837
   409.90         52.7243
   410.04         51.6392
   410.18         51.1259
   410.32         51.2332
   410.46         51.9527
   410.60         53.2180
   410.74         54.9116
   410.88         56.8789
   411.02         58.9500
   411.16         60.9637
   411.30         62.7844
   411.44         64.3146
   411.58         65.5065
   411.72         66.3655
   411.86         66.9350
   412.00         67.2765
   412.14         67.4531
   412.28         67.5211
   412.42         67.5308
   412.56         67.5236
   412.70         67.5251
   412.84         67.5421
   412.98         67.5640
   413.12         67.5664
   413.26         67.5213
   413.40         67.4107
   413.54         67.2343
   413.68         67.0082
   413.82         66.7593
   413.96         66.5156
   414.10         66.2983
   414.24         66.1244
   414.38         66.0102
   414.52         65.9709
   414.66         66.0169
   414.80         66.1460
   414.94         66.3400
   415.08         66.5657
   415.22         66.7834
   415.36         66.9575
   415.50         67.0630
   415.64         67.0888
   415.78         67.0392
   415.92         66.9328
   416.06         66.7979
   416.20         66.6622
   416.34         66.5456
   416.48         66.4608
   416.62         66.4113
   416.76         66.3940
   416.90         66.4035
   417.04         66.4333
   417.18         66.4745
   417.32         66.5130
   417.46         66.5335
   417.60         66.5273
   417.74         66.4906
   417.88         66.4215
   418.02         66.3204
   418.16         66.1913
   418.30         66.0420
   418.44         65.8809
   418.58         65.7142
   418.72         65.5481
   418.86         65.3874
   419.00         65.2355
   419.14         65.0941
   419.28         64.9614
   419.42         64.8347
   419.56         64.7144
   419.70         64.6026
   419.84         64.5010
   419.98         64.4095
   420.12         64.3295
   420.26         64.2627
   420.40         64.2075
   420.54         64.1628
   420.68         64.1267
   420.82         64.0939
   420.96         64.0553
   421.10         64.0014
   421.24         63.9260
   421.38         63.8292
   421.52         63.7156
   421.66         63.5930
   421.80         63.4704
   421.94         63.3537
   422.08         63.2452
   422.22         63.1460
   422.36         63.0577
   422.50         62.9824
   422.64         62.9227
   422.78         62.8789
   422.92         62.8465
   423.06         62.8181
   423.20         62.7875
   423.34         62.7501
   423.48         62.7056
   423.62         62.6564
   423.76         62.6030
   423.90         62.5438
   424.04         62.4788
   424.18         62.4092
   424.32         62.3363
   424.46         62.2606
   424.60         62.1815
   424.74         62.0982
   424.88         62.0096
   425.02         61.9133
   425.16         61.8045
   425.30         61.6782
   425.44         61.5296
   425.58         61.3530
   425.72         61.1473
   425.86         60.9196
   426.00         60.6820
   426.14         60.4467
   426.28         60.2267
   426.42         60.0355
   426.56         59.8829
   426.70         59.7732
   426.84         59.7043
   426.98         59.6691
   427.12         59.6589
   427.26         59.6642
   427.40         59.6754
   427.54         59.6858
   427.68         59.6913
   427.82         59.6887
   427.96         59.6785
   428.10         59.6658
   428.24         59.6599
   428.38         59.6720
   428.52         59.7096
   428.66         59.7721
   428.80         59.8549
   428.94         59.9525
   429.08         60.0554
   429.22         60.1503
   429.36         60.2236
   429.50         60.2648
   429.64         60.2662
   429.78         60.2248
   429.92         60.1451
   430.06         60.0381
   430.20         59.9162
   430.34         59.7881
   430.48         59.6600
   430.62         59.5395
   430.76         59.4329
   430.90         59.3420
   431.04         59.2629
   431.18         59.1885
   431.32         59.1104
   431.46         59.0194
   431.60         58.9041
   431.74         58.7523
   431.88         58.5536
   432.02         58.2976
   432.16         57.9721
   432.30         57.5619
   432.44         57.0453
   432.58         56.3914
   432.72         55.5589
   432.86         54.5055
   433.00         53.2092
   433.14         51.6872
   433.28         50.0010
   433.42         48.2468
   433.56         46.5393
   433.70         44.9997
   433.84         43.7452
   433.98         42.8758
   434.12         42.4601
   434.26         42.5251
   434.40         43.0550
   434.54         43.9959
   434.68         45.2623
   434.82         46.7475
   434.96         48.3353
   435.10         49.9119
   435.24         51.3795
   435.38         52.6665
   435.52         53.7367
   435.66         54.5889
   435.80         55.2454
   435.94         55.7384
   436.08         56.0981
   436.22         56.3503
   436.36         56.5181
   436.50         56.6211
   436.64         56.6735
   436.78         56.6866
   436.92         56.6728
   437.06         56.6463
   437.20         56.6189
   437.34         56.5935
   437.48         56.5607
   437.62         56.5015
   437.76         56.3968
   437.90         56.2374
   438.04         56.0282
   438.18         55.7867
   438.32         55.5380
   438.46         55.3078
   438.60         55.1170
   438.74         54.9797
   438.88         54.9042
   439.02         54.8924
   439.16         54.9407
   439.30         55.0402
   439.44         55.1767
   439.58         55.3300
   439.72         55.4756
   439.86         55.5874
   440.00         55.6454
   440.14         55.6410
   440.28         55.5801
   440.42         55.4791
   440.56         55.3570
   440.70         55.2272
   440.84         55.0957
   440.98         54.9636
   441.12         54.8289
   441.26         54.6898
   441.40         54.5463
   441.54         54.3980
   441.68         54.2426
   441.82         54.0777
   441.96         53.9013
   442.10         53.7128
   442.24         53.5157
   442.38         53.3169
   442.52         53.1255
   442.66         52.9519
   442.80         52.8063
   442.94         52.6950
   443.08         52.6210
   443.22         52.5868
   443.36         52.5949
   443.50         52.6453
   443.64         52.7337
   443.78         52.8511
   443.92         52.9871
   444.06         53.1331
   444.20         53.2837
   444.34         53.4351
   444.48         53.5824
   444.62         53.7200
   444.76         53.8432
   444.90         53.9476
   445.04         54.0293
   445.18         54.0843
   445.32         54.1082
   445.46         54.0950
   445.60         54.0345
   445.74         53.9103
   445.88         53.7035
   446.02         53.3970
   446.16         52.9848
   446.30         52.4789
   446.44         51.9102
   446.58         51.3218
   446.72         50.7585
   446.86         50.2581
   447.00         49.8478
   447.14         49.5457
   447.28         49.3641
   447.42         49.3107
   447.56         49.3840
   447.70         49.5712
   447.84         49.8486
   447.98         50.1841
   448.12         50.5401
   448.26         50.8779
   448.40         51.1662
   448.54         51.3893
   448.68         51.5459
   448.82         51.6451
   448.96         51.6984
   449.10         51.7131
   449.24         51.6919
   449.38         51.6365
   449.52         51.5504
   449.66         51.4415
   449.80         51.3205
   449.94         51.2002
   450.08         51.0936
   450.22         51.0099
   450.36         50.9521
   450.50         50.9182
   450.64         50.9041
   450.78         50.9068
   450.92         50.9244
   451.06         50.9567
   451.20         51.0045
   451.34         51.0673
   451.48         51.1418
   451.62         51.2211
   451.76         51.2953
   451.90         51.3523
   452.04         51.3808
   452.18         51.3719
   452.32         51.3221
   452.46         51.2331
   452.60         51.1098
   452.74         50.9595
   452.88         50.7903
   453.02         50.6111
   453.16         50.4328
   453.30         50.2677
   453.44         50.1259
   453.58         50.0115
   453.72         49.9237
   453.86         49.8585
   454.00         49.8088
   454.14         49.7669
   454.28         49.7279
   454.42         49.6904
   454.56         49.6554
   454.70         49.6230
   454.84         49.5921
   454.98         49.5617
   455.12         49.5306
   455.26         49.4981
   455.40         49.4646
   455.54         49.4300
   455.68         49.3914
   455.82         49.3460
   455.96         49.2942
   456.10         49.2387
   456.24         49.1800
   456.38         49.1190
   456.52         49.0595
   456.66         49.0068
   456.80         48.9652
   456.94         48.9341
   457.08         48.9087
   457.22         48.8843
   457.36         48.8575
   457.50         48.8267
   457.64         48.7918
   457.78         48.7537
   457.92         48.7155
   458.06         48.6800
   458.20         48.6476
   458.34         48.6175
   458.48         48.5911
   458.62         48.5704
   458.76         48.5536
   458.90         48.5355
   459.04         48.5104
   459.18         48.4732
   459.32         48.4204
   459.46         48.3509
   459.60         48.2679
   459.74         48.1768
   459.88         48.0841
   460.02         47.9932
   460.16         47.9062
   460.30         47.8284
   460.44         47.7646
   460.58         47.7155
   460.72         47.6784
   460.86         47.6491
   461.00         47.6251
   461.14         47.6061
   461.28         47.5903
   461.42         47.5735
   461.56         47.5506
   461.70         47.5183
   461.84         47.4753
   461.98         47.4213
   462.12         47.3581
   462.26         47.2885
   462.40         47.2131
   462.54         47.1331
   462.68         47.0512
   462.82         46.9730
   462.96         46.9033
   463.10         46.8442
   463.24         46.7986
   463.38         46.7719
   463.52         46.7669
   463.66         46.7826
   463.80         46.8138
   463.94         46.8506
   464.08         46.8817
   464.22         46.9004
   464.36         46.9045
   464.50         46.8934
   464.64         46.8661
   464.78         46.8219
   464.92         46.7599
   465.06         46.6799
   465.20         46.5851
   465.34         46.4813
   465.48         46.3747
   465.62         46.2704
   465.76         46.1742
   465.90         46.0914
   466.04         46.0259
   466.18         45.9770
   466.32         45.9419
   466.46         45.9193
   466.60         45.9096
   466.74         45.9115
   466.88         45.9227
   467.02         45.9382
   467.16         45.9514
   467.30         45.9579
   467.44         45.9577
   467.58         45.9522
   467.72         45.9430
   467.86         45.9308
   468.00         45.9151
   468.14         45.8959
   468.28         45.8719
   468.42         45.8425
   468.56         45.8092
   468.70         45.7732
   468.84         45.7323
   468.98         45.6842
   469.12         45.6299
   469.26         45.5707
   469.40         45.5078
   469.54         45.4470
   469.68         45.3948
   469.82         45.3533
   469.96         45.3204
   470.10         45.2888
   470.24         45.2479
   470.38         45.1885
   470.52         45.1077
   470.66         45.0087
   470.80         44.8949
   470.94         44.7689
   471.08         44.6352
   471.22         44.4999
   471.36         44.3678
   471.50         44.2407
   471.64         44.1215
   471.78         44.0142
   471.92         43.9208
   472.06         43.8420
   472.20         43.7782
   472.34         43.7283
   472.48         43.6888
   472.62         43.6568
   472.76         43.6343
   472.90         43.6272
   473.04         43.6418
   473.18         43.6796
   473.32         43.7349
   473.46         43.7968
   473.60         43.8544
   473.74         43.9001
   473.88         43.9282
   474.02         43.9332
   474.16         43.9110
   474.30         43.8618
   474.44         43.7881
   474.58         43.6935
   474.72         43.5848
   474.86         43.4714
   475.00         43.3605
   475.14         43.2547
   475.28         43.1559
   475.42         43.0654
   475.56         42.9794
   475.70         42.8900
   475.84         42.7901
   475.98         42.6778
   476.12         42.5539
   476.26         42.4210
   476.40         42.2845
   476.54         42.1491
   476.68         42.0171
   476.82         41.8911
   476.96         41.7752
   477.10         41.6737
   477.24         41.5897
   477.38         41.5238
   477.52         41.4736
   477.66         41.4337
   477.80         41.3987
   477.94         41.3658
   478.08         41.3348
   478.22         41.3085
   478.36         41.2905
   478.50         41.2840
   478.64         41.2895
   478.78         41.3036
   478.92         41.3214
   479.06         41.3375
   479.20         41.3434
   479.34         41.3312
   479.48         41.2982
   479.62         41.2449
   479.76         41.1725
   479.90         41.0834
   480.04         40.9842
   480.18         40.8834
   480.32         40.7878
   480.46         40.7019
   480.60         40.6292
   480.74         40.5712
   480.88         40.5256
   481.02         40.4876
   481.16         40.4517
   481.30         40.4130
   481.44         40.3692
   481.58         40.3219
   481.72         40.2732
   481.86         40.2242
   482.00         40.1778
   482.14         40.1386
   482.28         40.1093
   482.42         40.0907
   482.56         40.0836
   482.70         40.0891
   482.84         40.1054
   482.98         40.1260
   483.12         40.1420
   483.26         40.1464
   483.40         40.1348
   483.54         40.1048
   483.68         40.0534
   483.82         39.9750
   483.96         39.8631
   484.10         39.7103
   484.24         39.5074
   484.38         39.2428
   484.52         38.9034
   484.66         38.4732
   484.80         37.9321
   484.94         37.2601
   485.08         36.4480
   485.22         35.5050
   485.36         34.4603
   485.50         33.3625
   485.64         32.2765
   485.78         31.2770
   485.92         30.4385
   486.06         29.8220
   486.20         29.4677
   486.34         29.3928
   486.48         29.5919
   486.62         30.0377
   486.76         30.6836
   486.90         31.4690
   487.04         32.3255
   487.18         33.1844
   487.32         33.9861
   487.46         34.6894
   487.60         35.2780
   487.74         35.7568
   487.88         36.1455
   488.02         36.4703
   488.16         36.7568
   488.30         37.0230
   488.44         37.2775
   488.58         37.5197
   488.72         37.7424
   488.86         37.9371
   489.00         38.0958
   489.14         38.2108
   489.28         38.2782
   489.42         38.2993
   489.56         38.2803
   489.70         38.2315
   489.84         38.1700
   489.98         38.1163
   490.12         38.0871
   490.26         38.0920
   490.40         38.1338
   490.54         38.2090
   490.68         38.3073
   490.82         38.4110
   490.96         38.4952
   491.10         38.5341
   491.24         38.5091
   491.38         38.4144
   491.52         38.2567
   491.66         38.0520
   491.80         37.8227
   491.94         37.5973
   492.08         37.4036
   492.22         37.2627
   492.36         37.1877
   492.50         37.1836
   492.64         37.2430
   492.78         37.3485
   492.92         37.4797
   493.06         37.6163
   493.20         37.7410
   493.34         37.8400
   493.48         37.9034
   493.62         37.9273
   493.76         37.9183
   493.90         37.8924
   494.04         37.8667
   494.18         37.8530
   494.32         37.8573
   494.46         37.8801
   494.60         37.9175
   494.74         37.9607
   494.88         37.9991
   495.02         38.0219
   495.16         38.0178
   495.30         37.9783
   495.44         37.8994
   495.58         37.7815
   495.72         37.6299
   495.86         37.4534
   496.00         37.2613
   496.14         37.0623
   496.28         36.8648
   496.42         36.6761
   496.56         36.5020
   496.70         36.3453
   496.84         36.2079
   496.98         36.0902
   497.12         35.9894
   497.26         35.9039
   497.40         35.8347
   497.54         35.7819
   497.68         35.7441
   497.82         35.7211
   497.96         35.7153
   498.10         35.7267
   498.24         35.7525
   498.38         35.7872
   498.52         35.8220
   498.66         35.8477
   498.80         35.8575
   498.94         35.8485
   499.08         35.8211
   499.22         35.7800
   499.36         35.7305
   499.50         35.6745
   499.64         35.6125
   499.78         35.5470
   499.92         35.4833
   500.06         35.4228
   500.20         35.3600
   500.34         35.2884
   500.48         35.2049
   500.62         35.1089
   500.76         35.0025
   500.90         34.8906
   501.04         34.7799
   501.18         34.6773
   501.32         34.5905
   501.46         34.5257
   501.60         34.4865
   501.74         34.4736
   501.88         34.4843
   502.02         34.5108
   502.16         34.5442
   502.30         34.5789
   502.44         34.6102
   502.58         34.6321
   502.72         34.6381
   502.86         34.6256
   503.00         34.5981
   503.14         34.5621
   503.28         34.5238
   503.42         34.4892
   503.56         34.4611
   503.70         34.4398
   503.84         34.4256
   503.98         34.4202
   504.12         34.4227
   504.26         34.4287
   504.40         34.4322
   504.54         34.4281
   504.68         34.4130
   504.82         34.3870
   504.96         34.3535
   505.10         34.3159
   505.24         34.2775
   505.38         34.2421
   505.52         34.2139
   505.66         34.1972
   505.80         34.1936
   505.94         34.2005
   506.08         34.2107
   506.22         34.2151
   506.36         34.2071
   506.50         34.1856
   506.64         34.1526
   506.78         34.1097
   506.92         34.0565
   507.06         33.9926
   507.20         33.9199
   507.34         33.8408
   507.48         33.7585
   507.62         33.6764
   507.76         33.5966
   507.90         33.5201
   508.04         33.4474
   508.18         33.3801
   508.32         33.3210
   508.46         33.2711
   508.60         33.2299
   508.74         33.1981
   508.88         33.1780
   509.02         33.1710
   509.16         33.1769
   509.30         33.1931
   509.44         33.2111
   509.58         33.2202
   509.72         33.2135
   509.86         33.1890
   510.00         33.1470
   510.14         33.0892
   510.28         33.0178
   510.42         32.9363
   510.56         32.8495
   510.70         32.7649
   510.84         32.6933
   510.98         32.6433
   511.12         32.6184
   511.26         32.6182
   511.40         32.6401
   511.54         32.6800
   511.68         32.7322
   511.82         32.7900
   511.96         32.8439
   512.10         32.8830
   512.24         32.8999
   512.38         32.8926
   512.52         32.8627
   512.66         32.8132
   512.80         32.7482
   512.94         32.6743
   513.08         32.6009
   513.22         32.5377
   513.36         32.4910
   513.50         32.4615
   513.64         32.4471
   513.78         32.4447
   513.92         32.4507
   514.06         32.4614
   514.20         32.4735
   514.34         32.4823
   514.48         32.4829
   514.62         32.4723
   514.76         32.4498
   514.90         32.4169
   515.04         32.3766
   515.18         32.3330
   515.32         32.2903
   515.46         32.2514
   515.60         32.2174
   515.74         32.1872
   515.88         32.1567
   516.02         32.1199
   516.16         32.0734
   516.30         32.0164
   516.44         31.9479
   516.58         31.8676
   516.72         31.7792
   516.86         31.6886
   517.00         31.6017
   517.14         31.5260
   517.28         31.4674
   517.42         31.4285
   517.56         31.4104
   517.70         31.4114
   517.84         31.4261
   517.98         31.4460
   518.12         31.4624
   518.26         31.4677
   518.40         31.4572
   518.54         31.4315
   518.68         31.3947
   518.82         31.3513
   518.96         31.3059
   519.10         31.2625
   519.24         31.2255
   519.38         31.1990
   519.52         31.1848
   519.66         31.1841
   519.80         31.1974
   519.94         31.2224
   520.08         31.2536
   520.22         31.2841
   520.36         31.3075
   520.50         31.3192
   520.64         31.3172
   520.78         31.3039
   520.92         31.2839
   521.06         31.2622
   521.20         31.2412
   521.34         31.2193
   521.48         31.1933
   521.62         31.1607
   521.76         31.1208
   521.90         31.0736
   522.04         31.0199
   522.18         30.9625
   522.32         30.9038
   522.46         30.8434
   522.60         30.7801
   522.74         30.7144
   522.88         30.6498
   523.02         30.5884
   523.16         30.5305
   523.30         30.4761
   523.44         30.4252
   523.58         30.3764
   523.72         30.3272
   523.86         30.2771
   524.00         30.2253
   524.14         30.1709
   524.28         30.1148
   524.42         30.0601
   524.56         30.0103
   524.70         29.9702
   524.84         29.9443
   524.98         29.9335
   525.12         29.9360
   525.26         29.9498
   525.40         29.9732
   525.54         30.0033
   525.68         30.0357
   525.82         30.0681
   525.96         30.0997
   526.10         30.1272
   526.24         30.1454
   526.38         30.1497
   526.52         30.1366
   526.66         30.1040
   526.80         30.0518
   526.94         29.9836
   527.08         29.9043
   527.22         29.8195
   527.36         29.7343
   527.50         29.6521
   527.64         29.5732
   527.78         29.4978
   527.92         29.4298
   528.06         29.3745
   528.20         29.3353
   528.34         29.3125
   528.48         29.3047
   528.62         29.3084
   528.76         29.3184
   528.90         29.3286
   529.04         29.3337
   529.18         29.3288
   529.32         29.3107
   529.46         29.2782
   529.60         29.2331
   529.74         29.1787
   529.88         29.1187
   530.02         29.0579
   530.16         29.0023
   530.30         28.9587
   530.44         28.9326
   530.58         28.9255
   530.72         28.9330
   530.86         28.9466
   531.00         28.9573
   531.14         28.9578
   531.28         28.9437
   531.42         28.9122
   531.56         28.8630
   531.70         28.7999
   531.84         28.7302
   531.98         28.6617
   532.12         28.6003
   532.26         28.5501
   532.40         28.5126
   532.54         28.4871
   532.68         28.4709
   532.82         28.4599
   532.96         28.4493
   533.10         28.4328
   533.24         28.4049
   533.38         28.3630
   533.52         28.3076
   533.66         28.2415
   533.80         28.1692
   533.94         28.0967
   534.08         28.0299
   534.22         27.9725
   534.36         27.9275
   534.50         27.8968
   534.64         27.8803
   534.78         27.8751
   534.92         27.8773
   535.06         27.8833
   535.20         27.8917
   535.34         27.9022
   535.48         27.9141
   535.62         27.9255
   535.76         27.9338
   535.90         27.9372
   536.04         27.9339
   536.18         27.9232
   536.32         27.9064
   536.46         27.8863
   536.60         27.8668
   536.74         27.8499
   536.88         27.8356
   537.02         27.8241
   537.16         27.8148
   537.30         27.8056
   537.44         27.7945
   537.58         27.7804
   537.72         27.7641
   537.86         27.7457
   538.00         27.7249
   538.14         27.7025
   538.28         27.6803
   538.42         27.6596
   538.56         27.6383
   538.70         27.6116
   538.84         27.5773
   538.98         27.5361
   539.12         27.4908
   539.26         27.4425
   539.40         27.3904
   539.54         27.3355
   539.68         27.2804
   539.82         27.2285
   539.96         27.1836
   540.10         27.1490
   540.24         27.1259
   540.38         27.1138
   540.52         27.1111
   540.66         27.1151
   540.80         27.1222
   540.94         27.1275
   541.08         27.1262
   541.22         27.1158
   541.36         27.0973
   541.50         27.0742
   541.64         27.0496
   541.78         27.0251
   541.92         27.0002
   542.06         26.9731
   542.20         26.9423
   542.34         26.9057
   542.48         26.8630
   542.62         26.8172
   542.76         26.7704
   542.90         26.7238
   543.04         26.6786
   543.18         26.6367
   543.32         26.6006
   543.46         26.5720
   543.60         26.5518
   543.74         26.5395
   543.88         26.5319
   544.02         26.5250
   544.16         26.5151
   544.30         26.4992
   544.44         26.4757
   544.58         26.4431
   544.72         26.4001
   544.86         26.3471
   545.00         26.2872
   545.14         26.2262
   545.28         26.1685
   545.42         26.1153
   545.56         26.0671
   545.70         26.0250
   545.84         25.9892
   545.98         25.9584
   546.12         25.9304
   546.26         25.9048
   546.40         25.8822
   546.54         25.8644
   546.68         25.8553
   546.82         25.8572
   546.96         25.8686
   547.10         25.8864
   547.24         25.9051
   547.38         25.9182
   547.52         25.9210
   547.66         25.9114
   547.80         25.8880
   547.94         25.8500
   548.08         25.7989
   548.22         25.7382
   548.36         25.6729
   548.50         25.6099
   548.64         25.5566
   548.78         25.5196
   548.92         25.5028
   549.06         25.5061
   549.20         25.5252
   549.34         25.5524
   549.48         25.5775
   549.62         25.5921
   549.76         25.5910
   549.90         25.5704
   550.04         25.5288
   550.18         25.4695
   550.32         25.3994
   550.46         25.3265
   550.60         25.2592
   550.74         25.2046
   550.88         25.1674
   551.02         25.1494
   551.16         25.1498
   551.30         25.1643
   551.44         25.1863
   551.58         25.2084
   551.72         25.2232
   551.86         25.2250
   552.00         25.2110
   552.14         25.1806
   552.28         25.1352
   552.42         25.0772
   552.56         25.0104
   552.70         24.9414
   552.84         24.8769
   552.98         24.8209
   553.12         24.7743
   553.26         24.7377
   553.40         24.7109
   553.54         24.6930
   553.68         24.6826
   553.82         24.6784
   553.96         24.6787
   554.10         24.6818
   554.24         24.6869
   554.38         24.6927
   554.52         24.6978
   554.66         24.7009
   554.80         24.7005
   554.94         24.6964
   555.08         24.6896
   555.22         24.6815
   555.36         24.6722
   555.50         24.6608
   555.64         24.6466
   555.78         24.6290
   555.92         24.6067
   556.06         24.5782
   556.20         24.5421
   556.34         24.4967
   556.48         24.4419
   556.62         24.3795
   556.76         24.3132
   556.90         24.2467
   557.04         24.1840
   557.18         24.1306
   557.32         24.0921
   557.46         24.0716
   557.60         24.0701
   557.74         24.0856
   557.88         24.1138
   558.02         24.1504
   558.16         24.1908
   558.30         24.2299
   558.44         24.2626
   558.58         24.2848
   558.72         24.2937
   558.86         24.2882
   559.00         24.2680
   559.14         24.2360
   559.28         24.1977
   559.42         24.1578
   559.56         24.1207
   559.70         24.0906
   559.84         24.0709
   559.98         24.0610
   560.12         24.0589
   560.26         24.0625
   560.40         24.0691
   560.54         24.0746
   560.68         24.0743
   560.82         24.0642
   560.96         24.0438
   561.10         24.0151
   561.24         23.9810
   561.38         23.9453
   561.52         23.9110
   561.66         23.8799
   561.80         23.8519
   561.94         23.8251
   562.08         23.7969
   562.22         23.7658
   562.36         23.7305
   562.50         23.6907
   562.64         23.6467
   562.78         23.5996
   562.92         23.5516
   563.06         23.5050
   563.20         23.4628
   563.34         23.4273
   563.48         23.4004
   563.62         23.3826
   563.76         23.3725
   563.90         23.3674
   564.04         23.3642
   564.18         23.3582
   564.32         23.3457
   564.46         23.3248
   564.60         23.2957
   564.74         23.2604
   564.88         23.2200
   565.02         23.1745
   565.16         23.1250
   565.30         23.0725
   565.44         23.0188
   565.58         22.9669
   565.72         22.9198
   565.86         22.8791
   566.00         22.8462
   566.14         22.8232
   566.28         22.8124
   566.42         22.8144
   566.56         22.8269
   566.70         22.8455
   566.84         22.8665
   566.98         22.8863
   567.12         22.9011
   567.26         22.9073
   567.40         22.9019
   567.54         22.8835
   567.68         22.8527
   567.82         22.8118
   567.96         22.7635
   568.10         22.7106
   568.24         22.6553
   568.38         22.5992
   568.52         22.5450
   568.66         22.4957
   568.80         22.4535
   568.94         22.4186
   569.08         22.3906
   569.22         22.3682
   569.36         22.3483
   569.50         22.3269
   569.64         22.2997
   569.78         22.2639
   569.92         22.2203
   570.06         22.1729
   570.20         22.1269
   570.34         22.0875
   570.48         22.0582
   570.62         22.0410
   570.76         22.0368
   570.90         22.0458
   571.04         22.0680
   571.18         22.1022
   571.32         22.1454
   571.46         22.1933
   571.60         22.2424
   571.74         22.2897
   571.88         22.3319
   572.02         22.3656
   572.16         22.3900
   572.30         22.4073
   572.44         22.4202
   572.58         22.4292
   572.72         22.4316
   572.86         22.4228
   573.00         22.3985
   573.14         22.3564
   573.28         22.2958
   573.42         22.2183
   573.56         22.1267
   573.70         22.0249
   573.84         21.9178
   573.98         21.8108
   574.12         21.7082
   574.26         21.6131
   574.40         21.5272
   574.54         21.4510
   574.68         21.3856
   574.82         21.3338
   574.96         21.2982
   575.10         21.2791
   575.24         21.2750
   575.38         21.2839
   575.52         21.3039
   575.66         21.3335
   575.80         21.3701
   575.94         21.4088
   576.08         21.4453
   576.22         21.4763
   576.36         21.4992
   576.50         21.5115
   576.64         21.5101
   576.78         21.4921
   576.92         21.4574
   577.06         21.4105
   577.20         21.3587
   577.34         21.3091
   577.48         21.2679
   577.62         21.2388
   577.76         21.2234
   577.90         21.2221
   578.04         21.2354
   578.18         21.2625
   578.32         21.3009
   578.46         21.3453
   578.60         21.3884
   578.74         21.4245
   578.88         21.4489
   579.02         21.4571
   579.16         21.4464
   579.30         21.4177
   579.44         21.3763
   579.58         21.3297
   579.72         21.2859
   579.86         21.2511
   580.00         21.2278
   580.14         21.2159
   580.28         21.2133
   580.42         21.2171
   580.56         21.2248
   580.70         21.2331
   580.84         21.2387
   580.98         21.2389
   581.12         21.2321
   581.26         21.2181
   581.40         21.1970
   581.54         21.1695
   581.68         21.1368
   581.82         21.1006
   581.96         21.0622
   582.10         21.0221
   582.24         20.9805
   582.38         20.9377
   582.52         20.8930
   582.66         20.8465
   582.80         20.8011
   582.94         20.7598
   583.08         20.7250
   583.22         20.6980
   583.36         20.6780
   583.50         20.6635
   583.64         20.6541
   583.78         20.6501
   583.92         20.6505
   584.06         20.6541
   584.20         20.6624
   584.34         20.6774
   584.48         20.6995
   584.62         20.7277
   584.76         20.7610
   584.90         20.8002
   585.04         20.8469
   585.18         20.9015
   585.32         20.9632
   585.46         21.0294
   585.60         21.0961
   585.74         21.1604
   585.88         21.2204
   586.02         21.2729
   586.16         21.3121
   586.30         21.3291
   586.44         21.3118
   586.58         21.2535
   586.72         21.1574
   586.86         21.0335
   587.00         20.8931
   587.14         20.7466
   587.28         20.6054
   587.42         20.4816
   587.56         20.3835
   587.70         20.3099
   587.84         20.2497
   587.98         20.1908
   588.12         20.1247
   588.26         20.0434
   588.40         19.9385
   588.54         19.8039
   588.68         19.6391
   588.82         19.4509
   588.96         19.2536
   589.10         19.0678
   589.24         18.9164
   589.38         18.8186
   589.52         18.7865
   589.66         18.8240
   589.80         18.9284
   589.94         19.0910
   590.08         19.2946
   590.22         19.5163
   590.36         19.7336
   590.50         19.9300
   590.64         20.0970
   590.78         20.2284
   590.92         20.3190
   591.06         20.3684
   591.20         20.3824
   591.34         20.3694
   591.48         20.3382
   591.62         20.2970
   591.76         20.2539
   591.90         20.2150
   592.04         20.1847
   592.18         20.1655
   592.32         20.1556
   592.46         20.1492
   592.60         20.1386
   592.74         20.1188
   592.88         20.0892
   593.02         20.0514
   593.16         20.0075
   593.30         19.9598
   593.44         19.9108
   593.58         19.8637
   593.72         19.8218
   593.86         19.7865
   594.00         19.7584
   594.14         19.7382
   594.28         19.7249
   594.42         19.7164
   594.56         19.7102
   594.70         19.7051
   594.84         19.7008
   594.98         19.6953
   595.12         19.6870
   595.26         19.6766
   595.40         19.6658
   595.54         19.6552
   595.68         19.6447
   595.82         19.6344
   595.96         19.6244
   596.10         19.6147
   596.24         19.6052
   596.38         19.5958
   596.52         19.5866
   596.66         19.5774
   596.80         19.5682
   596.94         19.5588
   597.08         19.5493
   597.22         19.5397
   597.36         19.5300
   597.50         19.5203
   597.64         19.5107
   597.78         19.5012
   597.92         19.4918
   598.06         19.4826
   598.20         19.4735
   598.34         19.4645
   598.48         19.4558
   598.62         19.4486
   598.76         19.4450
   598.90         19.4458
   599.04         19.4510
   599.18         19.4612
   599.32         19.4764
   599.46         19.4943
   599.60         19.5113
   599.74         19.5246
   599.88         19.5335
   600.02         19.5392
   600.16         19.5451
   600.30         19.5545
   600.44         19.5695
   600.58         19.5905
   600.72         19.6159
   600.86         19.6427
   601.00         19.6675
   601.14         19.6872
   601.28         19.6987
   601.42         19.6971
   601.56         19.6764
   601.70         19.6335
   601.84         19.5687
   601.98         19.4835
   602.12         19.3799
   602.26         19.2615
   602.40         19.1362
   602.54         19.0138
   602.68         18.9042
   602.82         18.8152
   602.96         18.7508
   603.10         18.7114
   603.24         18.6945
   603.38         18.6967
   603.52         18.7141
   603.66         18.7422
   603.80         18.7756
   603.94         18.8089
   604.08         18.8385
   604.22         18.8630
   604.36         18.8831
   604.50         18.8988
   604.64         18.9092
   604.78         18.9135
   604.92         18.9139
   605.06         18.9148
   605.20         18.9191
   605.34         18.9257
   605.48         18.9321
   605.62         18.9355
   605.76         18.9333
   605.90         18.9237
   606.04         18.9069
   606.18         18.8844
   606.32         18.8575
   606.46         18.8278
   606.60         18.7982
   606.74         18.7723
   606.88         18.7525
   607.02         18.7385
   607.16         18.7296
   607.30         18.7255
   607.44         18.7278
   607.58         18.7385
   607.72         18.7592
   607.86         18.7897
   608.00         18.8287
   608.14         18.8729
   608.28         18.9170
   608.42         18.9555
   608.56         18.9855
   608.70         19.0072
   608.84         19.0205
   608.98         19.0232
   609.12         19.0148
   609.26         18.9971
   609.40         18.9730
   609.54         18.9449
   609.68         18.9147
   609.82         18.8852
   609.96         18.8598
   610.10         18.8404
   610.24         18.8271
   610.38         18.8189
   610.52         18.8150
   610.66         18.8148
   610.80         18.8185
   610.94         18.8282
   611.08         18.8475
   611.22         18.8773
   611.36         18.9136
   611.50         18.9506
   611.64         18.9833
   611.78         19.0083
   611.92         19.0213
   612.06         19.0181
   612.20         18.9956
   612.34         18.9532
   612.48         18.8940
   612.62         18.8235
   612.76         18.7480
   612.90         18.6731
   613.04         18.6038
   613.18         18.5434
   613.32         18.4928
   613.46         18.4510
   613.60         18.4161
   613.74         18.3844
   613.88         18.3507
   614.02         18.3125
   614.16         18.2726
   614.30         18.2359
   614.44         18.2067
   614.58         18.1869
   614.72         18.1779
   614.86         18.1808
   615.00         18.1963
   615.14         18.2225
   615.28         18.2543
   615.42         18.2870
   615.56         18.3167
   615.70         18.3407
   615.84         18.3577
   615.98         18.3671
   616.12         18.3692
   616.26         18.3655
   616.40         18.3578
   616.54         18.3469
   616.68         18.3337
   616.82         18.3173
   616.96         18.2941
   617.10         18.2617
   617.24         18.2198
   617.38         18.1705
   617.52         18.1172
   617.66         18.0616
   617.80         18.0048
   617.94         17.9494
   618.08         17.8994
   618.22         17.8571
   618.36         17.8239
   618.50         17.8018
   618.64         17.7922
   618.78         17.7953
   618.92         17.8081
   619.06         17.8262
   619.20         17.8449
   619.34         17.8594
   619.48         17.8657
   619.62         17.8609
   619.76         17.8436
   619.90         17.8132
   620.04         17.7714
   620.18         17.7220
   620.32         17.6696
   620.46         17.6194
   620.60         17.5768
   620.74         17.5462
   620.88         17.5310
   621.02         17.5325
   621.16         17.5502
   621.30         17.5811
   621.44         17.6188
   621.58         17.6544
   621.72         17.6815
   621.86         17.6967
   622.00         17.6988
   622.14         17.6903
   622.28         17.6768
   622.42         17.6654
   622.56         17.6613
   622.70         17.6650
   622.84         17.6736
   622.98         17.6837
   623.12         17.6934
   623.26         17.7024
   623.40         17.7112
   623.54         17.7204
   623.68         17.7309
   623.82         17.7441
   623.96         17.7605
   624.10         17.7797
   624.24         17.8026
   624.38         17.8304
   624.52         17.8630
   624.66         17.8985
   624.80         17.9349
   624.94         17.9693
   625.08         17.9970
   625.22         18.0117
   625.36         18.0096
   625.50         17.9923
   625.64         17.9645
   625.78         17.9311
   625.92         17.8969
   626.06         17.8649
   626.20         17.8360
   626.34         17.8080
   626.48         17.7751
   626.62         17.7299
   626.76         17.6665
   626.90         17.5814
   627.04         17.4743
   627.18         17.3474
   627.32         17.2050
   627.46         17.0533
   627.60         16.9019
   627.74         16.7613
   627.88         16.6411
   628.02         16.5497
   628.16         16.4922
   628.30         16.4692
   628.44         16.4770
   628.58         16.5099
   628.72         16.5609
   628.86         16.6210
   629.00         16.6804
   629.14         16.7300
   629.28         16.7639
   629.42         16.7812
   629.56         16.7834
   629.70         16.7736
   629.84         16.7547
   629.98         16.7306
   630.12         16.7055
   630.26         16.6815
   630.40         16.6578
   630.54         16.6336
   630.68         16.6099
   630.82         16.5897
   630.96         16.5755
   631.10         16.5696
   631.24         16.5747
   631.38         16.5925
   631.52         16.6221
   631.66         16.6619
   631.80         16.7096
   631.94         16.7620
   632.08         16.8148
   632.22         16.8615
   632.36         16.8955
   632.50         16.9112
   632.64         16.9056
   632.78         16.8790
   632.92         16.8347
   633.06         16.7772
   633.20         16.7109
   633.34         16.6388
   633.48         16.5625
   633.62         16.4841
   633.76         16.4071
   633.90         16.3342
   634.04         16.2670
   634.18         16.2069
   634.32         16.1546
   634.46         16.1106
   634.60         16.0750
   634.74         16.0484
   634.88         16.0307
   635.02         16.0224
   635.16         16.0227
   635.30         16.0299
   635.44         16.0409
   635.58         16.0524
   635.72         16.0622
   635.86         16.0687
   636.00         16.0709
   636.14         16.0704
   636.28         16.0694
   636.42         16.0688
   636.56         16.0696
   636.70         16.0728
   636.84         16.0783
   636.98         16.0846
   637.12         16.0892
   637.26         16.0904
   637.40         16.0865
   637.54         16.0766
   637.68         16.0597
   637.82         16.0356
   637.96         16.0057
   638.10         15.9731
   638.24         15.9409
   638.38         15.9109
   638.52         15.8830
   638.66         15.8578
   638.80         15.8365
   638.94         15.8206
   639.08         15.8108
   639.22         15.8060
   639.36         15.8046
   639.50         15.8045
   639.64         15.8046
   639.78         15.8044
   639.92         15.8052
   640.06         15.8091
   640.20         15.8179
   640.34         15.8324
   640.48         15.8535
   640.62         15.8817
   640.76         15.9150
   640.90         15.9505
   641.04         15.9855
   641.18         16.0196
   641.32         16.0526
   641.46         16.0827
   641.60         16.1063
   641.74         16.1188
   641.88         16.1167
   642.02         16.0995
   642.16         16.0673
   642.30         16.0210
   642.44         15.9625
   642.58         15.8956
   642.72         15.8250
   642.86         15.7544
   643.00         15.6881
   643.14         15.6313
   643.28         15.5880
   643.42         15.5592
   643.56         15.5436
   643.70         15.5386
   643.84         15.5405
   643.98         15.5445
   644.12         15.5470
   644.26         15.5479
   644.40         15.5490
   644.54         15.5519
   644.68         15.5574
   644.82         15.5658
   644.96         15.5777
   645.10         15.5937
   645.24         15.6146
   645.38         15.6400
   645.52         15.6685
   645.66         15.6984
   645.80         15.7274
   645.94         15.7531
   646.08         15.7730
   646.22         15.7863
   646.36         15.7948
   646.50         15.8007
   646.64         15.8050
   646.78         15.8077
   646.92         15.8084
   647.06         15.8049
   647.20         15.7936
   647.34         15.7718
   647.48         15.7382
   647.62         15.6925
   647.76         15.6346
   647.90         15.5642
   648.04         15.4817
   648.18         15.3890
   648.32         15.2902
   648.46         15.1912
   648.60         15.0986
   648.74         15.0187
   648.88         14.9578
   649.02         14.9203
   649.16         14.9068
   649.30         14.9154
   649.44         14.9429
   649.58         14.9850
   649.72         15.0360
   649.86         15.0914
   650.00         15.1483
   650.14         15.2026
   650.28         15.2487
   650.42         15.2813
   650.56         15.2976
   650.70         15.2989
   650.84         15.2898
   650.98         15.2747
   651.12         15.2566
   651.26         15.2378
   651.40         15.2206
   651.54         15.2070
   651.68         15.1977
   651.82         15.1934
   651.96         15.1943
   652.10         15.1999
   652.24         15.2096
   652.38         15.2221
   652.52         15.2352
   652.66         15.2449
   652.80         15.2466
   652.94         15.2390
   653.08         15.2246
   653.22         15.2072
   653.36         15.1893
   653.50         15.1714
   653.64         15.1523
   653.78         15.1307
   653.92         15.1061
   654.06         15.0770
   654.20         15.0404
   654.34         14.9925
   654.48         14.9299
   654.62         14.8496
   654.76         14.7489
   654.90         14.6244
   655.04         14.4709
   655.18         14.2840
   655.32         14.0628
   655.46         13.8130
   655.60         13.5457
   655.74         13.2739
   655.88         13.0118
   656.02         12.7755
   656.16         12.5827
   656.30         12.4499
   656.44         12.3894
   656.58         12.4066
   656.72         12.4998
   656.86         12.6614
   657.00         12.8780
   657.14         13.1313
   657.28         13.3990
   657.42         13.6591
   657.56         13.8927
   657.70         14.0881
   657.84         14.2414
   657.98         14.3553
   658.12         14.4353
   658.26         14.4879
   658.40         14.5194
   658.54         14.5369
   658.68         14.5479
   658.82         14.5582
   658.96         14.5698
   659.10         14.5810
   659.24         14.5894
   659.38         14.5937
   659.52         14.5934
   659.66         14.5875
   659.80         14.5756
   659.94         14.5594
   660.08         14.5419
   660.22         14.5254
   660.36         14.5125
   660.50         14.5051
   660.64         14.5040
   660.78         14.5102
   660.92         14.5236
   661.06         14.5437
   661.20         14.5704
   661.34         14.6036
   661.48         14.6427
   661.62         14.6877
   661.76         14.7376
   661.90         14.7903
   662.04         14.8421
   662.18         14.8887
   662.32         14.9262
   662.46         14.9517
   662.60         14.9631
   662.74         14.9585
   662.88         14.9379
   663.02         14.9040
   663.16         14.8588
   663.30         14.8037
   663.44         14.7411
   663.58         14.6749
   663.72         14.6099
   663.86         14.5505
   664.00         14.4994
   664.14         14.4577
   664.28         14.4239
   664.42         14.3949
   664.56         14.3674
   664.70         14.3383
   664.84         14.3062
   664.98         14.2702
   665.12         14.2294
   665.26         14.1829
   665.40         14.1301
   665.54         14.0718
   665.68         14.0092
   665.82         13.9441
   665.96         13.8809
   666.10         13.8252
   666.24         13.7811
   666.38         13.7489
   666.52         13.7252
   666.66         13.7050
   666.80         13.6833
   666.94         13.6582
   667.08         13.6317
   667.22         13.6078
   667.36         13.5902
   667.50         13.5819
   667.64         13.5848
   667.78         13.5987
   667.92         13.6235
   668.06         13.6598
   668.20         13.7082
   668.34         13.7683
   668.48         13.8370
   668.62         13.9077
   668.76         13.9713
   668.90         14.0192
   669.04         14.0464
   669.18         14.0524
   669.32         14.0399
   669.46         14.0132
   669.60         13.9776
   669.74         13.9373
   669.88         13.8939
   670.02         13.8474
   670.16         13.7981
   670.30         13.7469
   670.44         13.6958
   670.58         13.6475
   670.72         13.6049
   670.86         13.5696
   671.00         13.5420
   671.14         13.5213
   671.28         13.5064
   671.42         13.4969
   671.56         13.4928
   671.70         13.4929
   671.84         13.4951
   671.98         13.4973
   672.12         13.4989
   672.26         13.5004
   672.40         13.5016
   672.54         13.5016
   672.68         13.4989
   672.82         13.4926
   672.96         13.4839
   673.10         13.4761
   673.24         13.4739
   673.38         13.4810
   673.52         13.4990
   673.66         13.5266
   673.80         13.5595
   673.94         13.5931
   674.08         13.6229
   674.22         13.6456
   674.36         13.6600
   674.50         13.6665
   674.64         13.6660
   674.78         13.6589
   674.92         13.6454
   675.06         13.6260
   675.20         13.6037
   675.34         13.5824
   675.48         13.5670
   675.62         13.5622
   675.76         13.5709
   675.90         13.5922
   676.04         13.6214
   676.18         13.6520
   676.32         13.6768
   676.46         13.6898
   676.60         13.6874
   676.74         13.6680
   676.88         13.6325
   677.02         13.5833
   677.16         13.5234
   677.30         13.4566
   677.44         13.3881
   677.58         13.3235
   677.72         13.2682
   677.86         13.2257
   678.00         13.1971
   678.14         13.1811
   678.28         13.1759
   678.42         13.1799
   678.56         13.1906
   678.70         13.2040
   678.84         13.2150
   678.98         13.2201
   679.12         13.2189
   679.26         13.2133
   679.40         13.2067
   679.54         13.2025
   679.68         13.2031
   679.82         13.2091
   679.96         13.2178
   680.10         13.2242
   680.24         13.2232
   680.38         13.2113
   680.52         13.1879
   680.66         13.1541
   680.80         13.1124
   680.94         13.0652
   681.08         13.0152
   681.22         12.9645
   681.36         12.9148
   681.50         12.8696
   681.64         12.8343
   681.78         12.8139
   681.92         12.8106
   682.06         12.8244
   682.20         12.8532
   682.34         12.8922
   682.48         12.9343
   682.62         12.9727
   682.76         13.0039
   682.90         13.0271
   683.04         13.0426
   683.18         13.0501
   683.32         13.0497
   683.46         13.0411
   683.60         13.0269
   683.74         13.0115
   683.88         12.9992
   684.02         12.9928
   684.16         12.9942
   684.30         13.0036
   684.44         13.0196
   684.58         13.0387
   684.72         13.0563
   684.86         13.0681
   685.00         13.0706
   685.14         13.0628
   685.28         13.0450
   685.42         13.0156
   685.56         12.9690
   685.70         12.8951
   685.84         12.7832
   685.98         12.6255
   686.12         12.4211
   686.26         12.1754
   686.40         11.8989
   686.54         11.6053
   686.68         11.3117
   686.82         11.0376
   686.96         10.8024
   687.10         10.6230
   687.24         10.5106
   687.38         10.4691
   687.52         10.4946
   687.66         10.5766
   687.80         10.6984
   687.94         10.8393
   688.08         10.9783
   688.22         11.0993
   688.36         11.1940
   688.50         11.2617
   688.64         11.3065
   688.78         11.3348
   688.92         11.3528
   689.06         11.3664
   689.20         11.3807
   689.34         11.3991
   689.48         11.4238
   689.62         11.4548
   689.76         11.4907
   689.90         11.5305
   690.04         11.5721
   690.18         11.6129
   690.32         11.6509
   690.46         11.6853
   690.60         11.7165
   690.74         11.7455
   690.88         11.7727
   691.02         11.7982
   691.16         11.8215
   691.30         11.8422
   691.44         11.8604
   691.58         11.8762
   691.72         11.8884
   691.86         11.8955
   692.00         11.8972
   692.14         11.8941
   692.28         11.8860
   692.42         11.8729
   692.56         11.8562
   692.70         11.8374
   692.84         11.8186
   692.98         11.8019
   693.12         11.7897
   693.26         11.7839
   693.40         11.7857
   693.54         11.7947
   693.68         11.8091
   693.82         11.8264
   693.96         11.8431
   694.10         11.8561
   694.24         11.8629
   694.38         11.8623
   694.52         11.8556
   694.66         11.8463
   694.80         11.8391
   694.94         11.8386
   695.08         11.8487
   695.22         11.8718
   695.36         11.9082
   695.50         11.9566
   695.64         12.0147
   695.78         12.0794
   695.92         12.1471
   696.06         12.2127
   696.20         12.2722
   696.34         12.3241
   696.48         12.3693
   696.62         12.4083
   696.76         12.4411
   696.90         12.4676
   697.04         12.4879
   697.18         12.5026
   697.32         12.5111
   697.46         12.5112
   697.60         12.4982
   697.74         12.4676
   697.88         12.4177
   698.02         12.3506
   698.16         12.2705
   698.30         12.1829
   698.44         12.0948
   698.58         12.0141
   698.72         11.9480
   698.86         11.9022
   699.00         11.8792
   699.14         11.8776
   699.28         11.8922
   699.42         11.9161
   699.56         11.9434
   699.70         11.9691
   699.84         11.9889
   699.98         11.9986
   700.12         11.9958
   700.26         11.9808
   700.40         11.9570
   700.54         11.9296
   700.68         11.9029
   700.82         11.8800
   700.96         11.8623
   701.10         11.8493
   701.24         11.8390
   701.38         11.8297
   701.52         11.8211
   701.66         11.8137
   701.80         11.8084
   701.94         11.8063
   702.08         11.8092
   702.22         11.8179
   702.36         11.8327
   702.50         11.8528
   702.64         11.8776
   702.78         11.9059
   702.92         11.9363
   703.06         11.9665
   703.20         11.9932
   703.34         12.0139
   703.48         12.0278
   703.62         12.0356
   703.76         12.0381
   703.90         12.0357
   704.04         12.0295
   704.18         12.0210
   704.32         12.0113
   704.46         12.0010
   704.60         11.9909
   704.74         11.9825
   704.88         11.9779
   705.02         11.9791
   705.16         11.9858
   705.30         11.9945
   705.44         12.0007
   705.58         12.0023
   705.72         12.0008
   705.86         11.9988
   706.00         11.9976
   706.14         11.9974
   706.28         11.9968
   706.42         11.9932
   706.56         11.9851
   706.70         11.9735
   706.84         11.9598
   706.98         11.9462
   707.12         11.9362
   707.26         11.9332
   707.40         11.9387
   707.54         11.9516
   707.68         11.9699
   707.82         11.9912
   707.96         12.0145
   708.10         12.0404
   708.24         12.0696
   708.38         12.1009
   708.52         12.1302
   708.66         12.1527
   708.80         12.1654
   708.94         12.1663
   709.08         12.1550
   709.22         12.1336
   709.36         12.1047
   709.50         12.0708
   709.64         12.0344
   709.78         11.9973
   709.92         11.9593
   710.06         11.9195
   710.20         11.8784
   710.34         11.8374
   710.48         11.7978
   710.62         11.7614
   710.76         11.7315
   710.90         11.7128
   711.04         11.7098
   711.18         11.7253
   711.32         11.7594
   711.46         11.8111
   711.60         11.8774
   711.74         11.9557
   711.88         12.0428
   712.02         12.1337
   712.16         12.2225
   712.30         12.3033
   712.44         12.3710
   712.58         12.4219
   712.72         12.4551
   712.86         12.4709
   713.00         12.4690
   713.14         12.4504
   713.28         12.4182
   713.42         12.3760
   713.56         12.3253
   713.70         12.2667
   713.84         12.2012
   713.98         12.1321
   714.12         12.0634
   714.26         11.9995
   714.40         11.9449
   714.54         11.9029
   714.68         11.8745
   714.82         11.8590
   714.96         11.8558
   715.10         11.8645
   715.24         11.8829
   715.38         11.9056
   715.52         11.9243
   715.66         11.9319
   715.80         11.9236
   715.94         11.8965
   716.08         11.8484
   716.22         11.7792
   716.36         11.6912
   716.50         11.5878
   716.64         11.4733
   716.78         11.3541
   716.92         11.2371
   717.06         11.1273
   717.20         11.0263
   717.34         10.9327
   717.48         10.8450
   717.62         10.7658
   717.76         10.7007
   717.90         10.6538
   718.04         10.6274
   718.18         10.6244
   718.32         10.6471
   718.46         10.6953
   718.60         10.7658
   718.74         10.8525
   718.88         10.9459
   719.02         11.0356
   719.16         11.1138
   719.30         11.1765
   719.44         11.2212
   719.58         11.2459
   719.72         11.2514
   719.86         11.2423
   720.00         11.2257
   720.14         11.2103
   720.28         11.2043
   720.42         11.2111
   720.56         11.2293
   720.70         11.2569
   720.84         11.2928
   720.98         11.3351
   721.12         11.3800
   721.26         11.4225
   721.40         11.4583
   721.54         11.4849
   721.68         11.5035
   721.82         11.5195
   721.96         11.5372
   722.10         11.5565
   722.24         11.5723
   722.38         11.5764
   722.52         11.5626
   722.66         11.5289
   722.80         11.4775
   722.94         11.4136
   723.08         11.3454
   723.22         11.2818
   723.36         11.2297
   723.50         11.1949
   723.64         11.1816
   723.78         11.1899
   723.92         11.2162
   724.06         11.2538
   724.20         11.2951
   724.34         11.3345
   724.48         11.3662
   724.62         11.3819
   724.76         11.3735
   724.90         11.3377
   725.04         11.2764
   725.18         11.1956
   725.32         11.1025
   725.46         11.0030
   725.60         10.9045
   725.74         10.8152
   725.88         10.7411
   726.02         10.6867
   726.16         10.6541
   726.30         10.6403
   726.44         10.6374
   726.58         10.6383
   726.72         10.6405
   726.86         10.6450
   727.00         10.6541
   727.14         10.6683
   727.28         10.6868
   727.42         10.7089
   727.56         10.7334
   727.70         10.7596
   727.84         10.7864
   727.98         10.8116
   728.12         10.8328
   728.26         10.8480
   728.40         10.8551
   728.54         10.8537
   728.68         10.8451
   728.82         10.8318
   728.96         10.8173
   729.10         10.8070
   729.24         10.8071
   729.38         10.8224
   729.52         10.8545
   729.66         10.9018
   729.80         10.9586
   729.94         11.0178
   730.08         11.0733
   730.22         11.1223
   730.36         11.1636
   730.50         11.1963
   730.64         11.2208
   730.78         11.2390
   730.92         11.2549
   731.06         11.2724
   731.20         11.2933
   731.34         11.3156
   731.48         11.3352
   731.62         11.3472
   731.76         11.3470
   731.90         11.3319
   732.04         11.3018
   732.18         11.2585
   732.32         11.2053
   732.46         11.1475
   732.60         11.0929
   732.74         11.0497
   732.88         11.0227
   733.02         11.0125
   733.16         11.0152
   733.30         11.0244
   733.44         11.0344
   733.58         11.0402
   733.72         11.0359
   733.86         11.0161
   734.00         10.9784
   734.14         10.9251
   734.28         10.8614
   734.42         10.7935
   734.56         10.7277
   734.70         10.6691
   734.84         10.6226
   734.98         10.5921
   735.12         10.5795
   735.26         10.5830
   735.40         10.5976
   735.54         10.6166
   735.68         10.6334
   735.82         10.6433
   735.96         10.6445
   736.10         10.6377
   736.24         10.6246
   736.38         10.6072
   736.52         10.5879
   736.66         10.5695
   736.80         10.5533
   736.94         10.5386
   737.08         10.5236
   737.22         10.5068
   737.36         10.4873
   737.50         10.4654
   737.64         10.4413
   737.78         10.4150
   737.92         10.3869
   738.06         10.3591
   738.20         10.3357
   738.34         10.3209
   738.48         10.3162
   738.62         10.3206
   738.76         10.3306
   738.90         10.3430
   739.04         10.3557
   739.18         10.3672
   739.32         10.3763
   739.46         10.3809
   739.60         10.3793
   739.74         10.3700
   739.88         10.3511
   740.02         10.3213
   740.16         10.2804
   740.30         10.2294
   740.44         10.1712
   740.58         10.1110
   740.72         10.0550
   740.86         10.0101
   741.00         9.9816
   741.14         9.9737
   741.28         9.9904
   741.42         10.0334
   741.56         10.1008
   741.70         10.1873
   741.84         10.2853
   741.98         10.3877
   742.12         10.4883
   742.26         10.5809
   742.40         10.6604
   742.54         10.7231
   742.68         10.7663
   742.82         10.7882
   742.96         10.7882
   743.10         10.7663
   743.24         10.7231
   743.38         10.6604
   743.52         10.5809
   743.66         10.4883
   743.80         10.3877
   743.94         10.2853
   744.08         10.1873
   744.22         10.1008
