# File HD44811
# Wavelength [nm]    Normalized Amplitude
   349.70         324.4413
   349.84         324.8951
   349.98         325.1589
   350.12         325.1978
   350.26         325.0072
   350.40         324.6185
   350.54         324.1013
   350.68         323.5371
   350.82         323.0178
   350.96         322.6465
   351.10         322.5107
   351.24         322.6465
   351.38         323.0178
   351.52         323.5371
   351.66         324.1013
   351.80         324.6185
   351.94         325.0072
   352.08         325.1978
   352.22         325.1589
   352.36         324.8951
   352.50         324.4413
   352.64         323.8597
   352.78         323.2189
   352.92         322.5862
   353.06         322.0117
   353.20         321.5178
   353.34         321.1031
   353.48         320.7371
   353.62         320.3699
   353.76         319.9537
   353.90         319.4575
   354.04         318.8809
   354.18         318.2345
   354.32         317.5050
   354.46         316.6609
   354.60         315.6677
   354.74         314.5047
   354.88         313.1723
   355.02         311.6978
   355.16         310.1469
   355.30         308.6041
   355.44         307.1628
   355.58         305.9147
   355.72         304.9133
   355.86         304.1642
   356.00         303.6359
   356.14         303.2790
   356.28         303.0399
   356.42         302.8540
   356.56         302.6415
   356.70         302.3116
   356.84         301.7804
   356.98         301.0106
   357.12         300.0388
   357.26         298.9521
   357.40         297.8268
   357.54         296.6915
   357.68         295.5402
   357.82         294.3521
   357.96         293.1140
   358.10         291.8387
   358.24         290.5581
   358.38         289.3086
   358.52         288.1417
   358.66         287.1565
   358.80         286.4782
   358.94         286.1860
   359.08         286.2848
   359.22         286.7159
   359.36         287.3748
   359.50         288.1389
   359.64         288.8821
   359.78         289.4848
   359.92         289.8517
   360.06         289.9223
   360.20         289.6863
   360.34         289.1858
   360.48         288.4991
   360.62         287.7172
   360.76         286.9190
   360.90         286.1635
   361.04         285.5042
   361.18         284.9841
   361.32         284.6138
   361.46         284.3626
   361.60         284.1664
   361.74         283.9524
   361.88         283.6710
   362.02         283.3238
   362.16         282.9494
   362.30         282.5757
   362.44         282.1981
   362.58         281.7881
   362.72         281.3076
   362.86         280.7039
   363.00         279.9272
   363.14         278.9727
   363.28         277.8935
   363.42         276.7752
   363.56         275.7062
   363.70         274.7508
   363.84         273.9502
   363.98         273.3441
   364.12         272.9631
   364.26         272.8054
   364.40         272.8402
   364.54         273.0288
   364.68         273.3363
   364.82         273.7204
   364.96         274.1117
   365.10         274.4403
   365.24         274.6687
   365.38         274.7859
   365.52         274.7907
   365.66         274.6977
   365.80         274.5463
   365.94         274.4004
   366.08         274.3242
   366.22         274.3488
   366.36         274.4676
   366.50         274.6483
   366.64         274.8355
   366.78         274.9495
   366.92         274.9240
   367.06         274.7171
   367.20         274.3093
   367.34         273.7305
   367.48         273.0435
   367.62         272.2937
   367.76         271.5211
   367.90         270.7799
   368.04         270.1269
   368.18         269.6153
   368.32         269.2650
   368.46         269.0603
   368.60         268.9769
   368.74         268.9712
   368.88         268.9705
   369.02         268.8963
   369.16         268.6750
   369.30         268.2392
   369.44         267.5314
   369.58         266.5151
   369.72         265.1954
   369.86         263.6365
   370.00         261.9490
   370.14         260.2298
   370.28         258.5451
   370.42         256.9691
   370.56         255.5801
   370.70         254.4255
   370.84         253.5124
   370.98         252.8167
   371.12         252.3097
   371.26         251.9669
   371.40         251.7568
   371.54         251.6427
   371.68         251.5962
   371.82         251.5943
   371.96         251.6311
   372.10         251.7273
   372.24         251.9153
   372.38         252.2207
   372.52         252.6301
   372.66         253.0940
   372.80         253.5619
   372.94         254.0140
   373.08         254.4640
   373.22         254.9233
   373.36         255.3812
   373.50         255.8078
   373.64         256.1529
   373.78         256.3470
   373.92         256.2959
   374.06         255.8666
   374.20         254.9030
   374.34         253.2952
   374.48         251.0370
   374.62         248.2208
   374.76         245.0108
   374.90         241.6221
   375.04         238.3063
   375.18         235.3311
   375.32         232.9580
   375.46         231.3929
   375.60         230.7217
   375.74         230.8873
   375.88         231.6968
   376.02         232.8612
   376.16         234.0655
   376.30         235.0533
   376.44         235.6763
   376.58         235.9043
   376.72         235.8257
   376.86         235.6366
   377.00         235.6031
   377.14         235.9673
   377.28         236.8928
   377.42         238.4657
   377.56         240.6815
   377.70         243.4291
   377.84         246.5017
   377.98         249.6318
   378.12         252.5108
   378.26         254.8205
   378.40         256.2742
   378.54         256.6494
   378.68         255.8535
   378.82         253.9678
   378.96         251.2263
   379.10         247.9646
   379.24         244.5816
   379.38         241.4832
   379.52         239.0192
   379.66         237.4577
   379.80         236.9678
   379.94         237.6119
   380.08         239.3301
   380.22         241.9482
   380.36         245.2320
   380.50         248.9080
   380.64         252.6392
   380.78         256.0428
   380.92         258.7878
   381.06         260.6753
   381.20         261.6679
   381.34         261.8879
   381.48         261.5501
   381.62         260.8804
   381.76         260.0673
   381.90         259.2252
   382.04         258.3685
   382.18         257.4136
   382.32         256.2076
   382.46         254.5732
   382.60         252.3775
   382.74         249.6010
   382.88         246.3548
   383.02         242.8401
   383.16         239.2947
   383.30         235.9766
   383.44         233.1837
   383.58         231.2284
   383.72         230.3395
   383.86         230.5886
   384.00         231.8901
   384.14         234.0395
   384.28         236.7638
   384.42         239.7641
   384.56         242.7487
   384.70         245.4653
   384.84         247.7294
   384.98         249.4463
   385.12         250.6181
   385.26         251.3323
   385.40         251.7229
   385.54         251.9062
   385.68         251.9387
   385.82         251.8308
   385.96         251.5848
   386.10         251.2114
   386.24         250.7201
   386.38         250.1125
   386.52         249.3980
   386.66         248.6007
   386.80         247.7447
   386.94         246.8395
   387.08         245.8692
   387.22         244.7899
   387.36         243.5280
   387.50         241.9592
   387.64         239.9155
   387.78         237.2484
   387.92         233.9044
   388.06         229.9631
   388.20         225.6194
   388.34         221.1453
   388.48         216.8562
   388.62         213.0735
   388.76         210.0927
   388.90         208.1554
   389.04         207.4159
   389.18         207.9231
   389.32         209.6130
   389.46         212.3001
   389.60         215.6961
   389.74         219.4527
   389.88         223.2074
   390.02         226.6290
   390.16         229.4555
   390.30         231.5525
   390.44         232.9342
   390.58         233.7112
   390.72         234.0315
   390.86         234.0348
   391.00         233.8224
   391.14         233.4550
   391.28         232.9732
   391.42         232.4131
   391.56         231.7929
   391.70         231.1089
   391.84         230.3601
   391.98         229.5523
   392.12         228.6809
   392.26         227.7341
   392.40         226.7176
   392.54         225.6719
   392.68         224.6635
   392.82         223.7689
   392.96         223.0608
   393.10         222.5929
   393.24         222.3969
   393.38         222.4865
   393.52         222.8528
   393.66         223.4586
   393.80         224.2412
   393.94         225.1184
   394.08         226.0004
   394.22         226.8000
   394.36         227.4326
   394.50         227.8244
   394.64         227.9179
   394.78         227.6733
   394.92         227.0795
   395.06         226.1633
   395.20         224.9541
   395.34         223.4437
   395.48         221.5833
   395.62         219.2869
   395.76         216.4539
   395.90         213.0095
   396.04         208.9526
   396.18         204.3977
   396.32         199.5763
   396.46         194.8017
   396.60         190.4193
   396.74         186.7578
   396.88         184.0921
   397.02         182.6167
   397.16         182.4350
   397.30         183.5481
   397.44         185.8355
   397.58         189.0555
   397.72         192.8760
   397.86         196.9261
   398.00         200.8551
   398.14         204.3775
   398.28         207.3097
   398.42         209.5936
   398.56         211.2809
   398.70         212.4825
   398.84         213.3131
   398.98         213.8579
   399.12         214.1701
   399.26         214.2858
   399.40         214.2429
   399.54         214.0839
   399.68         213.8398
   399.82         213.5295
   399.96         213.1600
   400.10         212.7220
   400.24         212.2062
   400.38         211.6313
   400.52         211.0438
   400.66         210.4880
   400.80         209.9891
   400.94         209.5516
   401.08         209.1498
   401.22         208.7195
   401.36         208.1717
   401.50         207.4226
   401.64         206.4287
   401.78         205.1996
   401.92         203.7868
   402.06         202.2678
   402.20         200.7225
   402.34         199.2299
   402.48         197.8788
   402.62         196.7536
   402.76         195.9162
   402.90         195.4072
   403.04         195.2480
   403.18         195.4223
   403.32         195.8722
   403.46         196.5220
   403.60         197.2918
   403.74         198.0974
   403.88         198.8641
   404.02         199.5454
   404.16         200.1360
   404.30         200.6660
   404.44         201.1599
   404.58         201.6108
   404.72         201.9882
   404.86         202.2558
   405.00         202.3964
   405.14         202.4194
   405.28         202.3519
   405.42         202.2206
   405.56         202.0408
   405.70         201.8180
   405.84         201.5480
   405.98         201.2246
   406.12         200.8506
   406.26         200.4351
   406.40         199.9908
   406.54         199.5339
   406.68         199.0776
   406.82         198.6257
   406.96         198.1725
   407.10         197.7093
   407.24         197.2356
   407.38         196.7650
   407.52         196.3150
   407.66         195.8851
   407.80         195.4461
   407.94         194.9517
   408.08         194.3585
   408.22         193.6423
   408.36         192.7957
   408.50         191.8060
   408.64         190.6430
   408.78         189.2530
   408.92         187.5496
   409.06         185.4264
   409.20         182.7996
   409.34         179.6666
   409.48         176.1321
   409.62         172.4032
   409.76         168.7625
   409.90         165.5201
   410.04         162.9639
   410.18         161.3111
   410.32         160.6869
   410.46         161.1254
   410.60         162.5679
   410.74         164.8590
   410.88         167.7506
   411.02         170.9431
   411.16         174.1423
   411.30         177.0974
   411.44         179.6220
   411.58         181.6103
   411.72         183.0515
   411.86         184.0284
   412.00         184.6788
   412.14         185.1376
   412.28         185.5010
   412.42         185.8183
   412.56         186.0966
   412.70         186.3116
   412.84         186.4276
   412.98         186.4178
   413.12         186.2633
   413.26         185.9507
   413.40         185.4821
   413.54         184.8824
   413.68         184.1977
   413.82         183.4769
   413.96         182.7568
   414.10         182.0662
   414.24         181.4268
   414.38         180.8604
   414.52         180.3914
   414.66         180.0427
   414.80         179.8302
   414.94         179.7536
   415.08         179.7994
   415.22         179.9515
   415.36         180.1881
   415.50         180.4783
   415.64         180.7767
   415.78         181.0311
   415.92         181.2035
   416.06         181.2749
   416.20         181.2411
   416.34         181.1071
   416.48         180.8809
   416.62         180.5724
   416.76         180.1936
   416.90         179.7617
   417.04         179.3036
   417.18         178.8452
   417.32         178.3968
   417.46         177.9570
   417.60         177.5171
   417.74         177.0644
   417.88         176.5883
   418.02         176.0786
   418.16         175.5282
   418.30         174.9359
   418.44         174.3094
   418.58         173.6630
   418.72         173.0042
   418.86         172.3302
   419.00         171.6311
   419.14         170.9004
   419.28         170.1449
   419.42         169.3850
   419.56         168.6516
   419.70         167.9843
   419.84         167.4201
   419.98         166.9885
   420.12         166.7130
   420.26         166.6041
   420.40         166.6643
   420.54         166.8930
   420.68         167.2714
   420.82         167.7559
   420.96         168.2905
   421.10         168.8225
   421.24         169.3093
   421.38         169.7103
   421.52         169.9901
   421.66         170.1377
   421.80         170.1720
   421.94         170.1239
   422.08         170.0152
   422.22         169.8612
   422.36         169.6795
   422.50         169.4843
   422.64         169.2850
   422.78         169.0894
   422.92         168.9064
   423.06         168.7455
   423.20         168.6016
   423.34         168.4532
   423.48         168.2866
   423.62         168.1045
   423.76         167.9123
   423.90         167.7107
   424.04         167.4974
   424.18         167.2773
   424.32         167.0629
   424.46         166.8653
   424.60         166.6905
   424.74         166.5452
   424.88         166.4363
   425.02         166.3611
   425.16         166.3051
   425.30         166.2477
   425.44         166.1674
   425.58         166.0478
   425.72         165.8807
   425.86         165.6660
   426.00         165.4167
   426.14         165.1531
   426.28         164.8874
   426.42         164.6218
   426.56         164.3498
   426.70         164.0601
   426.84         163.7441
   426.98         163.4045
   427.12         163.0534
   427.26         162.7054
   427.40         162.3753
   427.54         162.0759
   427.68         161.8215
   427.82         161.6289
   427.96         161.5127
   428.10         161.4836
   428.24         161.5462
   428.38         161.6926
   428.52         161.8970
   428.66         162.1210
   428.80         162.3266
   428.94         162.4845
   429.08         162.5747
   429.22         162.5891
   429.36         162.5360
   429.50         162.4390
   429.64         162.3272
   429.78         162.2208
   429.92         162.1280
   430.06         162.0516
   430.20         161.9894
   430.34         161.9312
   430.48         161.8578
   430.62         161.7451
   430.76         161.5686
   430.90         161.3044
   431.04         160.9391
   431.18         160.4819
   431.32         159.9602
   431.46         159.4076
   431.60         158.8580
   431.74         158.3420
   431.88         157.8795
   432.02         157.4682
   432.16         157.0859
   432.30         156.6940
   432.44         156.2331
   432.58         155.6210
   432.72         154.7492
   432.86         153.4873
   433.00         151.7211
   433.14         149.4052
   433.28         146.5927
   433.42         143.4300
   433.56         140.1317
   433.70         136.9546
   433.84         134.1618
   433.98         131.9858
   434.12         130.6106
   434.26         130.1521
   434.40         130.6372
   434.54         132.0063
   434.68         134.1222
   434.82         136.7840
   434.96         139.7448
   435.10         142.7361
   435.24         145.5086
   435.38         147.8669
   435.52         149.6974
   435.66         150.9841
   435.80         151.7835
   435.94         152.1785
   436.08         152.2565
   436.22         152.1070
   436.36         151.8161
   436.50         151.4551
   436.64         151.0806
   436.78         150.7394
   436.92         150.4662
   437.06         150.2847
   437.20         150.2056
   437.34         150.2200
   437.48         150.2972
   437.62         150.3812
   437.76         150.4044
   437.90         150.3129
   438.04         150.0772
   438.18         149.6955
   438.32         149.1916
   438.46         148.6038
   438.60         147.9777
   438.74         147.3646
   438.88         146.8169
   439.02         146.3784
   439.16         146.0768
   439.30         145.9192
   439.44         145.8896
   439.58         145.9512
   439.72         146.0512
   439.86         146.1353
   440.00         146.1562
   440.14         146.0725
   440.28         145.8595
   440.42         145.5319
   440.56         145.1389
   440.70         144.7341
   440.84         144.3524
   440.98         144.0081
   441.12         143.7022
   441.26         143.4281
   441.40         143.1772
   441.54         142.9438
   441.68         142.7197
   441.82         142.4873
   441.96         142.2244
   442.10         141.9180
   442.24         141.5692
   442.38         141.1906
   442.52         140.8002
   442.66         140.4120
   442.80         140.0407
   442.94         139.7129
   443.08         139.4644
   443.22         139.3251
   443.36         139.3049
   443.50         139.3910
   443.64         139.5562
   443.78         139.7688
   443.92         139.9996
   444.06         140.2286
   444.20         140.4388
   444.34         140.6085
   444.48         140.7125
   444.62         140.7309
   444.76         140.6559
   444.90         140.4935
   445.04         140.2598
   445.18         139.9767
   445.32         139.6733
   445.46         139.3794
   445.60         139.1086
   445.74         138.8467
   445.88         138.5404
   446.02         138.1067
   446.16         137.4825
   446.30         136.6628
   446.44         135.6952
   446.58         134.6518
   446.72         133.6047
   446.86         132.6228
   447.00         131.7762
   447.14         131.1318
   447.28         130.7450
   447.42         130.6554
   447.56         130.8794
   447.70         131.3955
   447.84         132.1466
   447.98         133.0495
   448.12         133.9994
   448.26         134.8855
   448.40         135.6142
   448.54         136.1278
   448.68         136.4227
   448.82         136.5409
   448.96         136.5317
   449.10         136.4281
   449.24         136.2484
   449.38         136.0103
   449.52         135.7439
   449.66         135.4804
   449.80         135.2385
   449.94         135.0187
   450.08         134.8074
   450.22         134.5804
   450.36         134.3081
   450.50         133.9714
   450.64         133.5710
   450.78         133.1236
   450.92         132.6576
   451.06         132.2053
   451.20         131.7953
   451.34         131.4447
   451.48         131.1553
   451.62         130.9224
   451.76         130.7463
   451.90         130.6291
   452.04         130.5675
   452.18         130.5509
   452.32         130.5587
   452.46         130.5632
   452.60         130.5388
   452.74         130.4643
   452.88         130.3135
   453.02         130.0479
   453.16         129.6295
   453.30         129.0450
   453.44         128.3156
   453.58         127.4893
   453.72         126.6278
   453.86         125.7973
   454.00         125.0653
   454.14         124.4964
   454.28         124.1472
   454.42         124.0588
   454.56         124.2462
   454.70         124.6886
   454.84         125.3370
   454.98         126.1232
   455.12         126.9689
   455.26         127.8006
   455.40         128.5582
   455.54         129.1955
   455.68         129.6897
   455.82         130.0490
   455.96         130.3054
   456.10         130.4898
   456.24         130.6148
   456.38         130.6771
   456.52         130.6727
   456.66         130.6100
   456.80         130.5064
   456.94         130.3765
   457.08         130.2260
   457.22         130.0513
   457.36         129.8471
   457.50         129.6139
   457.64         129.3575
   457.78         129.0860
   457.92         128.8079
   458.06         128.5296
   458.20         128.2506
   458.34         127.9674
   458.48         127.6759
   458.62         127.3711
   458.76         127.0568
   458.90         126.7485
   459.04         126.4643
   459.18         126.2194
   459.32         126.0186
   459.46         125.8560
   459.60         125.7223
   459.74         125.6103
   459.88         125.5211
   460.02         125.4580
   460.16         125.4153
   460.30         125.3780
   460.44         125.3312
   460.58         125.2663
   460.72         125.1805
   460.86         125.0717
   461.00         124.9407
   461.14         124.7941
   461.28         124.6426
   461.42         124.4986
   461.56         124.3680
   461.70         124.2463
   461.84         124.1268
   461.98         124.0039
   462.12         123.8750
   462.26         123.7370
   462.40         123.5861
   462.54         123.4199
   462.68         123.2354
   462.82         123.0306
   462.96         122.8097
   463.10         122.5831
   463.24         122.3575
   463.38         122.1350
   463.52         121.9161
   463.66         121.6971
   463.80         121.4605
   463.94         121.1793
   464.08         120.8370
   464.22         120.4368
   464.36         119.9938
   464.50         119.5252
   464.64         119.0493
   464.78         118.5918
   464.92         118.1877
   465.06         117.8714
   465.20         117.6669
   465.34         117.5850
   465.48         117.6198
   465.62         117.7481
   465.76         117.9378
   465.90         118.1549
   466.04         118.3642
   466.18         118.5309
   466.32         118.6268
   466.46         118.6387
   466.60         118.5723
   466.74         118.4433
   466.88         118.2636
   467.02         118.0380
   467.16         117.7617
   467.30         117.4104
   467.44         116.9395
   467.58         116.3043
   467.72         115.4889
   467.86         114.5193
   468.00         113.4562
   468.14         112.3835
   468.28         111.3957
   468.42         110.5858
   468.56         110.0312
   468.70         109.7788
   468.84         109.8419
   468.98         110.1997
   469.12         110.8026
   469.26         111.5776
   469.40         112.4359
   469.54         113.2921
   469.68         114.0764
   469.82         114.7332
   469.96         115.2231
   470.10         115.5391
   470.24         115.7116
   470.38         115.7889
   470.52         115.8107
   470.66         115.7947
   470.80         115.7384
   470.94         115.6277
   471.08         115.4479
   471.22         115.1896
   471.36         114.8478
   471.50         114.4304
   471.64         113.9640
   471.78         113.4904
   471.92         113.0554
   472.06         112.6992
   472.20         112.4480
   472.34         112.3047
   472.48         112.2507
   472.62         112.2608
   472.76         112.3142
   472.90         112.3986
   473.04         112.5058
   473.18         112.6204
   473.32         112.7191
   473.46         112.7814
   473.60         112.7966
   473.74         112.7642
   473.88         112.6964
   474.02         112.6134
   474.16         112.5383
   474.30         112.4912
   474.44         112.4843
   474.58         112.5199
   474.72         112.5880
   474.86         112.6686
   475.00         112.7392
   475.14         112.7847
   475.28         112.8024
   475.42         112.7988
   475.56         112.7821
   475.70         112.7512
   475.84         112.6935
   475.98         112.5981
   476.12         112.4605
   476.26         112.2795
   476.40         112.0575
   476.54         111.7956
   476.68         111.4901
   476.82         111.1366
   476.96         110.7359
   477.10         110.2956
   477.24         109.8270
   477.38         109.3492
   477.52         108.8910
   477.66         108.4886
   477.80         108.1778
   477.94         107.9810
   478.08         107.9003
   478.22         107.9229
   478.36         108.0248
   478.50         108.1768
   478.64         108.3561
   478.78         108.5445
   478.92         108.7213
   479.06         108.8622
   479.20         108.9395
   479.34         108.9302
   479.48         108.8301
   479.62         108.6544
   479.76         108.4281
   479.90         108.1755
   480.04         107.9178
   480.18         107.6695
   480.32         107.4346
   480.46         107.2094
   480.60         106.9995
   480.74         106.8239
   480.88         106.6929
   481.02         106.5945
   481.16         106.5086
   481.30         106.4206
   481.44         106.3174
   481.58         106.1858
   481.72         106.0221
   481.86         105.8356
   482.00         105.6481
   482.14         105.4843
   482.28         105.3576
   482.42         105.2736
   482.56         105.2385
   482.70         105.2573
   482.84         105.3296
   482.98         105.4527
   483.12         105.6290
   483.26         105.8567
   483.40         106.1137
   483.54         106.3565
   483.68         106.5444
   483.82         106.6551
   483.96         106.6764
   484.10         106.5955
   484.24         106.4023
   484.38         106.0882
   484.52         105.6372
   484.66         105.0218
   484.80         104.2009
   484.94         103.1244
   485.08         101.7489
   485.22         100.0615
   485.36         98.1000
   485.50         95.9593
   485.64         93.7811
   485.78         91.7291
   485.92         89.9592
   486.06         88.6011
   486.20         87.7484
   486.34         87.4547
   486.48         87.7270
   486.62         88.5211
   486.76         89.7465
   486.90         91.2738
   487.04         92.9439
   487.18         94.5884
   487.32         96.0551
   487.46         97.2332
   487.60         98.0740
   487.74         98.5967
   487.88         98.8734
   488.02         98.9952
   488.16         99.0395
   488.30         99.0624
   488.44         99.0987
   488.58         99.1627
   488.72         99.2556
   488.86         99.3766
   489.00         99.5317
   489.14         99.7253
   489.28         99.9467
   489.42         100.1669
   489.56         100.3474
   489.70         100.4597
   489.84         100.4938
   489.98         100.4556
   490.12         100.3623
   490.26         100.2330
   490.40         100.0865
   490.54         99.9370
   490.68         99.7908
   490.82         99.6473
   490.96         99.4963
   491.10         99.3165
   491.24         99.0860
   491.38         98.7984
   491.52         98.4651
   491.66         98.1070
   491.80         97.7436
   491.94         97.3929
   492.08         97.0752
   492.22         96.8169
   492.36         96.6466
   492.50         96.5855
   492.64         96.6380
   492.78         96.7892
   492.92         97.0124
   493.06         97.2736
   493.20         97.5349
   493.34         97.7595
   493.48         97.9236
   493.62         98.0183
   493.76         98.0468
   493.90         98.0302
   494.04         97.9983
   494.18         97.9678
   494.32         97.9377
   494.46         97.9036
   494.60         97.8606
   494.74         97.8029
   494.88         97.7366
   495.02         97.6740
   495.16         97.6241
   495.30         97.5876
   495.44         97.5597
   495.58         97.5422
   495.72         97.5372
   495.86         97.5391
   496.00         97.5332
   496.14         97.5052
   496.28         97.4433
   496.42         97.3394
   496.56         97.1971
   496.70         97.0239
   496.84         96.8276
   496.98         96.6194
   497.12         96.4138
   497.26         96.2180
   497.40         96.0337
   497.54         95.8639
   497.68         95.7076
   497.82         95.5601
   497.96         95.4117
   498.10         95.2570
   498.24         95.1042
   498.38         94.9599
   498.52         94.8204
   498.66         94.6818
   498.80         94.5476
   498.94         94.4263
   499.08         94.3255
   499.22         94.2513
   499.36         94.2069
   499.50         94.1953
   499.64         94.2193
   499.78         94.2748
   499.92         94.3473
   500.06         94.4110
   500.20         94.4348
   500.34         94.3869
   500.48         94.2398
   500.62         93.9800
   500.76         93.6142
   500.90         93.1643
   501.04         92.6536
   501.18         92.1099
   501.32         91.5767
   501.46         91.1060
   501.60         90.7442
   501.74         90.5192
   501.88         90.4376
   502.02         90.4828
   502.16         90.6196
   502.30         90.8009
   502.44         90.9764
   502.58         91.1079
   502.72         91.1743
   502.86         91.1704
   503.00         91.1058
   503.14         91.0051
   503.28         90.9004
   503.42         90.8119
   503.56         90.7429
   503.70         90.6874
   503.84         90.6402
   503.98         90.6028
   504.12         90.5799
   504.26         90.5733
   504.40         90.5749
   504.54         90.5678
   504.68         90.5353
   504.82         90.4704
   504.96         90.3709
   505.10         90.2325
   505.24         90.0530
   505.38         89.8329
   505.52         89.5788
   505.66         89.3080
   505.80         89.0413
   505.94         88.7923
   506.08         88.5648
   506.22         88.3643
   506.36         88.2049
   506.50         88.1018
   506.64         88.0592
   506.78         88.0645
   506.92         88.0996
   507.06         88.1491
   507.20         88.2007
   507.34         88.2501
   507.48         88.3006
   507.62         88.3576
   507.76         88.4267
   507.90         88.5138
   508.04         88.6226
   508.18         88.7495
   508.32         88.8794
   508.46         88.9814
   508.60         89.0209
   508.74         88.9813
   508.88         88.8692
   509.02         88.6994
   509.16         88.4832
   509.30         88.2264
   509.44         87.9387
   509.58         87.6362
   509.72         87.3327
   509.86         87.0375
   510.00         86.7645
   510.14         86.5323
   510.28         86.3515
   510.42         86.2205
   510.56         86.1315
   510.70         86.0744
   510.84         86.0351
   510.98         85.9967
   511.12         85.9463
   511.26         85.8807
   511.40         85.7998
   511.54         85.6962
   511.68         85.5542
   511.82         85.3627
   511.96         85.1258
   512.10         84.8651
   512.24         84.6125
   512.38         84.3968
   512.52         84.2382
   512.66         84.1496
   512.80         84.1330
   512.94         84.1808
   513.08         84.2778
   513.22         84.4029
   513.36         84.5359
   513.50         84.6617
   513.64         84.7663
   513.78         84.8371
   513.92         84.8630
   514.06         84.8306
   514.20         84.7312
   514.34         84.5641
   514.48         84.3378
   514.62         84.0650
   514.76         83.7576
   514.90         83.4267
   515.04         83.0827
   515.18         82.7401
   515.32         82.4173
   515.46         82.1295
   515.60         81.8859
   515.74         81.6913
   515.88         81.5490
   516.02         81.4622
   516.16         81.4275
   516.30         81.4265
   516.44         81.4341
   516.58         81.4325
   516.72         81.4120
   516.86         81.3706
   517.00         81.3106
   517.14         81.2364
   517.28         81.1549
   517.42         81.0774
   517.56         81.0167
   517.70         80.9799
   517.84         80.9651
   517.98         80.9652
   518.12         80.9694
   518.26         80.9681
   518.40         80.9565
   518.54         80.9294
   518.68         80.8782
   518.82         80.7957
   518.96         80.6818
   519.10         80.5462
   519.24         80.4021
   519.38         80.2603
   519.52         80.1291
   519.66         80.0148
   519.80         79.9208
   519.94         79.8456
   520.08         79.7815
   520.22         79.7144
   520.36         79.6297
   520.50         79.5225
   520.64         79.3976
   520.78         79.2628
   520.92         79.1238
   521.06         78.9835
   521.20         78.8431
   521.34         78.7052
   521.48         78.5791
   521.62         78.4773
   521.76         78.4038
   521.90         78.3582
   522.04         78.3404
   522.18         78.3442
   522.32         78.3571
   522.46         78.3683
   522.60         78.3722
   522.74         78.3602
   522.88         78.3218
   523.02         78.2543
   523.16         78.1559
   523.30         78.0208
   523.44         77.8465
   523.58         77.6407
   523.72         77.4173
   523.86         77.1893
   524.00         76.9665
   524.14         76.7581
   524.28         76.5694
   524.42         76.4029
   524.56         76.2650
   524.70         76.1608
   524.84         76.0891
   524.98         76.0464
   525.12         76.0294
   525.26         76.0337
   525.40         76.0503
   525.54         76.0729
   525.68         76.0967
   525.82         76.1121
   525.96         76.1122
   526.10         76.0989
   526.24         76.0759
   526.38         76.0399
   526.52         75.9836
   526.66         75.9040
   526.80         75.8021
   526.94         75.6783
   527.08         75.5325
   527.22         75.3655
   527.36         75.1770
   527.50         74.9673
   527.64         74.7414
   527.78         74.5077
   527.92         74.2769
   528.06         74.0610
   528.20         73.8730
   528.34         73.7251
   528.48         73.6244
   528.62         73.5731
   528.76         73.5689
   528.90         73.6019
   529.04         73.6559
   529.18         73.7154
   529.32         73.7684
   529.46         73.8023
   529.60         73.8052
   529.74         73.7716
   529.88         73.7017
   530.02         73.5985
   530.16         73.4678
   530.30         73.3148
   530.44         73.1427
   530.58         72.9565
   530.72         72.7619
   530.86         72.5635
   531.00         72.3667
   531.14         72.1762
   531.28         71.9985
   531.42         71.8473
   531.56         71.7363
   531.70         71.6692
   531.84         71.6400
   531.98         71.6409
   532.12         71.6653
   532.26         71.7081
   532.40         71.7621
   532.54         71.8162
   532.68         71.8569
   532.82         71.8722
   532.96         71.8561
   533.10         71.8087
   533.24         71.7372
   533.38         71.6489
   533.52         71.5485
   533.66         71.4434
   533.80         71.3434
   533.94         71.2567
   534.08         71.1887
   534.22         71.1383
   534.36         71.1007
   534.50         71.0727
   534.64         71.0527
   534.78         71.0355
   534.92         71.0096
   535.06         70.9613
   535.20         70.8807
   535.34         70.7625
   535.48         70.6064
   535.62         70.4158
   535.76         70.1960
   535.90         69.9542
   536.04         69.6963
   536.18         69.4314
   536.32         69.1762
   536.46         68.9450
   536.60         68.7492
   536.74         68.5995
   536.88         68.5043
   537.02         68.4652
   537.16         68.4713
   537.30         68.5079
   537.44         68.5634
   537.58         68.6267
   537.72         68.6873
   537.86         68.7338
   538.00         68.7540
   538.14         68.7404
   538.28         68.6922
   538.42         68.6141
   538.56         68.5154
   538.70         68.4091
   538.84         68.3120
   538.98         68.2366
   539.12         68.1880
   539.26         68.1664
   539.40         68.1641
   539.54         68.1677
   539.68         68.1610
   539.82         68.1188
   539.96         68.0114
   540.10         67.8067
   540.24         67.4783
   540.38         67.0230
   540.52         66.4630
   540.66         65.8413
   540.80         65.2134
   540.94         64.6352
   541.08         64.1573
   541.22         63.8183
   541.36         63.6421
   541.50         63.6375
   541.64         63.7956
   541.78         64.0937
   541.92         64.4956
   542.06         64.9547
   542.20         65.4230
   542.34         65.8522
   542.48         66.1974
   542.62         66.4317
   542.76         66.5532
   542.90         66.5853
   543.04         66.5594
   543.18         66.4967
   543.32         66.4112
   543.46         66.3146
   543.60         66.2160
   543.74         66.1238
   543.88         66.0426
   544.02         65.9738
   544.16         65.9181
   544.30         65.8726
   544.44         65.8303
   544.58         65.7801
   544.72         65.7121
   544.86         65.6226
   545.00         65.5098
   545.14         65.3742
   545.28         65.2224
   545.42         65.0642
   545.56         64.9103
   545.70         64.7653
   545.84         64.6339
   545.98         64.5309
   546.12         64.4726
   546.26         64.4705
   546.40         64.5262
   546.54         64.6243
   546.68         64.7422
   546.82         64.8582
   546.96         64.9526
   547.10         65.0088
   547.24         65.0167
   547.38         64.9737
   547.52         64.8839
   547.66         64.7535
   547.80         64.5892
   547.94         64.3993
   548.08         64.1946
   548.22         63.9890
   548.36         63.7949
   548.50         63.6240
   548.64         63.4863
   548.78         63.3850
   548.92         63.3163
   549.06         63.2713
   549.20         63.2443
   549.34         63.2380
   549.48         63.2550
   549.62         63.2881
   549.76         63.3259
   549.90         63.3608
   550.04         63.3885
   550.18         63.4040
   550.32         63.3984
   550.46         63.3619
   550.60         63.2906
   550.74         63.1884
   550.88         63.0602
   551.02         62.9072
   551.16         62.7327
   551.30         62.5459
   551.44         62.3578
   551.58         62.1778
   551.72         62.0125
   551.86         61.8644
   552.00         61.7294
   552.14         61.5984
   552.28         61.4654
   552.42         61.3340
   552.56         61.2101
   552.70         61.0944
   552.84         60.9842
   552.98         60.8769
   553.12         60.7708
   553.26         60.6654
   553.40         60.5634
   553.54         60.4654
   553.68         60.3714
   553.82         60.2843
   553.96         60.2047
   554.10         60.1294
   554.24         60.0550
   554.38         59.9787
   554.52         59.8989
   554.66         59.8171
   554.80         59.7408
   554.94         59.6818
   555.08         59.6491
   555.22         59.6442
   555.36         59.6635
   555.50         59.7004
   555.64         59.7483
   555.78         59.8006
   555.92         59.8524
   556.06         59.8996
   556.20         59.9367
   556.34         59.9580
   556.48         59.9610
   556.62         59.9451
   556.76         59.9122
   556.90         59.8657
   557.04         59.8085
   557.18         59.7467
   557.32         59.6902
   557.46         59.6485
   557.60         59.6259
   557.74         59.6186
   557.88         59.6153
   558.02         59.5983
   558.16         59.5473
   558.30         59.4476
   558.44         59.2936
   558.58         59.0908
   558.72         58.8546
   558.86         58.6064
   559.00         58.3700
   559.14         58.1662
   559.28         58.0110
   559.42         57.9186
   559.56         57.8995
   559.70         57.9578
   559.84         58.0910
   559.98         58.2851
   560.12         58.5171
   560.26         58.7583
   560.40         58.9778
   560.54         59.1502
   560.68         59.2592
   560.82         59.2995
   560.96         59.2763
   561.10         59.2000
   561.24         59.0849
   561.38         58.9438
   561.52         58.7857
   561.66         58.6160
   561.80         58.4384
   561.94         58.2583
   562.08         58.0836
   562.22         57.9214
   562.36         57.7768
   562.50         57.6506
   562.64         57.5368
   562.78         57.4267
   562.92         57.3135
   563.06         57.1942
   563.20         57.0701
   563.34         56.9448
   563.48         56.8257
   563.62         56.7229
   563.76         56.6447
   563.90         56.5956
   564.04         56.5742
   564.18         56.5729
   564.32         56.5824
   564.46         56.5905
   564.60         56.5839
   564.74         56.5527
   564.88         56.4920
   565.02         56.4000
   565.16         56.2783
   565.30         56.1349
   565.44         55.9842
   565.58         55.8407
   565.72         55.7165
   565.86         55.6212
   566.00         55.5623
   566.14         55.5426
   566.28         55.5559
   566.42         55.5928
   566.56         55.6438
   566.70         55.6954
   566.84         55.7339
   566.98         55.7492
   567.12         55.7365
   567.26         55.6994
   567.40         55.6492
   567.54         55.5997
   567.68         55.5609
   567.82         55.5350
   567.96         55.5191
   568.10         55.5093
   568.24         55.5033
   568.38         55.5024
   568.52         55.5072
   568.66         55.5162
   568.80         55.5240
   568.94         55.5218
   569.08         55.5013
   569.22         55.4524
   569.36         55.3652
   569.50         55.2365
   569.64         55.0705
   569.78         54.8789
   569.92         54.6776
   570.06         54.4816
   570.20         54.3035
   570.34         54.1513
   570.48         54.0305
   570.62         53.9475
   570.76         53.9081
   570.90         53.9142
   571.04         53.9590
   571.18         54.0263
   571.32         54.0957
   571.46         54.1465
   571.60         54.1614
   571.74         54.1309
   571.88         54.0548
   572.02         53.9428
   572.16         53.8081
   572.30         53.6666
   572.44         53.5352
   572.58         53.4248
   572.72         53.3397
   572.86         53.2798
   573.00         53.2422
   573.14         53.2248
   573.28         53.2242
   573.42         53.2327
   573.56         53.2389
   573.70         53.2291
   573.84         53.1944
   573.98         53.1353
   574.12         53.0564
   574.26         52.9606
   574.40         52.8472
   574.54         52.7155
   574.68         52.5679
   574.82         52.4090
   574.96         52.2474
   575.10         52.0953
   575.24         51.9655
   575.38         51.8681
   575.52         51.8064
   575.66         51.7809
   575.80         51.7879
   575.94         51.8178
   576.08         51.8587
   576.22         51.9009
   576.36         51.9362
   576.50         51.9567
   576.64         51.9532
   576.78         51.9088
   576.92         51.8013
   577.06         51.6174
   577.20         51.3617
   577.34         51.0541
   577.48         50.7219
   577.62         50.3958
   577.76         50.1052
   577.90         49.8717
   578.04         49.7042
   578.18         49.6054
   578.32         49.5768
   578.46         49.6116
   578.60         49.6938
   578.74         49.8027
   578.88         49.9170
   579.02         50.0136
   579.16         50.0692
   579.30         50.0672
   579.44         50.0009
   579.58         49.8774
   579.72         49.7173
   579.86         49.5440
   580.00         49.3778
   580.14         49.2342
   580.28         49.1212
   580.42         49.0402
   580.56         48.9901
   580.70         48.9709
   580.84         48.9805
   580.98         49.0129
   581.12         49.0624
   581.26         49.1254
   581.40         49.1995
   581.54         49.2819
   581.68         49.3709
   581.82         49.4670
   581.96         49.5711
   582.10         49.6800
   582.24         49.7858
   582.38         49.8789
   582.52         49.9502
   582.66         49.9959
   582.80         50.0162
   582.94         50.0113
   583.08         49.9828
   583.22         49.9349
   583.36         49.8710
   583.50         49.7935
   583.64         49.7100
   583.78         49.6333
   583.92         49.5742
   584.06         49.5395
   584.20         49.5325
   584.34         49.5529
   584.48         49.5965
   584.62         49.6567
   584.76         49.7297
   584.90         49.8147
   585.04         49.9120
   585.18         50.0205
   585.32         50.1359
   585.46         50.2519
   585.60         50.3605
   585.74         50.4544
   585.88         50.5267
   586.02         50.5680
   586.16         50.5646
   586.30         50.4940
   586.44         50.3244
   586.58         50.0312
   586.72         49.6118
   586.86         49.0854
   587.00         48.4887
   587.14         47.8708
   587.28         47.2840
   587.42         46.7747
   587.56         46.3773
   587.70         46.1036
   587.84         45.9376
   587.98         45.8511
   588.12         45.8183
   588.26         45.8111
   588.40         45.7909
   588.54         45.7184
   588.68         45.5710
   588.82         45.3483
   588.96         45.0690
   589.10         44.7715
   589.24         44.5111
   589.38         44.3430
   589.52         44.3027
   589.66         44.4016
   589.80         44.6320
   589.94         44.9676
   590.08         45.3693
   590.22         45.7944
   590.36         46.2015
   590.50         46.5590
   590.64         46.8525
   590.78         47.0771
   590.92         47.2287
   591.06         47.3111
   591.20         47.3429
   591.34         47.3502
   591.48         47.3520
   591.62         47.3588
   591.76         47.3763
   591.90         47.4049
   592.04         47.4390
   592.18         47.4662
   592.32         47.4728
   592.46         47.4532
   592.60         47.4092
   592.74         47.3475
   592.88         47.2735
   593.02         47.1902
   593.16         47.1042
   593.30         47.0246
   593.44         46.9611
   593.58         46.9223
   593.72         46.9131
   593.86         46.9309
   594.00         46.9635
   594.14         46.9945
   594.28         47.0075
   594.42         46.9891
   594.56         46.9290
   594.70         46.8233
   594.84         46.6771
   594.98         46.5066
   595.12         46.3347
   595.26         46.1813
   595.40         46.0585
   595.54         45.9717
   595.68         45.9255
   595.82         45.9218
   595.96         45.9530
   596.10         46.0046
   596.24         46.0602
   596.38         46.1042
   596.52         46.1210
   596.66         46.0990
   596.80         46.0371
   596.94         45.9413
   597.08         45.8179
   597.22         45.6753
   597.36         45.5285
   597.50         45.3946
   597.64         45.2831
   597.78         45.1953
   597.92         45.1295
   598.06         45.0816
   598.20         45.0456
   598.34         45.0146
   598.48         44.9814
   598.62         44.9402
   598.76         44.8899
   598.90         44.8340
   599.04         44.7763
   599.18         44.7177
   599.32         44.6607
   599.46         44.6083
   599.60         44.5587
   599.74         44.5089
   599.88         44.4586
   600.02         44.4093
   600.16         44.3571
   600.30         44.2938
   600.44         44.2132
   600.58         44.1135
   600.72         43.9973
   600.86         43.8721
   601.00         43.7489
   601.14         43.6375
   601.28         43.5452
   601.42         43.4749
   601.56         43.4240
   601.70         43.3866
   601.84         43.3551
   601.98         43.3217
   602.12         43.2805
   602.26         43.2304
   602.40         43.1772
   602.54         43.1264
   602.68         43.0784
   602.82         43.0303
   602.96         42.9797
   603.10         42.9300
   603.24         42.8906
   603.38         42.8697
   603.52         42.8678
   603.66         42.8781
   603.80         42.8941
   603.94         42.9114
   604.08         42.9277
   604.22         42.9439
   604.36         42.9637
   604.50         42.9889
   604.64         43.0203
   604.78         43.0598
   604.92         43.1075
   605.06         43.1605
   605.20         43.2131
   605.34         43.2612
   605.48         43.3043
   605.62         43.3410
   605.76         43.3680
   605.90         43.3787
   606.04         43.3666
   606.18         43.3297
   606.32         43.2724
   606.46         43.2025
   606.60         43.1267
   606.74         43.0514
   606.88         42.9824
   607.02         42.9217
   607.16         42.8694
   607.30         42.8243
   607.44         42.7864
   607.58         42.7584
   607.72         42.7447
   607.86         42.7466
   608.00         42.7604
   608.14         42.7786
   608.28         42.7927
   608.42         42.7967
   608.56         42.7900
   608.70         42.7762
   608.84         42.7553
   608.98         42.7228
   609.12         42.6741
   609.26         42.6068
   609.40         42.5235
   609.54         42.4314
   609.68         42.3390
   609.82         42.2530
   609.96         42.1789
   610.10         42.1225
   610.24         42.0879
   610.38         42.0736
   610.52         42.0718
   610.66         42.0723
   610.80         42.0665
   610.94         42.0489
   611.08         42.0192
   611.22         41.9798
   611.36         41.9318
   611.50         41.8747
   611.64         41.8097
   611.78         41.7389
   611.92         41.6631
   612.06         41.5839
   612.20         41.5041
   612.34         41.4249
   612.48         41.3475
   612.62         41.2757
   612.76         41.2143
   612.90         41.1652
   613.04         41.1267
   613.18         41.0969
   613.32         41.0761
   613.46         41.0636
   613.60         41.0565
   613.74         41.0519
   613.88         41.0438
   614.02         41.0246
   614.16         40.9898
   614.30         40.9366
   614.44         40.8667
   614.58         40.7869
   614.72         40.7086
   614.86         40.6420
   615.00         40.5938
   615.14         40.5658
   615.28         40.5541
   615.42         40.5506
   615.56         40.5434
   615.70         40.5223
   615.84         40.4826
   615.98         40.4226
   616.12         40.3422
   616.26         40.2453
   616.40         40.1398
   616.54         40.0333
   616.68         39.9336
   616.82         39.8453
   616.96         39.7683
   617.10         39.7041
   617.24         39.6561
   617.38         39.6255
   617.52         39.6084
   617.66         39.5977
   617.80         39.5843
   617.94         39.5616
   618.08         39.5302
   618.22         39.4953
   618.36         39.4646
   618.50         39.4445
   618.64         39.4355
   618.78         39.4334
   618.92         39.4298
   619.06         39.4168
   619.20         39.3905
   619.34         39.3510
   619.48         39.3015
   619.62         39.2486
   619.76         39.2041
   619.90         39.1806
   620.04         39.1854
   620.18         39.2216
   620.32         39.2910
   620.46         39.3930
   620.60         39.5197
   620.74         39.6563
   620.88         39.7851
   621.02         39.8872
   621.16         39.9465
   621.30         39.9530
   621.44         39.9055
   621.58         39.8091
   621.72         39.6749
   621.86         39.5185
   622.00         39.3572
   622.14         39.2070
   622.28         39.0806
   622.42         38.9878
   622.56         38.9335
   622.70         38.9146
   622.84         38.9257
   622.98         38.9615
   623.12         39.0143
   623.26         39.0769
   623.40         39.1475
   623.54         39.2261
   623.68         39.3106
   623.82         39.3982
   623.96         39.4832
   624.10         39.5579
   624.24         39.6166
   624.38         39.6575
   624.52         39.6803
   624.66         39.6831
   624.80         39.6632
   624.94         39.6193
   625.08         39.5533
   625.22         39.4697
   625.36         39.3759
   625.50         39.2812
   625.64         39.1910
   625.78         39.1061
   625.92         39.0252
   626.06         38.9464
   626.20         38.8667
   626.34         38.7821
   626.48         38.6865
   626.62         38.5703
   626.76         38.4273
   626.90         38.2571
   627.04         38.0603
   627.18         37.8391
   627.32         37.5971
   627.46         37.3425
   627.60         37.0914
   627.74         36.8646
   627.88         36.6828
   628.02         36.5623
   628.16         36.5094
   628.30         36.5214
   628.44         36.5897
   628.58         36.7019
   628.72         36.8436
   628.86         36.9981
   629.00         37.1447
   629.14         37.2606
   629.28         37.3298
   629.42         37.3489
   629.56         37.3213
   629.70         37.2526
   629.84         37.1501
   629.98         37.0237
   630.12         36.8880
   630.26         36.7568
   630.40         36.6377
   630.54         36.5331
   630.68         36.4428
   630.82         36.3656
   630.96         36.3012
   631.10         36.2530
   631.24         36.2270
   631.38         36.2287
   631.52         36.2603
   631.66         36.3201
   631.80         36.4075
   631.94         36.5227
   632.08         36.6613
   632.22         36.8111
   632.36         36.9546
   632.50         37.0735
   632.64         37.1550
   632.78         37.1932
   632.92         37.1853
   633.06         37.1316
   633.20         37.0356
   633.34         36.9039
   633.48         36.7473
   633.62         36.5808
   633.76         36.4217
   633.90         36.2837
   634.04         36.1749
   634.18         36.0983
   634.32         36.0520
   634.46         36.0316
   634.60         36.0295
   634.74         36.0347
   634.88         36.0374
   635.02         36.0330
   635.16         36.0213
   635.30         36.0035
   635.44         35.9805
   635.58         35.9535
   635.72         35.9239
   635.86         35.8929
   636.00         35.8616
   636.14         35.8306
   636.28         35.7978
   636.42         35.7578
   636.56         35.7041
   636.70         35.6327
   636.84         35.5419
   636.98         35.4315
   637.12         35.3027
   637.26         35.1581
   637.40         35.0042
   637.54         34.8512
   637.68         34.7104
   637.82         34.5910
   637.96         34.5010
   638.10         34.4476
   638.24         34.4339
   638.38         34.4576
   638.52         34.5117
   638.66         34.5867
   638.80         34.6725
   638.94         34.7597
   639.08         34.8413
   639.22         34.9117
   639.36         34.9657
   639.50         34.9998
   639.64         35.0134
   639.78         35.0098
   639.92         34.9939
   640.06         34.9705
   640.20         34.9429
   640.34         34.9142
   640.48         34.8887
   640.62         34.8694
   640.76         34.8562
   640.90         34.8473
   641.04         34.8398
   641.18         34.8297
   641.32         34.8161
   641.46         34.8018
   641.60         34.7902
   641.74         34.7821
   641.88         34.7748
   642.02         34.7653
   642.16         34.7511
   642.30         34.7295
   642.44         34.6975
   642.58         34.6544
   642.72         34.6019
   642.86         34.5415
   643.00         34.4754
   643.14         34.4076
   643.28         34.3421
   643.42         34.2796
   643.56         34.2171
   643.70         34.1521
   643.84         34.0841
   643.98         34.0141
   644.12         33.9425
   644.26         33.8688
   644.40         33.7927
   644.54         33.7139
   644.68         33.6329
   644.82         33.5516
   644.96         33.4732
   645.10         33.4019
   645.24         33.3419
   645.38         33.2937
   645.52         33.2555
   645.66         33.2263
   645.80         33.2050
   645.94         33.1898
   646.08         33.1774
   646.22         33.1657
   646.36         33.1564
   646.50         33.1520
   646.64         33.1547
   646.78         33.1666
   646.92         33.1912
   647.06         33.2315
   647.20         33.2871
   647.34         33.3555
   647.48         33.4332
   647.62         33.5160
   647.76         33.5994
   647.90         33.6768
   648.04         33.7397
   648.18         33.7815
   648.32         33.7991
   648.46         33.7933
   648.60         33.7684
   648.74         33.7309
   648.88         33.6873
   649.02         33.6449
   649.16         33.6101
   649.30         33.5863
   649.44         33.5751
   649.58         33.5768
   649.72         33.5889
   649.86         33.6062
   650.00         33.6241
   650.14         33.6384
   650.28         33.6441
   650.42         33.6359
   650.56         33.6085
   650.70         33.5600
   650.84         33.4927
   650.98         33.4113
   651.12         33.3216
   651.26         33.2311
   651.40         33.1449
   651.54         33.0653
   651.68         32.9946
   651.82         32.9352
   651.96         32.8878
   652.10         32.8523
   652.24         32.8297
   652.38         32.8204
   652.52         32.8236
   652.66         32.8376
   652.80         32.8613
   652.94         32.8935
   653.08         32.9316
   653.22         32.9711
   653.36         33.0065
   653.50         33.0316
   653.64         33.0411
   653.78         33.0340
   653.92         33.0121
   654.06         32.9763
   654.20         32.9255
   654.34         32.8563
   654.48         32.7623
   654.62         32.6328
   654.76         32.4546
   654.90         32.2120
   655.04         31.8862
   655.18         31.4594
   655.32         30.9262
   655.46         30.3009
   655.60         29.6153
   655.74         28.9143
   655.88         28.2516
   656.02         27.6832
   656.16         27.2585
   656.30         27.0143
   656.44         26.9694
   656.58         27.1231
   656.72         27.4567
   656.86         27.9357
   657.00         28.5158
   657.14         29.1462
   657.28         29.7739
   657.42         30.3517
   657.56         30.8449
   657.70         31.2359
   657.84         31.5259
   657.98         31.7303
   658.12         31.8695
   658.26         31.9598
   658.40         32.0138
   658.54         32.0422
   658.68         32.0532
   658.82         32.0526
   658.96         32.0450
   659.10         32.0350
   659.24         32.0286
   659.38         32.0305
   659.52         32.0416
   659.66         32.0598
   659.80         32.0794
   659.94         32.0938
   660.08         32.0971
   660.22         32.0832
   660.36         32.0485
   660.50         31.9922
   660.64         31.9153
   660.78         31.8211
   660.92         31.7149
   661.06         31.6049
   661.20         31.5015
   661.34         31.4128
   661.48         31.3441
   661.62         31.2984
   661.76         31.2768
   661.90         31.2782
   662.04         31.2981
   662.18         31.3293
   662.32         31.3626
   662.46         31.3880
   662.60         31.3979
   662.74         31.3884
   662.88         31.3610
   663.02         31.3234
   663.16         31.2828
   663.30         31.2423
   663.44         31.2023
   663.58         31.1638
   663.72         31.1293
   663.86         31.0989
   664.00         31.0688
   664.14         31.0347
   664.28         30.9922
   664.42         30.9376
   664.56         30.8690
   664.70         30.7868
   664.84         30.6933
   664.98         30.5912
   665.12         30.4829
   665.26         30.3730
   665.40         30.2679
   665.54         30.1763
   665.68         30.1062
   665.82         30.0591
   665.96         30.0320
   666.10         30.0211
   666.24         30.0216
   666.38         30.0256
   666.52         30.0190
   666.66         29.9845
   666.80         29.9081
   666.94         29.7845
   667.08         29.6171
   667.22         29.4160
   667.36         29.1933
   667.50         28.9643
   667.64         28.7443
   667.78         28.5491
   667.92         28.3950
   668.06         28.2968
   668.20         28.2632
   668.34         28.2944
   668.48         28.3818
   668.62         28.5117
   668.76         28.6678
   668.90         28.8327
   669.04         28.9884
   669.18         29.1213
   669.32         29.2270
   669.46         29.3086
   669.60         29.3722
   669.74         29.4221
   669.88         29.4606
   670.02         29.4887
   670.16         29.5088
   670.30         29.5221
   670.44         29.5281
   670.58         29.5271
   670.72         29.5204
   670.86         29.5079
   671.00         29.4900
   671.14         29.4679
   671.28         29.4434
   671.42         29.4198
   671.56         29.4023
   671.70         29.3973
   671.84         29.4095
   671.98         29.4416
   672.12         29.4923
   672.26         29.5555
   672.40         29.6220
   672.54         29.6798
   672.68         29.7178
   672.82         29.7268
   672.96         29.6995
   673.10         29.6334
   673.24         29.5336
   673.38         29.4099
   673.52         29.2731
   673.66         29.1336
   673.80         29.0005
   673.94         28.8806
   674.08         28.7808
   674.22         28.7076
   674.36         28.6643
   674.50         28.6521
   674.64         28.6699
   674.78         28.7086
   674.92         28.7549
   675.06         28.7961
   675.20         28.8228
   675.34         28.8293
   675.48         28.8122
   675.62         28.7724
   675.76         28.7152
   675.90         28.6462
   676.04         28.5684
   676.18         28.4840
   676.32         28.3967
   676.46         28.3119
   676.60         28.2362
   676.74         28.1755
   676.88         28.1329
   677.02         28.1070
   677.16         28.0935
   677.30         28.0854
   677.44         28.0755
   677.58         28.0610
   677.72         28.0431
   677.86         28.0248
   678.00         28.0080
   678.14         27.9924
   678.28         27.9774
   678.42         27.9624
   678.56         27.9456
   678.70         27.9255
   678.84         27.9041
   678.98         27.8864
   679.12         27.8777
   679.26         27.8807
   679.40         27.8956
   679.54         27.9215
   679.68         27.9578
   679.82         28.0036
   679.96         28.0558
   680.10         28.1086
   680.24         28.1566
   680.38         28.1946
   680.52         28.2162
   680.66         28.2154
   680.80         28.1893
   680.94         28.1406
   681.08         28.0751
   681.22         27.9975
   681.36         27.9130
   681.50         27.8272
   681.64         27.7453
   681.78         27.6703
   681.92         27.6042
   682.06         27.5479
   682.20         27.5015
   682.34         27.4634
   682.48         27.4318
   682.62         27.4054
   682.76         27.3852
   682.90         27.3730
   683.04         27.3688
   683.18         27.3723
   683.32         27.3836
   683.46         27.4027
   683.60         27.4267
   683.74         27.4506
   683.88         27.4688
   684.02         27.4798
   684.16         27.4853
   684.30         27.4884
   684.44         27.4897
   684.58         27.4861
   684.72         27.4728
   684.86         27.4466
   685.00         27.4070
   685.14         27.3567
   685.28         27.2984
   685.42         27.2284
   685.56         27.1334
   685.70         26.9909
   685.84         26.7762
   685.98         26.4704
   686.12         26.0648
   686.26         25.5642
   686.40         24.9874
   686.54         24.3657
   686.68         23.7378
   686.82         23.1453
   686.96         22.6290
   687.10         22.2255
   687.24         21.9626
   687.38         21.8545
   687.52         21.8983
   687.66         22.0759
   687.80         22.3543
   687.94         22.6882
   688.08         23.0248
   688.22         23.3168
   688.36         23.5342
   688.50         23.6691
   688.64         23.7308
   688.78         23.7386
   688.92         23.7172
   689.06         23.6920
   689.20         23.6834
   689.34         23.7039
   689.48         23.7604
   689.62         23.8522
   689.76         23.9691
   689.90         24.0955
   690.04         24.2153
   690.18         24.3163
   690.32         24.3917
   690.46         24.4402
   690.60         24.4663
   690.74         24.4787
   690.88         24.4909
   691.02         24.5181
   691.16         24.5725
   691.30         24.6616
   691.44         24.7867
   691.58         24.9422
   691.72         25.1165
   691.86         25.2957
   692.00         25.4695
   692.14         25.6312
   692.28         25.7737
   692.42         25.8907
   692.56         25.9781
   692.70         26.0322
   692.84         26.0489
   692.98         26.0273
   693.12         25.9720
   693.26         25.8911
   693.40         25.7926
   693.54         25.6842
   693.68         25.5730
   693.82         25.4661
   693.96         25.3705
   694.10         25.2922
   694.24         25.2364
   694.38         25.2067
   694.52         25.2032
   694.66         25.2219
   694.80         25.2566
   694.94         25.3003
   695.08         25.3479
   695.22         25.3968
   695.36         25.4478
   695.50         25.5046
   695.64         25.5739
   695.78         25.6636
   695.92         25.7806
   696.06         25.9290
   696.20         26.1071
   696.34         26.3077
   696.48         26.5219
   696.62         26.7396
   696.76         26.9510
   696.90         27.1470
   697.04         27.3176
   697.18         27.4532
   697.32         27.5481
   697.46         27.6005
   697.60         27.6106
   697.74         27.5798
   697.88         27.5123
   698.02         27.4164
   698.16         27.3022
   698.30         27.1808
   698.44         27.0617
   698.58         26.9506
   698.72         26.8472
   698.86         26.7479
   699.00         26.6525
   699.14         26.5659
   699.28         26.4920
   699.42         26.4299
   699.56         26.3757
   699.70         26.3237
   699.84         26.2691
   699.98         26.2093
   700.12         26.1424
   700.26         26.0665
   700.40         25.9815
   700.54         25.8902
   700.68         25.7955
   700.82         25.6984
   700.96         25.5983
   701.10         25.4937
   701.24         25.3835
   701.38         25.2692
   701.52         25.1559
   701.66         25.0496
   701.80         24.9552
   701.94         24.8765
   702.08         24.8176
   702.22         24.7819
   702.36         24.7700
   702.50         24.7803
   702.64         24.8098
   702.78         24.8524
   702.92         24.8992
   703.06         24.9411
   703.20         24.9703
   703.34         24.9815
   703.48         24.9732
   703.62         24.9463
   703.76         24.9036
   703.90         24.8496
   704.04         24.7922
   704.18         24.7387
   704.32         24.6950
   704.46         24.6680
   704.60         24.6632
   704.74         24.6803
   704.88         24.7151
   705.02         24.7608
   705.16         24.8057
   705.30         24.8323
   705.44         24.8219
   705.58         24.7630
   705.72         24.6564
   705.86         24.5148
   706.00         24.3566
   706.14         24.2015
   706.28         24.0672
   706.42         23.9678
   706.56         23.9145
   706.70         23.9144
   706.84         23.9672
   706.98         24.0675
   707.12         24.2071
   707.26         24.3738
   707.40         24.5520
   707.54         24.7237
   707.68         24.8690
   707.82         24.9708
   707.96         25.0230
   708.10         25.0313
   708.24         25.0085
   708.38         24.9692
   708.52         24.9254
   708.66         24.8828
   708.80         24.8407
   708.94         24.7945
   709.08         24.7410
   709.22         24.6795
   709.36         24.6100
   709.50         24.5333
   709.64         24.4516
   709.78         24.3660
   709.92         24.2747
   710.06         24.1755
   710.20         24.0705
   710.34         23.9679
   710.48         23.8793
   710.62         23.8155
   710.76         23.7825
   710.90         23.7817
   711.04         23.8118
   711.18         23.8675
   711.32         23.9407
   711.46         24.0243
   711.60         24.1160
   711.74         24.2155
   711.88         24.3194
   712.02         24.4228
   712.16         24.5240
   712.30         24.6215
   712.44         24.7125
   712.58         24.7952
   712.72         24.8715
   712.86         24.9438
   713.00         25.0109
   713.14         25.0671
   713.28         25.1055
   713.42         25.1198
   713.56         25.1059
   713.70         25.0640
   713.84         24.9976
   713.98         24.9121
   714.12         24.8154
   714.26         24.7169
   714.40         24.6247
   714.54         24.5456
   714.68         24.4862
   714.82         24.4483
   714.96         24.4254
   715.10         24.4081
   715.24         24.3899
   715.38         24.3682
   715.52         24.3388
   715.66         24.2938
   715.80         24.2264
   715.94         24.1343
   716.08         24.0194
   716.22         23.8868
   716.36         23.7436
   716.50         23.5943
   716.64         23.4427
   716.78         23.2962
   716.92         23.1619
   717.06         23.0422
   717.20         22.9341
   717.34         22.8274
   717.48         22.7094
   717.62         22.5758
   717.76         22.4330
   717.90         22.2900
   718.04         22.1516
   718.18         22.0201
   718.32         21.9008
   718.46         21.8029
   718.60         21.7364
   718.74         21.7052
   718.88         21.7054
   719.02         21.7298
   719.16         21.7732
   719.30         21.8318
   719.44         21.9028
   719.58         21.9842
   719.72         22.0752
   719.86         22.1745
   720.00         22.2841
   720.14         22.4126
   720.28         22.5689
   720.42         22.7547
   720.56         22.9627
   720.70         23.1838
   720.84         23.4109
   720.98         23.6349
   721.12         23.8432
   721.26         24.0226
   721.40         24.1655
   721.54         24.2735
   721.68         24.3553
   721.82         24.4185
   721.96         24.4643
   722.10         24.4908
   722.24         24.4946
   722.38         24.4704
   722.52         24.4185
   722.66         24.3460
   722.80         24.2571
   722.94         24.1500
   723.08         24.0220
   723.22         23.8720
   723.36         23.7033
   723.50         23.5264
   723.64         23.3555
   723.78         23.2038
   723.92         23.0804
   724.06         22.9868
   724.20         22.9160
   724.34         22.8587
   724.48         22.8080
   724.62         22.7596
   724.76         22.7130
   724.90         22.6715
   725.04         22.6392
   725.18         22.6173
   725.32         22.5988
   725.46         22.5741
   725.60         22.5424
   725.74         22.5119
   725.88         22.4944
   726.02         22.5011
   726.16         22.5380
   726.30         22.6016
   726.44         22.6795
   726.58         22.7575
   726.72         22.8279
   726.86         22.8904
   727.00         22.9462
   727.14         22.9952
   727.28         23.0376
   727.42         23.0734
   727.56         23.1010
   727.70         23.1184
   727.84         23.1243
   727.98         23.1191
   728.12         23.1061
   728.26         23.0917
   728.40         23.0811
   728.54         23.0759
   728.68         23.0749
   728.82         23.0768
   728.96         23.0801
   729.10         23.0835
   729.24         23.0883
   729.38         23.0975
   729.52         23.1111
   729.66         23.1282
   729.80         23.1473
   729.94         23.1632
   730.08         23.1700
   730.22         23.1651
   730.36         23.1504
   730.50         23.1285
   730.64         23.1026
   730.78         23.0791
   730.92         23.0650
   731.06         23.0631
   731.20         23.0698
   731.34         23.0791
   731.48         23.0857
   731.62         23.0838
   731.76         23.0686
   731.90         23.0389
   732.04         22.9954
   732.18         22.9403
   732.32         22.8760
   732.46         22.8059
   732.60         22.7369
   732.74         22.6779
   732.88         22.6354
   733.02         22.6117
   733.16         22.6051
   733.30         22.6120
   733.44         22.6289
   733.58         22.6513
   733.72         22.6742
   733.86         22.6935
   734.00         22.7077
   734.14         22.7191
   734.28         22.7307
   734.42         22.7469
   734.56         22.7719
   734.70         22.8074
   734.84         22.8518
   734.98         22.9022
   735.12         22.9553
   735.26         23.0063
   735.40         23.0473
   735.54         23.0703
   735.68         23.0698
   735.82         23.0440
   735.96         22.9969
   736.10         22.9375
   736.24         22.8753
   736.38         22.8188
   736.52         22.7744
   736.66         22.7471
   736.80         22.7382
   736.94         22.7438
   737.08         22.7583
   737.22         22.7760
   737.36         22.7906
   737.50         22.7985
   737.64         22.8015
   737.78         22.8025
   737.92         22.8014
   738.06         22.7968
   738.20         22.7878
   738.34         22.7747
   738.48         22.7582
   738.62         22.7370
   738.76         22.7074
   738.90         22.6654
   739.04         22.6079
   739.18         22.5310
   739.32         22.4302
   739.46         22.3036
   739.60         22.1548
   739.74         21.9921
   739.88         21.8259
   740.02         21.6680
   740.16         21.5300
   740.30         21.4196
   740.44         21.3404
   740.58         21.2938
   740.72         21.2808
   740.86         21.3034
   741.00         21.3622
   741.14         21.4547
   741.28         21.5758
   741.42         21.7174
   741.56         21.8690
   741.70         22.0186
   741.84         22.1551
   741.98         22.2730
   742.12         22.3730
   742.26         22.4558
   742.40         22.5222
   742.54         22.5729
   742.68         22.6078
   742.82         22.6254
   742.96         22.6254
   743.10         22.6078
   743.24         22.5729
   743.38         22.5222
   743.52         22.4558
   743.66         22.3730
   743.80         22.2730
   743.94         22.1551
   744.08         22.0186
   744.22         21.8690
