# File HD50064
# Wavelength [nm]    Normalized Amplitude
   349.70         1308.2123
   349.84         1311.4798
   349.98         1316.8857
   350.12         1323.8909
   350.26         1331.6949
   350.40         1339.5189
   350.54         1346.8614
   350.68         1353.3683
   350.82         1358.5471
   350.96         1361.8614
   351.10         1362.9941
   351.24         1361.8614
   351.38         1358.5471
   351.52         1353.3683
   351.66         1346.8614
   351.80         1339.5189
   351.94         1331.6949
   352.08         1323.8909
   352.22         1316.8857
   352.36         1311.4798
   352.50         1308.2123
   352.64         1307.3100
   352.78         1308.6924
   352.92         1312.0724
   353.06         1317.1682
   353.20         1323.6130
   353.34         1330.7931
   353.48         1338.0180
   353.62         1344.7786
   353.76         1350.6994
   353.90         1355.4481
   354.04         1358.8486
   354.18         1360.8617
   354.32         1361.5448
   354.46         1361.0930
   354.60         1359.8171
   354.74         1358.1260
   354.88         1356.4103
   355.02         1354.8894
   355.16         1353.5824
   355.30         1352.4436
   355.44         1351.5256
   355.58         1350.9037
   355.72         1350.5457
   355.86         1350.3619
   356.00         1350.2650
   356.14         1350.1300
   356.28         1349.8035
   356.42         1349.1880
   356.56         1348.1992
   356.70         1346.6599
   356.84         1344.4246
   356.98         1341.5898
   357.12         1338.4355
   357.26         1335.2800
   357.40         1332.3884
   357.54         1329.8185
   357.68         1327.4010
   357.82         1324.9148
   357.96         1322.2633
   358.10         1319.5198
   358.24         1316.7696
   358.38         1314.0223
   358.52         1311.2655
   358.66         1308.4240
   358.80         1305.3721
   358.94         1302.0220
   359.08         1298.3368
   359.22         1294.3471
   359.36         1290.2573
   359.50         1286.4727
   359.64         1283.3956
   359.78         1281.1999
   359.92         1279.7872
   360.06         1278.8898
   360.20         1278.2013
   360.34         1277.5054
   360.48         1276.7429
   360.62         1276.0031
   360.76         1275.3829
   360.90         1274.7472
   361.04         1273.8231
   361.18         1272.5223
   361.32         1270.9476
   361.46         1269.2827
   361.60         1267.7296
   361.74         1266.4134
   361.88         1265.3797
   362.02         1264.6197
   362.16         1263.9459
   362.30         1262.9739
   362.44         1261.3217
   362.58         1258.7619
   362.72         1255.2931
   362.86         1251.1323
   363.00         1246.6724
   363.14         1242.4745
   363.28         1239.1723
   363.42         1237.2066
   363.56         1236.7232
   363.70         1237.7695
   363.84         1240.3800
   363.98         1244.4486
   364.12         1249.7262
   364.26         1255.8578
   364.40         1262.3826
   364.54         1268.8136
   364.68         1274.7417
   364.82         1279.8018
   364.96         1283.6822
   365.10         1286.2160
   365.24         1287.3606
   365.38         1287.1803
   365.52         1285.8983
   365.66         1283.7280
   365.80         1280.7818
   365.94         1277.1643
   366.08         1273.0144
   366.22         1268.6429
   366.36         1264.5265
   366.50         1261.0977
   366.64         1258.6308
   366.78         1257.2279
   366.92         1256.7864
   367.06         1257.1049
   367.20         1257.9613
   367.34         1259.1494
   367.48         1260.4673
   367.62         1261.6782
   367.76         1262.6099
   367.90         1263.1857
   368.04         1263.3665
   368.18         1263.1664
   368.32         1262.5927
   368.46         1261.7040
   368.60         1260.6804
   368.74         1259.7271
   368.88         1259.0087
   369.02         1258.5781
   369.16         1258.3479
   369.30         1258.1130
   369.44         1257.6150
   369.58         1256.6946
   369.72         1255.3954
   369.86         1253.8495
   370.00         1252.1373
   370.14         1250.2550
   370.28         1248.2376
   370.42         1246.3682
   370.56         1245.1970
   370.70         1245.2178
   370.84         1246.5780
   370.98         1248.9852
   371.12         1251.8270
   371.26         1254.5047
   371.40         1256.6019
   371.54         1257.8841
   371.68         1258.2990
   371.82         1257.9359
   371.96         1256.9696
   372.10         1255.6638
   372.24         1254.2269
   372.38         1252.6136
   372.52         1250.6294
   372.66         1248.1358
   372.80         1245.2594
   372.94         1242.4555
   373.08         1240.2213
   373.22         1238.7582
   373.36         1237.8793
   373.50         1237.3131
   373.64         1236.8950
   373.78         1236.4161
   373.92         1235.5931
   374.06         1234.1981
   374.20         1232.1499
   374.34         1229.4997
   374.48         1226.3503
   374.62         1222.7604
   374.76         1218.8342
   374.90         1214.9096
   375.04         1211.6300
   375.18         1209.7645
   375.32         1209.7965
   375.46         1211.8111
   375.60         1215.5572
   375.74         1220.3084
   375.88         1224.8850
   376.02         1227.9801
   376.16         1228.5516
   376.30         1226.0983
   376.44         1220.8016
   376.58         1213.5787
   376.72         1205.8343
   376.86         1198.9773
   377.00         1194.0924
   377.14         1191.8146
   377.28         1192.3447
   377.42         1195.5525
   377.56         1201.0457
   377.70         1208.1741
   377.84         1216.0391
   377.98         1223.6458
   378.12         1230.1273
   378.26         1234.7902
   378.40         1237.0608
   378.54         1236.5479
   378.68         1233.1867
   378.82         1227.3184
   378.96         1219.6056
   379.10         1210.8473
   379.24         1201.8519
   379.38         1193.3654
   379.52         1186.0079
   379.66         1180.2794
   379.80         1176.5670
   379.94         1175.0628
   380.08         1175.7426
   380.22         1178.4592
   380.36         1182.9344
   380.50         1188.7252
   380.64         1195.2551
   380.78         1201.7649
   380.92         1207.4119
   381.06         1211.5478
   381.20         1213.9096
   381.34         1214.6946
   381.48         1214.4547
   381.62         1213.7935
   381.76         1213.1353
   381.90         1212.6793
   382.04         1212.3402
   382.18         1211.7354
   382.32         1210.3196
   382.46         1207.4898
   382.60         1202.7009
   382.74         1195.7216
   382.88         1186.7874
   383.02         1176.4913
   383.16         1165.6210
   383.30         1155.0863
   383.44         1145.8990
   383.58         1139.1050
   383.72         1135.6070
   383.86         1135.8769
   384.00         1139.8075
   384.14         1146.7891
   384.28         1155.8421
   384.42         1165.8624
   384.56         1175.7935
   384.70         1184.6410
   384.84         1191.5734
   384.98         1196.0636
   385.12         1197.9633
   385.26         1197.5101
   385.40         1195.1837
   385.54         1191.4494
   385.68         1186.6726
   385.82         1181.1938
   385.96         1175.3607
   386.10         1169.4629
   386.24         1163.6153
   386.38         1157.8493
   386.52         1152.2694
   386.66         1147.0523
   386.80         1142.4247
   386.94         1138.6194
   387.08         1135.8106
   387.22         1134.0531
   387.36         1133.2178
   387.50         1132.9755
   387.64         1132.8555
   387.78         1132.2577
   387.92         1130.5458
   388.06         1127.3219
   388.20         1122.6128
   388.34         1116.8135
   388.48         1110.4819
   388.62         1104.2034
   388.76         1098.5486
   388.90         1093.9781
   389.04         1090.8682
   389.18         1089.5503
   389.32         1090.1779
   389.46         1092.6014
   389.60         1096.3560
   389.74         1100.7855
   389.88         1105.1846
   390.02         1108.8853
   390.16         1111.3272
   390.30         1112.1708
   390.44         1111.3997
   390.58         1109.3316
   390.72         1106.4358
   390.86         1103.0690
   391.00         1099.4189
   391.14         1095.6496
   391.28         1091.9414
   391.42         1088.4054
   391.56         1085.0426
   391.70         1081.8225
   391.84         1078.6932
   391.98         1075.3866
   392.12         1071.3163
   392.26         1065.7847
   392.40         1058.3652
   392.54         1049.1418
   392.68         1038.6785
   392.82         1027.7988
   392.96         1017.4014
   393.10         1008.3081
   393.24         1001.1547
   393.38         996.3868
   393.52         994.3047
   393.66         995.0658
   393.80         998.5907
   393.94         1004.5294
   394.08         1012.3054
   394.22         1021.1455
   394.36         1030.1965
   394.50         1038.6140
   394.64         1045.6499
   394.78         1050.8815
   394.92         1054.3398
   395.06         1056.3931
   395.20         1057.3655
   395.34         1057.3049
   395.48         1055.9827
   395.62         1052.8820
   395.76         1047.3246
   395.90         1038.7997
   396.04         1027.3440
   396.18         1013.6560
   396.32         998.8574
   396.46         984.2425
   396.60         971.1369
   396.74         960.7034
   396.88         953.7822
   397.02         950.8551
   397.16         951.9981
   397.30         956.9012
   397.44         964.9130
   397.58         975.0364
   397.72         986.0409
   397.86         996.6477
   398.00         1005.7441
   398.14         1012.4726
   398.28         1016.2898
   398.42         1017.1464
   398.56         1015.5370
   398.70         1012.2862
   398.84         1008.1706
   398.98         1003.7200
   399.12         999.3193
   399.26         995.2627
   399.40         991.7090
   399.54         988.6747
   399.68         986.0633
   399.82         983.7315
   399.96         981.5386
   400.10         979.3674
   400.24         977.1734
   400.38         974.9900
   400.52         972.8902
   400.66         970.9503
   400.80         969.1945
   400.94         967.6088
   401.08         966.1930
   401.22         964.9541
   401.36         963.8673
   401.50         962.8549
   401.64         961.8107
   401.78         960.6536
   401.92         959.3672
   402.06         957.9805
   402.20         956.5340
   402.34         955.0722
   402.48         953.6873
   402.62         952.5322
   402.76         951.7789
   402.90         951.5625
   403.04         951.8560
   403.18         952.5025
   403.32         953.3541
   403.46         954.2678
   403.60         955.0783
   403.74         955.6230
   403.88         955.8068
   404.02         955.6403
   404.16         955.2121
   404.30         954.6514
   404.44         954.0796
   404.58         953.5514
   404.72         952.9781
   404.86         952.1685
   405.00         950.9981
   405.14         949.4765
   405.28         947.6821
   405.42         945.6727
   405.56         943.4476
   405.70         940.9751
   405.84         938.2636
   405.98         935.3512
   406.12         932.2567
   406.26         929.0266
   406.40         925.7805
   406.54         922.6550
   406.68         919.7172
   406.82         916.9997
   406.96         914.5783
   407.10         912.5263
   407.24         910.8509
   407.38         909.5067
   407.52         908.4716
   407.66         907.7798
   407.80         907.4521
   407.94         907.4675
   408.08         907.7700
   408.22         908.2658
   408.36         908.8536
   408.50         909.4429
   408.64         909.9625
   408.78         910.3115
   408.92         910.2546
   409.06         909.4166
   409.20         907.4657
   409.34         904.3110
   409.48         900.1240
   409.62         895.2347
   409.76         890.0643
   409.90         885.1142
   410.04         880.8885
   410.18         877.8046
   410.32         876.1154
   410.46         875.8352
   410.60         876.7969
   410.74         878.7280
   410.88         881.2413
   411.02         883.8506
   411.16         886.0913
   411.30         887.6043
   411.44         888.1187
   411.58         887.4926
   411.72         885.7939
   411.86         883.3196
   412.00         880.4696
   412.14         877.5707
   412.28         874.7956
   412.42         872.1952
   412.56         869.7590
   412.70         867.4740
   412.84         865.3520
   412.98         863.3963
   413.12         861.5957
   413.26         859.9292
   413.40         858.3637
   413.54         856.8591
   413.68         855.3928
   413.82         854.0233
   413.96         852.8620
   414.10         851.9506
   414.24         851.2352
   414.38         850.6162
   414.52         850.0381
   414.66         849.5019
   414.80         848.9987
   414.94         848.5057
   415.08         848.0420
   415.22         847.6682
   415.36         847.4122
   415.50         847.2084
   415.64         846.9737
   415.78         846.6897
   415.92         846.3611
   416.06         846.0056
   416.20         845.5873
   416.34         844.9906
   416.48         844.0946
   416.62         842.7738
   416.76         840.8703
   416.90         838.2809
   417.04         835.0501
   417.18         831.3749
   417.32         827.5467
   417.46         823.8667
   417.60         820.5920
   417.74         817.8900
   417.88         815.8293
   418.02         814.3867
   418.16         813.4637
   418.30         812.9590
   418.44         812.7097
   418.58         812.4584
   418.72         811.9983
   418.86         811.2477
   419.00         810.2273
   419.14         809.0408
   419.28         807.8396
   419.42         806.7800
   419.56         805.9904
   419.70         805.5321
   419.84         805.4010
   419.98         805.5271
   420.12         805.7711
   420.26         805.9841
   420.40         806.0762
   420.54         806.0276
   420.68         805.8276
   420.82         805.4516
   420.96         804.9139
   421.10         804.2449
   421.24         803.5025
   421.38         802.7552
   421.52         802.0050
   421.66         801.2007
   421.80         800.3165
   421.94         799.3561
   422.08         798.2999
   422.22         797.1147
   422.36         795.8104
   422.50         794.4534
   422.64         793.1179
   422.78         791.8702
   422.92         790.7502
   423.06         789.7469
   423.20         788.8257
   423.34         787.9477
   423.48         787.0944
   423.62         786.2788
   423.76         785.5185
   423.90         784.8329
   424.04         784.2358
   424.18         783.7503
   424.32         783.4153
   424.46         783.2446
   424.60         783.2135
   424.74         783.2643
   424.88         783.3430
   425.02         783.4305
   425.16         783.5123
   425.30         783.5587
   425.44         783.4973
   425.58         783.2149
   425.72         782.6310
   425.86         781.7284
   426.00         780.5179
   426.14         779.0418
   426.28         777.3599
   426.42         775.5161
   426.56         773.5471
   426.70         771.4886
   426.84         769.3948
   426.98         767.3491
   427.12         765.4548
   427.26         763.8053
   427.40         762.4334
   427.54         761.3294
   427.68         760.4962
   427.82         759.9538
   427.96         759.6807
   428.10         759.5857
   428.24         759.6066
   428.38         759.7664
   428.52         760.0966
   428.66         760.5776
   428.80         761.1472
   428.94         761.7027
   429.08         762.1844
   429.22         762.6313
   429.36         763.0795
   429.50         763.5287
   429.64         763.9604
   429.78         764.3421
   429.92         764.6564
   430.06         764.9135
   430.20         765.1421
   430.34         765.3524
   430.48         765.5079
   430.62         765.5376
   430.76         765.4140
   430.90         765.2064
   431.04         764.9947
   431.18         764.8102
   431.32         764.6828
   431.46         764.6759
   431.60         764.8738
   431.74         765.3517
   431.88         766.1112
   432.02         767.0655
   432.16         768.1349
   432.30         769.2781
   432.44         770.4465
   432.58         771.5389
   432.72         772.3857
   432.86         772.7800
   433.00         772.5338
   433.14         771.5563
   433.28         769.9076
   433.42         767.7839
   433.56         765.4184
   433.70         763.0192
   433.84         760.7960
   433.98         758.9322
   434.12         757.5542
   434.26         756.7416
   434.40         756.5074
   434.54         756.8247
   434.68         757.6621
   434.82         758.9393
   434.96         760.4953
   435.10         762.0990
   435.24         763.5011
   435.38         764.5109
   435.52         765.0233
   435.66         765.0305
   435.80         764.6175
   435.94         763.8883
   436.08         762.9053
   436.22         761.6836
   436.36         760.2484
   436.50         758.6607
   436.64         756.9689
   436.78         755.2256
   436.92         753.5168
   437.06         751.9374
   437.20         750.5164
   437.34         749.1657
   437.48         747.7059
   437.62         745.9004
   437.76         743.5092
   437.90         740.4133
   438.04         736.6799
   438.18         732.4896
   438.32         728.0835
   438.46         723.7781
   438.60         719.9163
   438.74         716.7783
   438.88         714.5481
   439.02         713.3050
   439.16         713.0222
   439.30         713.5781
   439.44         714.7968
   439.58         716.4625
   439.72         718.2831
   439.86         719.8762
   440.00         720.8763
   440.14         721.0208
   440.28         720.1660
   440.42         718.3231
   440.56         715.6271
   440.70         712.2266
   440.84         708.2245
   440.98         703.6948
   441.12         698.7062
   441.26         693.2930
   441.40         687.4702
   441.54         681.3007
   441.68         674.8977
   441.82         668.4210
   441.96         662.0597
   442.10         656.0190
   442.24         650.5117
   442.38         645.7253
   442.52         641.8065
   442.66         638.8644
   442.80         636.9654
   442.94         636.1399
   443.08         636.3836
   443.22         637.6386
   443.36         639.7801
   443.50         642.5938
   443.64         645.8168
   443.78         649.2281
   443.92         652.6787
   444.06         656.0465
   444.20         659.2553
   444.34         662.3187
   444.48         665.2920
   444.62         668.2063
   444.76         671.1007
   444.90         674.0295
   445.04         677.0134
   445.18         680.0400
   445.32         683.0547
   445.46         685.9850
   445.60         688.7664
   445.74         691.3099
   445.88         693.4315
   446.02         694.8408
   446.16         695.2629
   446.30         694.5991
   446.44         692.9579
   446.58         690.5780
   446.72         687.7399
   446.86         684.7283
   447.00         681.7756
   447.14         679.0274
   447.28         676.6181
   447.42         674.7328
   447.56         673.5473
   447.70         673.1601
   447.84         673.6140
   447.98         674.8604
   448.12         676.7716
   448.26         679.1797
   448.40         681.8511
   448.54         684.5347
   448.68         687.0480
   448.82         689.2964
   448.96         691.2097
   449.10         692.6887
   449.24         693.6325
   449.38         693.9490
   449.52         693.5487
   449.66         692.4489
   449.80         690.8385
   449.94         688.9906
   450.08         687.1412
   450.22         685.4566
   450.36         684.0602
   450.50         683.0286
   450.64         682.3549
   450.78         682.0113
   450.92         681.9659
   451.06         682.1133
   451.20         682.3000
   451.34         682.3482
   451.48         682.0838
   451.62         681.4297
   451.76         680.4465
   451.90         679.2402
   452.04         677.8679
   452.18         676.3765
   452.32         674.8648
   452.46         673.4408
   452.60         672.1929
   452.74         671.2033
   452.88         670.5292
   453.02         670.2018
   453.16         670.2316
   453.30         670.5872
   453.44         671.1932
   453.58         671.9107
   453.72         672.5285
   453.86         672.8198
   454.00         672.6214
   454.14         671.8737
   454.28         670.6081
   454.42         668.8954
   454.56         666.8236
   454.70         664.5373
   454.84         662.2383
   454.98         660.1164
   455.12         658.3297
   455.26         657.0214
   455.40         656.2427
   455.54         655.9200
   455.68         655.9311
   455.82         656.1363
   455.96         656.3711
   456.10         656.4559
   456.24         656.2306
   456.38         655.6253
   456.52         654.7218
   456.66         653.7166
   456.80         652.8257
   456.94         652.2231
   457.08         651.9992
   457.22         652.1420
   457.36         652.5543
   457.50         653.0714
   457.64         653.4826
   457.78         653.6227
   457.92         653.4037
   458.06         652.7483
   458.20         651.6110
   458.34         650.0277
   458.48         648.1143
   458.62         646.0337
   458.76         643.9436
   458.90         641.9773
   459.04         640.2319
   459.18         638.7505
   459.32         637.5476
   459.46         636.6178
   459.60         635.9035
   459.74         635.3248
   459.88         634.8520
   460.02         634.5287
   460.16         634.3995
   460.30         634.4489
   460.44         634.6467
   460.58         634.9601
   460.72         635.3457
   460.86         635.7809
   461.00         636.2429
   461.14         636.7074
   461.28         637.1686
   461.42         637.5975
   461.56         637.9223
   461.70         638.0617
   461.84         637.9753
   461.98         637.6693
   462.12         637.1498
   462.26         636.4401
   462.40         635.5990
   462.54         634.6758
   462.68         633.7136
   462.82         632.7581
   462.96         631.8594
   463.10         631.0694
   463.24         630.4059
   463.38         629.8652
   463.52         629.4471
   463.66         629.1352
   463.80         628.9075
   463.94         628.7109
   464.08         628.4586
   464.22         628.0641
   464.36         627.4667
   464.50         626.6717
   464.64         625.7366
   464.78         624.7470
   464.92         623.7929
   465.06         622.9486
   465.20         622.2888
   465.34         621.8845
   465.48         621.7694
   465.62         621.9156
   465.76         622.2872
   465.90         622.8770
   466.04         623.6804
   466.18         624.6919
   466.32         625.8773
   466.46         627.1762
   466.60         628.5102
   466.74         629.7909
   466.88         630.9119
   467.02         631.7883
   467.16         632.3805
   467.30         632.6599
   467.44         632.6226
   467.58         632.2784
   467.72         631.6520
   467.86         630.8130
   468.00         629.8736
   468.14         628.9380
   468.28         628.0716
   468.42         627.3176
   468.56         626.6777
   468.70         626.1150
   468.84         625.5965
   468.98         625.0922
   469.12         624.5673
   469.26         623.9745
   469.40         623.3027
   469.54         622.6188
   469.68         622.0303
   469.82         621.6201
   469.96         621.4016
   470.10         621.3397
   470.24         621.3349
   470.38         621.2229
   470.52         620.8491
   470.66         620.0722
   470.80         618.7774
   470.94         616.9586
   471.08         614.7080
   471.22         612.1600
   471.36         609.4713
   471.50         606.8119
   471.64         604.3554
   471.78         602.2037
   471.92         600.4090
   472.06         599.0390
   472.20         598.1389
   472.34         597.6836
   472.48         597.5764
   472.62         597.6864
   472.76         597.9257
   472.90         598.2723
   473.04         598.7485
   473.18         599.4034
   473.32         600.2633
   473.46         601.3062
   473.60         602.4645
   473.74         603.6238
   473.88         604.6212
   474.02         605.2707
   474.16         605.4159
   474.30         604.9675
   474.44         603.8865
   474.58         602.2119
   474.72         600.0585
   474.86         597.5459
   475.00         594.7656
   475.14         591.8019
   475.28         588.7874
   475.42         585.9043
   475.56         583.3651
   475.70         581.3823
   475.84         580.1186
   475.98         579.6376
   476.12         579.9059
   476.26         580.7943
   476.40         582.0735
   476.54         583.4726
   476.68         584.7490
   476.82         585.7174
   476.96         586.2446
   477.10         586.2475
   477.24         585.7056
   477.38         584.6418
   477.52         583.0827
   477.66         581.0810
   477.80         578.7831
   477.94         576.4199
   478.08         574.2189
   478.22         572.3444
   478.36         570.8589
   478.50         569.7325
   478.64         568.9115
   478.78         568.3580
   478.92         568.0121
   479.06         567.7956
   479.20         567.6567
   479.34         567.5530
   479.48         567.4464
   479.62         567.3162
   479.76         567.1506
   479.90         566.9306
   480.04         566.6339
   480.18         566.2740
   480.32         565.9103
   480.46         565.6028
   480.60         565.3788
   480.74         565.2439
   480.88         565.1938
   481.02         565.2053
   481.16         565.2441
   481.30         565.2874
   481.44         565.3406
   481.58         565.4279
   481.72         565.5788
   481.86         565.8248
   482.00         566.2262
   482.14         566.8372
   482.28         567.6599
   482.42         568.6894
   482.56         569.9343
   482.70         571.3954
   482.84         573.0206
   482.98         574.6979
   483.12         576.3182
   483.26         577.7988
   483.40         579.0643
   483.54         580.0435
   483.68         580.6875
   483.82         581.0233
   483.96         581.1928
   484.10         581.3754
   484.24         581.6675
   484.38         582.1102
   484.52         582.8102
   484.66         583.9626
   484.80         585.7444
   484.94         588.2370
   485.08         591.4165
   485.22         595.1276
   485.36         599.0832
   485.50         602.9186
   485.64         606.2962
   485.78         608.9283
   485.92         610.5291
   486.06         610.8612
   486.20         609.8036
   486.34         607.3752
   486.48         603.7130
   486.62         598.9786
   486.76         593.3053
   486.90         586.8840
   487.04         580.0523
   487.18         573.2268
   487.32         566.7562
   487.46         560.8451
   487.60         555.5581
   487.74         550.9121
   487.88         546.9480
   488.02         543.7161
   488.16         541.2707
   488.30         539.6315
   488.44         538.6993
   488.58         538.2737
   488.72         538.1471
   488.86         538.1487
   489.00         538.1547
   489.14         538.0640
   489.28         537.8040
   489.42         537.4140
   489.56         537.0360
   489.70         536.7865
   489.84         536.7017
   489.98         536.7802
   490.12         537.0014
   490.26         537.3318
   490.40         537.7558
   490.54         538.2502
   490.68         538.7539
   490.82         539.1688
   490.96         539.3183
   491.10         538.9715
   491.24         537.9812
   491.38         536.3584
   491.52         534.2348
   491.66         531.8112
   491.80         529.3109
   491.94         526.9647
   492.08         525.0039
   492.22         523.6157
   492.36         522.9135
   492.50         522.9623
   492.64         523.7691
   492.78         525.2378
   492.92         527.2016
   493.06         529.4721
   493.20         531.8220
   493.34         533.9763
   493.48         535.6744
   493.62         536.7292
   493.76         537.0626
   493.90         536.7470
   494.04         535.9785
   494.18         534.9642
   494.32         533.8724
   494.46         532.8205
   494.60         531.8464
   494.74         530.9385
   494.88         530.0654
   495.02         529.1495
   495.16         528.0936
   495.30         526.8397
   495.44         525.3844
   495.58         523.7691
   495.72         522.0323
   495.86         520.2010
   496.00         518.3515
   496.14         516.6198
   496.28         515.1219
   496.42         513.9321
   496.56         513.1204
   496.70         512.7169
   496.84         512.6817
   496.98         512.9393
   497.12         513.3957
   497.26         513.9636
   497.40         514.5918
   497.54         515.2348
   497.68         515.8281
   497.82         516.3391
   497.96         516.7918
   498.10         517.2014
   498.24         517.5348
   498.38         517.7468
   498.52         517.8165
   498.66         517.7548
   498.80         517.6005
   498.94         517.4367
   499.08         517.3788
   499.22         517.4933
   499.36         517.7484
   499.50         518.0403
   499.64         518.2400
   499.78         518.2324
   499.92         517.9300
   500.06         517.2572
   500.20         516.1859
   500.34         514.7457
   500.48         512.9843
   500.62         510.9394
   500.76         508.6432
   500.90         506.1916
   501.04         503.7650
   501.18         501.5635
   501.32         499.7839
   501.46         498.5833
   501.60         498.0114
   501.74         497.9894
   501.88         498.3613
   502.02         498.9758
   502.16         499.7243
   502.30         500.5392
   502.44         501.3679
   502.58         502.1576
   502.72         502.8893
   502.86         503.5656
   503.00         504.1498
   503.14         504.5852
   503.28         504.8591
   503.42         505.0050
   503.56         505.0419
   503.70         504.9177
   503.84         504.5347
   503.98         503.8384
   504.12         502.8207
   504.26         501.4802
   504.40         499.8440
   504.54         497.9877
   504.68         496.0315
   504.82         494.1068
   504.96         492.3426
   505.10         490.8498
   505.24         489.6874
   505.38         488.8591
   505.52         488.3203
   505.66         488.0218
   505.80         487.9275
   505.94         487.9844
   506.08         488.1158
   506.22         488.2478
   506.36         488.3411
   506.50         488.4020
   506.64         488.4789
   506.78         488.6109
   506.92         488.7881
   507.06         488.9829
   507.20         489.1735
   507.34         489.3275
   507.48         489.3953
   507.62         489.3418
   507.76         489.1510
   507.90         488.8209
   508.04         488.3769
   508.18         487.8615
   508.32         487.3063
   508.46         486.7062
   508.60         486.0439
   508.74         485.3456
   508.88         484.6627
   509.02         484.0403
   509.16         483.5235
   509.30         483.1275
   509.44         482.8155
   509.58         482.5293
   509.72         482.2224
   509.86         481.8534
   510.00         481.3715
   510.14         480.7369
   510.28         479.9331
   510.42         478.9498
   510.56         477.8043
   510.70         476.5564
   510.84         475.2689
   510.98         473.9915
   511.12         472.7933
   511.26         471.7756
   511.40         471.0261
   511.54         470.5693
   511.68         470.3753
   511.82         470.3857
   511.96         470.5383
   512.10         470.7922
   512.24         471.1160
   512.38         471.4610
   512.52         471.7800
   512.66         472.0366
   512.80         472.1871
   512.94         472.2094
   513.08         472.1402
   513.22         472.0338
   513.36         471.9202
   513.50         471.8232
   513.64         471.7699
   513.78         471.7839
   513.92         471.8625
   514.06         471.9544
   514.20         471.9713
   514.34         471.8300
   514.48         471.4971
   514.62         470.9711
   514.76         470.2302
   514.90         469.2305
   515.04         467.9392
   515.18         466.3591
   515.32         464.5256
   515.46         462.5134
   515.60         460.4580
   515.74         458.4895
   515.88         456.6514
   516.02         454.9642
   516.16         453.4897
   516.30         452.2869
   516.44         451.3913
   516.58         450.8247
   516.72         450.5853
   516.86         450.6528
   517.00         451.0018
   517.14         451.5960
   517.28         452.3748
   517.42         453.2483
   517.56         454.1183
   517.70         454.8979
   517.84         455.5133
   517.98         455.9167
   518.12         456.0909
   518.26         456.0268
   518.40         455.7211
   518.54         455.2082
   518.68         454.5731
   518.82         453.9072
   518.96         453.2711
   519.10         452.6922
   519.24         452.1725
   519.38         451.7006
   519.52         451.2550
   519.66         450.8290
   519.80         450.4403
   519.94         450.0929
   520.08         449.7690
   520.22         449.4555
   520.36         449.1313
   520.50         448.7821
   520.64         448.4239
   520.78         448.0492
   520.92         447.6025
   521.06         447.0260
   521.20         446.2795
   521.34         445.3434
   521.48         444.2307
   521.62         442.9927
   521.76         441.6918
   521.90         440.3937
   522.04         439.1882
   522.18         438.1857
   522.32         437.4793
   522.46         437.0967
   522.60         437.0054
   522.74         437.1375
   522.88         437.4029
   523.02         437.7205
   523.16         438.0387
   523.30         438.3025
   523.44         438.4190
   523.58         438.3082
   523.72         437.9534
   523.86         437.3755
   524.00         436.6055
   524.14         435.6715
   524.28         434.5925
   524.42         433.3840
   524.56         432.0872
   524.70         430.7803
   524.84         429.5349
   524.98         428.3787
   525.12         427.3114
   525.26         426.3433
   525.40         425.4791
   525.54         424.7005
   525.68         423.9866
   525.82         423.3081
   525.96         422.6165
   526.10         421.8629
   526.24         421.0295
   526.38         420.1342
   526.52         419.1978
   526.66         418.2470
   526.80         417.3256
   526.94         416.4906
   527.08         415.8152
   527.22         415.3689
   527.36         415.1675
   527.50         415.1571
   527.64         415.2471
   527.78         415.3507
   527.92         415.3976
   528.06         415.3239
   528.20         415.0980
   528.34         414.7427
   528.48         414.2921
   528.62         413.7738
   528.76         413.2243
   528.90         412.6883
   529.04         412.2063
   529.18         411.8003
   529.32         411.4785
   529.46         411.2529
   529.60         411.1336
   529.74         411.0897
   529.88         411.0508
   530.02         410.9533
   530.16         410.7649
   530.30         410.4892
   530.44         410.1641
   530.58         409.8315
   530.72         409.5013
   530.86         409.1577
   531.00         408.7888
   531.14         408.3932
   531.28         407.9823
   531.42         407.5864
   531.56         407.2429
   531.70         406.9724
   531.84         406.7738
   531.98         406.6482
   532.12         406.5938
   532.26         406.5848
   532.40         406.5860
   532.54         406.5769
   532.68         406.5420
   532.82         406.4667
   532.96         406.3471
   533.10         406.1743
   533.24         405.9213
   533.38         405.5550
   533.52         405.0611
   533.66         404.4540
   533.80         403.7561
   533.94         402.9775
   534.08         402.1161
   534.22         401.1831
   534.36         400.2229
   534.50         399.2994
   534.64         398.4577
   534.78         397.7063
   534.92         397.0482
   535.06         396.4879
   535.20         396.0091
   535.34         395.5769
   535.48         395.1481
   535.62         394.6807
   535.76         394.1488
   535.90         393.5602
   536.04         392.9440
   536.18         392.3218
   536.32         391.7201
   536.46         391.1878
   536.60         390.7745
   536.74         390.5231
   536.88         390.4623
   537.02         390.5752
   537.16         390.7879
   537.30         391.0031
   537.44         391.1509
   537.58         391.1985
   537.72         391.1222
   537.86         390.9047
   538.00         390.5478
   538.14         390.0851
   538.28         389.5786
   538.42         389.0686
   538.56         388.5587
   538.70         388.0533
   538.84         387.5736
   538.98         387.1463
   539.12         386.7946
   539.26         386.5224
   539.40         386.3109
   539.54         386.1199
   539.68         385.9015
   539.82         385.6252
   539.96         385.2850
   540.10         384.9076
   540.24         384.5192
   540.38         384.1130
   540.52         383.6727
   540.66         383.1864
   540.80         382.6505
   540.94         382.0806
   541.08         381.5020
   541.22         380.9485
   541.36         380.4487
   541.50         379.9987
   541.64         379.5723
   541.78         379.1577
   541.92         378.7516
   542.06         378.3236
   542.20         377.8179
   542.34         377.2065
   542.48         376.5109
   542.62         375.7651
   542.76         374.9990
   542.90         374.2386
   543.04         373.5237
   543.18         372.9072
   543.32         372.4236
   543.46         372.0863
   543.60         371.8800
   543.74         371.7466
   543.88         371.6244
   544.02         371.4681
   544.16         371.2132
   544.30         370.7630
   544.44         370.0310
   544.58         368.9881
   544.72         367.6770
   544.86         366.2191
   545.00         364.8075
   545.14         363.6443
   545.28         362.8671
   545.42         362.5243
   545.56         362.5832
   545.70         362.9687
   545.84         363.5961
   545.98         364.3748
   546.12         365.2116
   546.26         366.0142
   546.40         366.7102
   546.54         367.2567
   546.68         367.6209
   546.82         367.7675
   546.96         367.6857
   547.10         367.4311
   547.24         367.1023
   547.38         366.7632
   547.52         366.4069
   547.66         365.9819
   547.80         365.4165
   547.94         364.6404
   548.08         363.6268
   548.22         362.4230
   548.36         361.1431
   548.50         359.9224
   548.64         358.8742
   548.78         358.0720
   548.92         357.5765
   549.06         357.4550
   549.20         357.7380
   549.34         358.3864
   549.48         359.2952
   549.62         360.3186
   549.76         361.3002
   549.90         362.0814
   550.04         362.5084
   550.18         362.4815
   550.32         361.9976
   550.46         361.1264
   550.60         359.9723
   550.74         358.6624
   550.88         357.3400
   551.02         356.1328
   551.16         355.1053
   551.30         354.2505
   551.44         353.5398
   551.58         352.9688
   551.72         352.5301
   551.86         352.1739
   552.00         351.8351
   552.14         351.4651
   552.28         351.0267
   552.42         350.5013
   552.56         349.9097
   552.70         349.2877
   552.84         348.6602
   552.98         348.0480
   553.12         347.4617
   553.26         346.8992
   553.40         346.3618
   553.54         345.8634
   553.68         345.4214
   553.82         345.0583
   553.96         344.8272
   554.10         344.8003
   554.24         345.0206
   554.38         345.4852
   554.52         346.1414
   554.66         346.8844
   554.80         347.5856
   554.94         348.1352
   555.08         348.4695
   555.22         348.5696
   555.36         348.4432
   555.50         348.1270
   555.64         347.6795
   555.78         347.1581
   555.92         346.6215
   556.06         346.1270
   556.20         345.7190
   556.34         345.4195
   556.48         345.2297
   556.62         345.1361
   556.76         345.1036
   556.90         345.0802
   557.04         345.0165
   557.18         344.8618
   557.32         344.5782
   557.46         344.1729
   557.60         343.6927
   557.74         343.2000
   557.88         342.7560
   558.02         342.3998
   558.16         342.1451
   558.30         342.0020
   558.44         341.9877
   558.58         342.1030
   558.72         342.3111
   558.86         342.5533
   559.00         342.7719
   559.14         342.9084
   559.28         342.8997
   559.42         342.6896
   559.56         342.2526
   559.70         341.6045
   559.84         340.7751
   559.98         339.8091
   560.12         338.7742
   560.26         337.7375
   560.40         336.7484
   560.54         335.8226
   560.68         334.9549
   560.82         334.1546
   560.96         333.4479
   561.10         332.8454
   561.24         332.3374
   561.38         331.9213
   561.52         331.6033
   561.66         331.3833
   561.80         331.2533
   561.94         331.2010
   562.08         331.2150
   562.22         331.2872
   562.36         331.4030
   562.50         331.5410
   562.64         331.7080
   562.78         331.9166
   562.92         332.1461
   563.06         332.3591
   563.20         332.5161
   563.34         332.5923
   563.48         332.5870
   563.62         332.5125
   563.76         332.3733
   563.90         332.1708
   564.04         331.9219
   564.18         331.6517
   564.32         331.3802
   564.46         331.1209
   564.60         330.8892
   564.74         330.7040
   564.88         330.5698
   565.02         330.4699
   565.16         330.3850
   565.30         330.2836
   565.44         330.0877
   565.58         329.7070
   565.72         329.0966
   565.86         328.2554
   566.00         327.2109
   566.14         326.0138
   566.28         324.7261
   566.42         323.4030
   566.56         322.0965
   566.70         320.8586
   566.84         319.7315
   566.98         318.7405
   567.12         317.9068
   567.26         317.2636
   567.40         316.8308
   567.54         316.5865
   567.68         316.4894
   567.82         316.5142
   567.96         316.6490
   568.10         316.8857
   568.24         317.2288
   568.38         317.6794
   568.52         318.2170
   568.66         318.7984
   568.80         319.3706
   568.94         319.8790
   569.08         320.2636
   569.22         320.4702
   569.36         320.4580
   569.50         320.2037
   569.64         319.7080
   569.78         319.0016
   569.92         318.1418
   570.06         317.1869
   570.20         316.1924
   570.34         315.2297
   570.48         314.3767
   570.62         313.6792
   570.76         313.1320
   570.90         312.6940
   571.04         312.3226
   571.18         311.9980
   571.32         311.7064
   571.46         311.4425
   571.60         311.2178
   571.74         311.0418
   571.88         310.9213
   572.02         310.8732
   572.16         310.9300
   572.30         311.1185
   572.44         311.4216
   572.58         311.7779
   572.72         312.1100
   572.86         312.3507
   573.00         312.4446
   573.14         312.3310
   573.28         311.9518
   573.42         311.2746
   573.56         310.3123
   573.70         309.1283
   573.84         307.8119
   573.98         306.4600
   574.12         305.1813
   574.26         304.0855
   574.40         303.2675
   574.54         302.7839
   574.68         302.6380
   574.82         302.7903
   574.96         303.1640
   575.10         303.6653
   575.24         304.2114
   575.38         304.7358
   575.52         305.1782
   575.66         305.4707
   575.80         305.5588
   575.94         305.4253
   576.08         305.0772
   576.22         304.5375
   576.36         303.8419
   576.50         303.0227
   576.64         302.0964
   576.78         301.0327
   576.92         299.7286
   577.06         298.0421
   577.20         295.8780
   577.34         293.2609
   577.48         290.3320
   577.62         287.2949
   577.76         284.3733
   577.90         281.7845
   578.04         279.7336
   578.18         278.3937
   578.32         277.8616
   578.46         278.1302
   578.60         279.0894
   578.74         280.5636
   578.88         282.3580
   579.02         284.2801
   579.16         286.1559
   579.30         287.8334
   579.44         289.1815
   579.58         290.1361
   579.72         290.7485
   579.86         291.1442
   580.00         291.4439
   580.14         291.7280
   580.28         292.0299
   580.42         292.3452
   580.56         292.6508
   580.70         292.9037
   580.84         293.0549
   580.98         293.0781
   581.12         292.9811
   581.26         292.8089
   581.40         292.6395
   581.54         292.5484
   581.68         292.5791
   581.82         292.7553
   581.96         293.0687
   582.10         293.4730
   582.24         293.9135
   582.38         294.3398
   582.52         294.7082
   582.66         294.9979
   582.80         295.2050
   582.94         295.3210
   583.08         295.3374
   583.22         295.2527
   583.36         295.0711
   583.50         294.8074
   583.64         294.4730
   583.78         294.0587
   583.92         293.5494
   584.06         292.9560
   584.20         292.3074
   584.34         291.6360
   584.48         290.9903
   584.62         290.4199
   584.76         289.9665
   584.90         289.6720
   585.04         289.5789
   585.18         289.7133
   585.32         290.0696
   585.46         290.6065
   585.60         291.2534
   585.74         291.9433
   585.88         292.6248
   586.02         293.2407
   586.16         293.7332
   586.30         294.0433
   586.44         294.0651
   586.58         293.6718
   586.72         292.8200
   586.86         291.5666
   587.00         290.0218
   587.14         288.3305
   587.28         286.6441
   587.42         285.0789
   587.56         283.6922
   587.70         282.4109
   587.84         281.0036
   587.98         279.2487
   588.12         277.0842
   588.26         274.5297
   588.40         271.5637
   588.54         268.1556
   588.68         264.3906
   588.82         260.5068
   588.96         256.8163
   589.10         253.6475
   589.24         251.3630
   589.38         250.3108
   589.52         250.6952
   589.66         252.5066
   589.80         255.5490
   589.94         259.5016
   590.08         263.9679
   590.22         268.5199
   590.36         272.7596
   590.50         276.4277
   590.64         279.4385
   590.78         281.7478
   590.92         283.2632
   591.06         283.9511
   591.20         283.9415
   591.34         283.4566
   591.48         282.6768
   591.62         281.7172
   591.76         280.6720
   591.90         279.6193
   592.04         278.6028
   592.18         277.6409
   592.32         276.7543
   592.46         275.9813
   592.60         275.3640
   592.74         274.9170
   592.88         274.6175
   593.02         274.4181
   593.16         274.2677
   593.30         274.1323
   593.44         273.9968
   593.58         273.8534
   593.72         273.6887
   593.86         273.4801
   594.00         273.2167
   594.14         272.9092
   594.28         272.5684
   594.42         272.1836
   594.56         271.7593
   594.70         271.3505
   594.84         271.0335
   594.98         270.8631
   595.12         270.8547
   595.26         270.9859
   595.40         271.2065
   595.54         271.4526
   595.68         271.6672
   595.82         271.8184
   595.96         271.8827
   596.10         271.8091
   596.24         271.5531
   596.38         271.1216
   596.52         270.5516
   596.66         269.8783
   596.80         269.1434
   596.94         268.4111
   597.08         267.7609
   597.22         267.2622
   597.36         266.9360
   597.50         266.7523
   597.64         266.6607
   597.78         266.6150
   597.92         266.5809
   598.06         266.5412
   598.20         266.5066
   598.34         266.4983
   598.48         266.5185
   598.62         266.5410
   598.76         266.5319
   598.90         266.4952
   599.04         266.4673
   599.18         266.4675
   599.32         266.4930
   599.46         266.5385
   599.60         266.5851
   599.74         266.5820
   599.88         266.4651
   600.02         266.2076
   600.16         265.8286
   600.30         265.3581
   600.44         264.8351
   600.58         264.3165
   600.72         263.8537
   600.86         263.4683
   601.00         263.1536
   601.14         262.9021
   601.28         262.7176
   601.42         262.6031
   601.56         262.5492
   601.70         262.5324
   601.84         262.5011
   601.98         262.3848
   602.12         262.1224
   602.26         261.6763
   602.40         261.0394
   602.54         260.2391
   602.68         259.3375
   602.82         258.4017
   602.96         257.4812
   603.10         256.6302
   603.24         255.9026
   603.38         255.3184
   603.52         254.8687
   603.66         254.5385
   603.80         254.3358
   603.94         254.2744
   604.08         254.3469
   604.22         254.5443
   604.36         254.8560
   604.50         255.2582
   604.64         255.7340
   604.78         256.2796
   604.92         256.8916
   605.06         257.5707
   605.20         258.3171
   605.34         259.1161
   605.48         259.9279
   605.62         260.7001
   605.76         261.3822
   605.90         261.9212
   606.04         262.2687
   606.18         262.3985
   606.32         262.3087
   606.46         262.0248
   606.60         261.5771
   606.74         260.9981
   606.88         260.3370
   607.02         259.6525
   607.16         259.0042
   607.30         258.4465
   607.44         258.0243
   607.58         257.7663
   607.72         257.6744
   607.86         257.7124
   608.00         257.8318
   608.14         257.9911
   608.28         258.1444
   608.42         258.2285
   608.56         258.1672
   608.70         257.9003
   608.84         257.4075
   608.98         256.7111
   609.12         255.8734
   609.26         254.9693
   609.40         254.0673
   609.54         253.2340
   609.68         252.5317
   609.82         252.0045
   609.96         251.6738
   610.10         251.5462
   610.24         251.6075
   610.38         251.8192
   610.52         252.1342
   610.66         252.5099
   610.80         252.8930
   610.94         253.2156
   611.08         253.4121
   611.22         253.4423
   611.36         253.3122
   611.50         253.0617
   611.64         252.7425
   611.78         252.4013
   611.92         252.0573
   612.06         251.7165
   612.20         251.3975
   612.34         251.1177
   612.48         250.8680
   612.62         250.6136
   612.76         250.3246
   612.90         249.9899
   613.04         249.5979
   613.18         249.1207
   613.32         248.5259
   613.46         247.8051
   613.60         246.9815
   613.74         246.1109
   613.88         245.2790
   614.02         244.5798
   614.16         244.0937
   614.30         243.8626
   614.44         243.8769
   614.58         244.1016
   614.72         244.5013
   614.86         245.0344
   615.00         245.6378
   615.14         246.2343
   615.28         246.7496
   615.42         247.1116
   615.56         247.2524
   615.70         247.1113
   615.84         246.6480
   615.98         245.8658
   616.12         244.8119
   616.26         243.5613
   616.40         242.2005
   616.54         240.8168
   616.68         239.4964
   616.82         238.3153
   616.96         237.3282
   617.10         236.5633
   617.24         236.0364
   617.38         235.7482
   617.52         235.6662
   617.66         235.7300
   617.80         235.8694
   617.94         236.0336
   618.08         236.1998
   618.22         236.3734
   618.36         236.5622
   618.50         236.7602
   618.64         236.9802
   618.78         237.2636
   618.92         237.6409
   619.06         238.0905
   619.20         238.5631
   619.34         239.0047
   619.48         239.3647
   619.62         239.6180
   619.76         239.7594
   619.90         239.8125
   620.04         239.8189
   620.18         239.8039
   620.32         239.7928
   620.46         239.8202
   620.60         239.9046
   620.74         240.0345
   620.88         240.1973
   621.02         240.3852
   621.16         240.5850
   621.30         240.7857
   621.44         240.9706
   621.58         241.1147
   621.72         241.2054
   621.86         241.2594
   622.00         241.3022
   622.14         241.3626
   622.28         241.4641
   622.42         241.6005
   622.56         241.7535
   622.70         241.9036
   622.84         242.0280
   622.98         242.1200
   623.12         242.1773
   623.26         242.1905
   623.40         242.1638
   623.54         242.1130
   623.68         242.0499
   623.82         241.9753
   623.96         241.9014
   624.10         241.8462
   624.24         241.8056
   624.38         241.7561
   624.52         241.6713
   624.66         241.5474
   624.80         241.4013
   624.94         241.2511
   625.08         241.0859
   625.22         240.8479
   625.36         240.4724
   625.50         239.9121
   625.64         239.1387
   625.78         238.1349
   625.92         236.8996
   626.06         235.4654
   626.20         233.8909
   626.34         232.2393
   626.48         230.5510
   626.62         228.8448
   626.76         227.1197
   626.90         225.3433
   627.04         223.4667
   627.18         221.4412
   627.32         219.2327
   627.46         216.8431
   627.60         214.3302
   627.74         211.8137
   627.88         209.4717
   628.02         207.5340
   628.16         206.2202
   628.30         205.6819
   628.44         206.0018
   628.58         207.1923
   628.72         209.1958
   628.86         211.8714
   629.00         214.9918
   629.14         218.2848
   629.28         221.4799
   629.42         224.3280
   629.56         226.6188
   629.70         228.2322
   629.84         229.1599
   629.98         229.4892
   630.12         229.3669
   630.26         228.9453
   630.40         228.3637
   630.54         227.7382
   630.68         227.1600
   630.82         226.6964
   630.96         226.3907
   631.10         226.2730
   631.24         226.3514
   631.38         226.6227
   631.52         227.0683
   631.66         227.6438
   631.80         228.2923
   631.94         228.9498
   632.08         229.5531
   632.22         230.0638
   632.36         230.4665
   632.50         230.7454
   632.64         230.8894
   632.78         230.9011
   632.92         230.7953
   633.06         230.5944
   633.20         230.3117
   633.34         229.9377
   633.48         229.4558
   633.62         228.8551
   633.76         228.1235
   633.90         227.2631
   634.04         226.3108
   634.18         225.3159
   634.32         224.3236
   634.46         223.3850
   634.60         222.5639
   634.74         221.9259
   634.88         221.5255
   635.02         221.3903
   635.16         221.5149
   635.30         221.8574
   635.44         222.3352
   635.58         222.8431
   635.72         223.2753
   635.86         223.5376
   636.00         223.5579
   636.14         223.3034
   636.28         222.7933
   636.42         222.0914
   636.56         221.2968
   636.70         220.5041
   636.84         219.7595
   636.98         219.0773
   637.12         218.4762
   637.26         217.9838
   637.40         217.6203
   637.54         217.3894
   637.68         217.2838
   637.82         217.2990
   637.96         217.4413
   638.10         217.7203
   638.24         218.1338
   638.38         218.6667
   638.52         219.2889
   638.66         219.9641
   638.80         220.6587
   638.94         221.3192
   639.08         221.8584
   639.22         222.1838
   639.36         222.2331
   639.50         221.9933
   639.64         221.5144
   639.78         220.8889
   639.92         220.2160
   640.06         219.5852
   640.20         219.0679
   640.34         218.7054
   640.48         218.5049
   640.62         218.4466
   640.76         218.4922
   640.90         218.5977
   641.04         218.7282
   641.18         218.8510
   641.32         218.9346
   641.46         218.9580
   641.60         218.9096
   641.74         218.8043
   641.88         218.6974
   642.02         218.6540
   642.16         218.7190
   642.30         218.9113
   642.44         219.2192
   642.58         219.6035
   642.72         220.0020
   642.86         220.3476
   643.00         220.5936
   643.14         220.7233
   643.28         220.7509
   643.42         220.6949
   643.56         220.5574
   643.70         220.3367
   643.84         220.0364
   643.98         219.6706
   644.12         219.2716
   644.26         218.8779
   644.40         218.5175
   644.54         218.1966
   644.68         217.9004
   644.82         217.6149
   644.96         217.3330
   645.10         217.0445
   645.24         216.7370
   645.38         216.3977
   645.52         216.0432
   645.66         215.7229
   645.80         215.4779
   645.94         215.3286
   646.08         215.2734
   646.22         215.2925
   646.36         215.3625
   646.50         215.4677
   646.64         215.5994
   646.78         215.7421
   646.92         215.8778
   647.06         215.9835
   647.20         216.0354
   647.34         216.0280
   647.48         215.9718
   647.62         215.8815
   647.76         215.7587
   647.90         215.5927
   648.04         215.3826
   648.18         215.1405
   648.32         214.8729
   648.46         214.5837
   648.60         214.2934
   648.74         214.0344
   648.88         213.8309
   649.02         213.6988
   649.16         213.6565
   649.30         213.7079
   649.44         213.8271
   649.58         213.9740
   649.72         214.1058
   649.86         214.1910
   650.00         214.2160
   650.14         214.1708
   650.28         214.0416
   650.42         213.8093
   650.56         213.4811
   650.70         213.1185
   650.84         212.8111
   650.98         212.6446
   651.12         212.6839
   651.26         212.9566
   651.40         213.4530
   651.54         214.1319
   651.68         214.9303
   651.82         215.7710
   651.96         216.5575
   652.10         217.1913
   652.24         217.6055
   652.38         217.7759
   652.52         217.7093
   652.66         217.4370
   652.80         217.0191
   652.94         216.5458
   653.08         216.1347
   653.22         215.9227
   653.36         216.0347
   653.50         216.5419
   653.64         217.4588
   653.78         218.7698
   653.92         220.4367
   654.06         222.3954
   654.20         224.5723
   654.34         226.9097
   654.48         229.3759
   654.62         231.9838
   654.76         234.8122
   654.90         238.0023
   655.04         241.8080
   655.18         246.6908
   655.32         253.2699
   655.46         261.9960
   655.60         272.7971
   655.74         285.0659
   655.88         297.8602
   656.02         310.0904
   656.16         320.6683
   656.30         328.6225
   656.44         333.2012
   656.58         333.9486
   656.72         330.7366
   656.86         323.7841
   657.00         313.6529
   657.14         301.1877
   657.28         287.4226
   657.42         273.4656
   657.56         260.3822
   657.70         249.0792
   657.84         240.1221
   657.98         233.5573
   658.12         228.9242
   658.26         225.5646
   658.40         222.9911
   658.54         220.9500
   658.68         219.3142
   658.82         218.0051
   658.96         216.9508
   659.10         216.0924
   659.24         215.3914
   659.38         214.8155
   659.52         214.3463
   659.66         213.9839
   659.80         213.7209
   659.94         213.5281
   660.08         213.3529
   660.22         213.1284
   660.36         212.7923
   660.50         212.3174
   660.64         211.7248
   660.78         211.0515
   660.92         210.3411
   661.06         209.6430
   661.20         209.0027
   661.34         208.4656
   661.48         208.0628
   661.62         207.8026
   661.76         207.6893
   661.90         207.7214
   662.04         207.8732
   662.18         208.0936
   662.32         208.3167
   662.46         208.4780
   662.60         208.5167
   662.74         208.3902
   662.88         208.1035
   663.02         207.6996
   663.16         207.2413
   663.30         206.7691
   663.44         206.2892
   663.58         205.8069
   663.72         205.3327
   663.86         204.8766
   664.00         204.4463
   664.14         204.0502
   664.28         203.7144
   664.42         203.4647
   664.56         203.2832
   664.70         203.1188
   664.84         202.9195
   664.98         202.6576
   665.12         202.3282
   665.26         201.9324
   665.40         201.4908
   665.54         201.0374
   665.68         200.5987
   665.82         200.2056
   665.96         199.8818
   666.10         199.6414
   666.24         199.4939
   666.38         199.4151
   666.52         199.3330
   666.66         199.1364
   666.80         198.7074
   666.94         197.9705
   667.08         196.9084
   667.22         195.5677
   667.36         194.0652
   667.50         192.5541
   667.64         191.1900
   667.78         190.1139
   667.92         189.4424
   668.06         189.2530
   668.20         189.5537
   668.34         190.3068
   668.48         191.4486
   668.62         192.8602
   668.76         194.3826
   668.90         195.8480
   669.04         197.1054
   669.18         198.0575
   669.32         198.6766
   669.46         199.0041
   669.60         199.1295
   669.74         199.1358
   669.88         199.0730
   670.02         198.9605
   670.16         198.7982
   670.30         198.5860
   670.44         198.3203
   670.58         197.9868
   670.72         197.5646
   670.86         197.0415
   671.00         196.4466
   671.14         195.8220
   671.28         195.2018
   671.42         194.6416
   671.56         194.1955
   671.70         193.8894
   671.84         193.7194
   671.98         193.6576
   672.12         193.6715
   672.26         193.7299
   672.40         193.7970
   672.54         193.8418
   672.68         193.8490
   672.82         193.8091
   672.96         193.7137
   673.10         193.5634
   673.24         193.3721
   673.38         193.1770
   673.52         193.0296
   673.66         192.9615
   673.80         192.9567
   673.94         192.9765
   674.08         192.9897
   674.22         192.9616
   674.36         192.8656
   674.50         192.6975
   674.64         192.4656
   674.78         192.1854
   674.92         191.8822
   675.06         191.5922
   675.20         191.3600
   675.34         191.2191
   675.48         191.1735
   675.62         191.2107
   675.76         191.3151
   675.90         191.4663
   676.04         191.6443
   676.18         191.8243
   676.32         191.9767
   676.46         192.0795
   676.60         192.1381
   676.74         192.1768
   676.88         192.2087
   677.02         192.2329
   677.16         192.2407
   677.30         192.2231
   677.44         192.1826
   677.58         192.1347
   677.72         192.0956
   677.86         192.0648
   678.00         192.0225
   678.14         191.9474
   678.28         191.8256
   678.42         191.6582
   678.56         191.4663
   678.70         191.2801
   678.84         191.1274
   678.98         191.0132
   679.12         190.9190
   679.26         190.8287
   679.40         190.7303
   679.54         190.6143
   679.68         190.4824
   679.82         190.3441
   679.96         190.2145
   680.10         190.1156
   680.24         190.0723
   680.38         190.0967
   680.52         190.1708
   680.66         190.2631
   680.80         190.3481
   680.94         190.3983
   681.08         190.3911
   681.22         190.3168
   681.36         190.1686
   681.50         189.9305
   681.64         189.5798
   681.78         189.1202
   681.92         188.5916
   682.06         188.0344
   682.20         187.4778
   682.34         186.9464
   682.48         186.4603
   682.62         186.0403
   682.76         185.6883
   682.90         185.3800
   683.04         185.0852
   683.18         184.7776
   683.32         184.4328
   683.46         184.0322
   683.60         183.5734
   683.74         183.0758
   683.88         182.5740
   684.02         182.0975
   684.16         181.6655
   684.30         181.2969
   684.44         181.0159
   684.58         180.8406
   684.72         180.7687
   684.86         180.7889
   685.00         180.8783
   685.14         180.9921
   685.28         181.0675
   685.42         181.0024
   685.56         180.6476
   685.70         179.8229
   685.84         178.3504
   685.98         176.1102
   686.12         173.0832
   686.26         169.3529
   686.40         165.0899
   686.54         160.5405
   686.68         155.9995
   686.82         151.7860
   686.96         148.2173
   687.10         145.5748
   687.24         144.0539
   687.38         143.7156
   687.52         144.4801
   687.66         146.1518
   687.80         148.4560
   687.94         151.0683
   688.08         153.6469
   688.22         155.8985
   688.36         157.6423
   688.50         158.8335
   688.64         159.5373
   688.78         159.8676
   688.92         159.9521
   689.06         159.9206
   689.20         159.8906
   689.34         159.9596
   689.48         160.1960
   689.62         160.6238
   689.76         161.2212
   689.90         161.9352
   690.04         162.7011
   690.18         163.4659
   690.32         164.2057
   690.46         164.9238
   690.60         165.6289
   690.74         166.3248
   690.88         167.0211
   691.02         167.7296
   691.16         168.4487
   691.30         169.1535
   691.44         169.8043
   691.58         170.3722
   691.72         170.8386
   691.86         171.1892
   692.00         171.4172
   692.14         171.5158
   692.28         171.4863
   692.42         171.3539
   692.56         171.1602
   692.70         170.9474
   692.84         170.7510
   692.98         170.6030
   693.12         170.5305
   693.26         170.5493
   693.40         170.6645
   693.54         170.8720
   693.68         171.1496
   693.82         171.4591
   693.96         171.7659
   694.10         172.0565
   694.24         172.3303
   694.38         172.5791
   694.52         172.7955
   694.66         172.9856
   694.80         173.1629
   694.94         173.3424
   695.08         173.5322
   695.22         173.7267
   695.36         173.9110
   695.50         174.0699
   695.64         174.1954
   695.78         174.2838
   695.92         174.3398
   696.06         174.3807
   696.20         174.4252
   696.34         174.4860
   696.48         174.5712
   696.62         174.6820
   696.76         174.8093
   696.90         174.9305
   697.04         175.0215
   697.18         175.0727
   697.32         175.0860
   697.46         175.0738
   697.60         175.0523
   697.74         175.0295
   697.88         175.0061
   698.02         174.9798
   698.16         174.9475
   698.30         174.9114
   698.44         174.8788
   698.58         174.8620
   698.72         174.8670
   698.86         174.8847
   699.00         174.9053
   699.14         174.9267
   699.28         174.9482
   699.42         174.9589
   699.56         174.9435
   699.70         174.8984
   699.84         174.8325
   699.98         174.7603
   700.12         174.6921
   700.26         174.6217
   700.40         174.5414
   700.54         174.4526
   700.68         174.3625
   700.82         174.2879
   700.96         174.2429
   701.10         174.2284
   701.24         174.2378
   701.38         174.2572
   701.52         174.2595
   701.66         174.2127
   701.80         174.0929
   701.94         173.8803
   702.08         173.5527
   702.22         173.1140
   702.36         172.6044
   702.50         172.0745
   702.64         171.5699
   702.78         171.1141
   702.92         170.7219
   703.06         170.4183
   703.20         170.2244
   703.34         170.1528
   703.48         170.2065
   703.62         170.3643
   703.76         170.5875
   703.90         170.8377
   704.04         171.0809
   704.18         171.2889
   704.32         171.4477
   704.46         171.5571
   704.60         171.6130
   704.74         171.6161
   704.88         171.5847
   705.02         171.5286
   705.16         171.4339
   705.30         171.2670
   705.44         170.9782
   705.58         170.5273
   705.72         169.8956
   705.86         169.0874
   706.00         168.1371
   706.14         167.1030
   706.28         166.0558
   706.42         165.0762
   706.56         164.2546
   706.70         163.6687
   706.84         163.3614
   706.98         163.3457
   707.12         163.6157
   707.26         164.1410
   707.40         164.8682
   707.54         165.7224
   707.68         166.6060
   707.82         167.4197
   707.96         168.0817
   708.10         168.5388
   708.24         168.7774
   708.38         168.8298
   708.52         168.7493
   708.66         168.5811
   708.80         168.3623
   708.94         168.1294
   709.08         167.9163
   709.22         167.7457
   709.36         167.6245
   709.50         167.5505
   709.64         167.5178
   709.78         167.5106
   709.92         167.5023
   710.06         167.4752
   710.20         167.4285
   710.34         167.3670
   710.48         167.3029
   710.62         167.2515
   710.76         167.2192
   710.90         167.2112
   711.04         167.2394
   711.18         167.3055
   711.32         167.3995
   711.46         167.5134
   711.60         167.6354
   711.74         167.7521
   711.88         167.8615
   712.02         167.9719
   712.16         168.0878
   712.30         168.2137
   712.44         168.3563
   712.58         168.5206
   712.72         168.7094
   712.86         168.9079
   713.00         169.0808
   713.14         169.1848
   713.28         169.1845
   713.42         169.0644
   713.56         168.8264
   713.70         168.4809
   713.84         168.0349
   713.98         167.5020
   714.12         166.9191
   714.26         166.3320
   714.40         165.7820
   714.54         165.3037
   714.68         164.9136
   714.82         164.6091
   714.96         164.3859
   715.10         164.2309
   715.24         164.1177
   715.38         164.0171
   715.52         163.9012
   715.66         163.7477
   715.80         163.5345
   715.94         163.2330
   716.08         162.8145
   716.22         162.2658
   716.36         161.5998
   716.50         160.8421
   716.64         160.0257
   716.78         159.1933
   716.92         158.3841
   717.06         157.6200
   717.20         156.9034
   717.34         156.2082
   717.48         155.4880
   717.62         154.7137
   717.76         153.8971
   717.90         153.0625
   718.04         152.2191
   718.18         151.3750
   718.32         150.5479
   718.46         149.7706
   718.60         149.0975
   718.74         148.5851
   718.88         148.2669
   719.02         148.1533
   719.16         148.2412
   719.30         148.5109
   719.44         148.9163
   719.58         149.4072
   719.72         149.9546
   719.86         150.5494
   720.00         151.1961
   720.14         151.9200
   720.28         152.7631
   720.42         153.7500
   720.56         154.8632
   720.70         156.0757
   720.84         157.3718
   720.98         158.7272
   721.12         160.0851
   721.26         161.3355
   721.40         162.3458
   721.54         163.0260
   721.68         163.3521
   721.82         163.3372
   721.96         162.9990
   722.10         162.3572
   722.24         161.4529
   722.38         160.3454
   722.52         159.0979
   722.66         157.7770
   722.80         156.4455
   722.94         155.1554
   723.08         153.9597
   723.22         152.9126
   723.36         152.0529
   723.50         151.4056
   723.64         150.9866
   723.78         150.8038
   723.92         150.8440
   724.06         151.0750
   724.20         151.4565
   724.34         151.9399
   724.48         152.4747
   724.62         153.0098
   724.76         153.5148
   724.90         153.9933
   725.04         154.4532
   725.18         154.8786
   725.32         155.2318
   725.46         155.4831
   725.60         155.6313
   725.74         155.6991
   725.88         155.7088
   726.02         155.6655
   726.16         155.5518
   726.30         155.3274
   726.44         154.9484
   726.58         154.3837
   726.72         153.6459
   726.86         152.7987
   727.00         151.9180
   727.14         151.0704
   727.28         150.3103
   727.42         149.6857
   727.56         149.2209
   727.70         148.8977
   727.84         148.6765
   727.98         148.5242
   728.12         148.4177
   728.26         148.3418
   728.40         148.2855
   728.54         148.2349
   728.68         148.1717
   728.82         148.0842
   728.96         147.9786
   729.10         147.8683
   729.24         147.7730
   729.38         147.7191
   729.52         147.7098
   729.66         147.7235
   729.80         147.7345
   729.94         147.7271
   730.08         147.6919
   730.22         147.6080
   730.36         147.4519
   730.50         147.2290
   730.64         146.9803
   730.78         146.7531
   730.92         146.5827
   731.06         146.4824
   731.20         146.4482
   731.34         146.4717
   731.48         146.5396
   731.62         146.6364
   731.76         146.7487
   731.90         146.8704
   732.04         146.9938
   732.18         147.0956
   732.32         147.1574
   732.46         147.1906
   732.60         147.2242
   732.74         147.2701
   732.88         147.3119
   733.02         147.3329
   733.16         147.3338
   733.30         147.3209
   733.44         147.2951
   733.58         147.2525
   733.72         147.1898
   733.86         147.1051
   734.00         146.9949
   734.14         146.8583
   734.28         146.7036
   734.42         146.5470
   734.56         146.4009
   734.70         146.2604
   734.84         146.1060
   734.98         145.9237
   735.12         145.7169
   735.26         145.4911
   735.40         145.2416
   735.54         144.9570
   735.68         144.6265
   735.82         144.2458
   735.96         143.8150
   736.10         143.3351
   736.24         142.8169
   736.38         142.2826
   736.52         141.7607
   736.66         141.2867
   736.80         140.8946
   736.94         140.5976
   737.08         140.3812
   737.22         140.2080
   737.36         140.0369
   737.50         139.8456
   737.64         139.6324
   737.78         139.4088
   737.92         139.1830
   738.06         138.9513
   738.20         138.7085
   738.34         138.4646
   738.48         138.2481
   738.62         138.0869
   738.76         138.0011
   738.90         137.9958
   739.04         138.0537
   739.18         138.1531
   739.32         138.2740
   739.46         138.3886
   739.60         138.4721
   739.74         138.5161
   739.88         138.5258
   740.02         138.5139
   740.16         138.4963
   740.30         138.4909
   740.44         138.5117
   740.58         138.5529
   740.72         138.5952
   740.86         138.6221
   741.00         138.6234
   741.14         138.5922
   741.28         138.5242
   741.42         138.4151
   741.56         138.2524
   741.70         138.0315
   741.84         137.7717
   741.98         137.5015
   742.12         137.2454
   742.26         137.0223
   742.40         136.8407
   742.54         136.7005
   742.68         136.6013
   742.82         136.5480
   742.96         136.5480
   743.10         136.6013
   743.24         136.7005
   743.38         136.8407
   743.52         137.0223
   743.66         137.2454
   743.80         137.5015
   743.94         137.7717
   744.08         138.0315
   744.22         138.2524
