# File HD5351
# Wavelength [nm]    Normalized Amplitude
   349.70         1.9613
   349.84         1.9157
   349.98         1.8857
   350.12         1.8676
   350.26         1.8579
   350.40         1.8542
   350.54         1.8559
   350.68         1.8620
   350.82         1.8706
   350.96         1.8779
   351.10         1.8807
   351.24         1.8779
   351.38         1.8706
   351.52         1.8620
   351.66         1.8559
   351.80         1.8542
   351.94         1.8579
   352.08         1.8676
   352.22         1.8857
   352.36         1.9157
   352.50         1.9613
   352.64         2.0242
   352.78         2.1040
   352.92         2.1993
   353.06         2.3071
   353.20         2.4213
   353.34         2.5330
   353.48         2.6328
   353.62         2.7144
   353.76         2.7754
   353.90         2.8162
   354.04         2.8378
   354.18         2.8409
   354.32         2.8265
   354.46         2.7960
   354.60         2.7526
   354.74         2.7005
   354.88         2.6440
   355.02         2.5864
   355.16         2.5279
   355.30         2.4662
   355.44         2.3982
   355.58         2.3218
   355.72         2.2361
   355.86         2.1406
   356.00         2.0365
   356.14         1.9275
   356.28         1.8191
   356.42         1.7158
   356.56         1.6194
   356.70         1.5299
   356.84         1.4492
   356.98         1.3797
   357.12         1.3229
   357.26         1.2782
   357.40         1.2436
   357.54         1.2169
   357.68         1.1968
   357.82         1.1831
   357.96         1.1769
   358.10         1.1802
   358.24         1.1956
   358.38         1.2255
   358.52         1.2727
   358.66         1.3389
   358.80         1.4229
   358.94         1.5195
   359.08         1.6201
   359.22         1.7153
   359.36         1.7968
   359.50         1.8582
   359.64         1.8949
   359.78         1.9051
   359.92         1.8906
   360.06         1.8566
   360.20         1.8104
   360.34         1.7589
   360.48         1.7074
   360.62         1.6592
   360.76         1.6185
   360.90         1.5901
   361.04         1.5784
   361.18         1.5857
   361.32         1.6118
   361.46         1.6542
   361.60         1.7080
   361.74         1.7659
   361.88         1.8207
   362.02         1.8667
   362.16         1.9007
   362.30         1.9221
   362.44         1.9325
   362.58         1.9352
   362.72         1.9345
   362.86         1.9351
   363.00         1.9403
   363.14         1.9510
   363.28         1.9671
   363.42         1.9878
   363.56         2.0116
   363.70         2.0362
   363.84         2.0593
   363.98         2.0796
   364.12         2.0968
   364.26         2.1117
   364.40         2.1277
   364.54         2.1504
   364.68         2.1868
   364.82         2.2430
   364.96         2.3223
   365.10         2.4250
   365.24         2.5481
   365.38         2.6849
   365.52         2.8258
   365.66         2.9589
   365.80         3.0733
   365.94         3.1624
   366.08         3.2236
   366.22         3.2575
   366.36         3.2668
   366.50         3.2548
   366.64         3.2235
   366.78         3.1737
   366.92         3.1059
   367.06         3.0218
   367.20         2.9247
   367.34         2.8183
   367.48         2.7064
   367.62         2.5945
   367.76         2.4898
   367.90         2.4003
   368.04         2.3327
   368.18         2.2915
   368.32         2.2795
   368.46         2.2983
   368.60         2.3474
   368.74         2.4231
   368.88         2.5183
   369.02         2.6230
   369.16         2.7245
   369.30         2.8093
   369.44         2.8667
   369.58         2.8899
   369.72         2.8766
   369.86         2.8296
   370.00         2.7559
   370.14         2.6657
   370.28         2.5701
   370.42         2.4783
   370.56         2.3949
   370.70         2.3201
   370.84         2.2524
   370.98         2.1897
   371.12         2.1305
   371.26         2.0733
   371.40         2.0160
   371.54         1.9558
   371.68         1.8907
   371.82         1.8199
   371.96         1.7453
   372.10         1.6698
   372.24         1.5964
   372.38         1.5277
   372.52         1.4656
   372.66         1.4102
   372.80         1.3601
   372.94         1.3135
   373.08         1.2688
   373.22         1.2250
   373.36         1.1826
   373.50         1.1434
   373.64         1.1099
   373.78         1.0847
   373.92         1.0698
   374.06         1.0668
   374.20         1.0772
   374.34         1.1015
   374.48         1.1388
   374.62         1.1861
   374.76         1.2399
   374.90         1.2974
   375.04         1.3570
   375.18         1.4170
   375.32         1.4756
   375.46         1.5315
   375.60         1.5841
   375.74         1.6342
   375.88         1.6845
   376.02         1.7396
   376.16         1.8049
   376.30         1.8846
   376.44         1.9811
   376.58         2.0949
   376.72         2.2235
   376.86         2.3618
   377.00         2.5020
   377.14         2.6353
   377.28         2.7528
   377.42         2.8467
   377.56         2.9106
   377.70         2.9403
   377.84         2.9357
   377.98         2.9005
   378.12         2.8417
   378.26         2.7666
   378.40         2.6820
   378.54         2.5936
   378.68         2.5060
   378.82         2.4237
   378.96         2.3520
   379.10         2.2969
   379.24         2.2631
   379.38         2.2521
   379.52         2.2623
   379.66         2.2896
   379.80         2.3286
   379.94         2.3726
   380.08         2.4140
   380.22         2.4456
   380.36         2.4620
   380.50         2.4599
   380.64         2.4359
   380.78         2.3871
   380.92         2.3125
   381.06         2.2141
   381.20         2.0966
   381.34         1.9669
   381.48         1.8328
   381.62         1.7014
   381.76         1.5786
   381.90         1.4684
   382.04         1.3729
   382.18         1.2935
   382.32         1.2314
   382.46         1.1866
   382.60         1.1569
   382.74         1.1395
   382.88         1.1325
   383.02         1.1365
   383.16         1.1532
   383.30         1.1843
   383.44         1.2312
   383.58         1.2942
   383.72         1.3718
   383.86         1.4605
   384.00         1.5558
   384.14         1.6528
   384.28         1.7449
   384.42         1.8251
   384.56         1.8868
   384.70         1.9246
   384.84         1.9369
   384.98         1.9251
   385.12         1.8931
   385.26         1.8467
   385.40         1.7944
   385.54         1.7459
   385.68         1.7096
   385.82         1.6909
   385.96         1.6913
   386.10         1.7093
   386.24         1.7413
   386.38         1.7827
   386.52         1.8281
   386.66         1.8720
   386.80         1.9091
   386.94         1.9355
   387.08         1.9498
   387.22         1.9522
   387.36         1.9440
   387.50         1.9280
   387.64         1.9082
   387.78         1.8894
   387.92         1.8768
   388.06         1.8743
   388.20         1.8838
   388.34         1.9048
   388.48         1.9354
   388.62         1.9731
   388.76         2.0147
   388.90         2.0567
   389.04         2.0951
   389.18         2.1265
   389.32         2.1491
   389.46         2.1630
   389.60         2.1701
   389.74         2.1734
   389.88         2.1773
   390.02         2.1874
   390.16         2.2087
   390.30         2.2443
   390.44         2.2933
   390.58         2.3510
   390.72         2.4094
   390.86         2.4599
   391.00         2.4950
   391.14         2.5098
   391.28         2.5011
   391.42         2.4671
   391.56         2.4081
   391.70         2.3259
   391.84         2.2239
   391.98         2.1071
   392.12         1.9816
   392.26         1.8537
   392.40         1.7291
   392.54         1.6131
   392.68         1.5105
   392.82         1.4247
   392.96         1.3573
   393.10         1.3092
   393.24         1.2812
   393.38         1.2751
   393.52         1.2924
   393.66         1.3346
   393.80         1.4018
   393.94         1.4919
   394.08         1.6007
   394.22         1.7225
   394.36         1.8501
   394.50         1.9758
   394.64         2.0908
   394.78         2.1867
   394.92         2.2563
   395.06         2.2942
   395.20         2.2978
   395.34         2.2666
   395.48         2.2021
   395.62         2.1085
   395.76         1.9934
   395.90         1.8680
   396.04         1.7449
   396.18         1.6369
   396.32         1.5557
   396.46         1.5107
   396.60         1.5085
   396.74         1.5516
   396.88         1.6388
   397.02         1.7658
   397.16         1.9257
   397.30         2.1106
   397.44         2.3120
   397.58         2.5214
   397.72         2.7307
   397.86         2.9327
   398.00         3.1216
   398.14         3.2929
   398.28         3.4435
   398.42         3.5722
   398.56         3.6798
   398.70         3.7688
   398.84         3.8429
   398.98         3.9062
   399.12         3.9610
   399.26         4.0081
   399.40         4.0478
   399.54         4.0817
   399.68         4.1123
   399.82         4.1424
   399.96         4.1747
   400.10         4.2115
   400.24         4.2533
   400.38         4.3002
   400.52         4.3510
   400.66         4.4039
   400.80         4.4569
   400.94         4.5085
   401.08         4.5578
   401.22         4.6050
   401.36         4.6505
   401.50         4.6935
   401.64         4.7304
   401.78         4.7552
   401.92         4.7614
   402.06         4.7451
   402.20         4.7059
   402.34         4.6475
   402.48         4.5771
   402.62         4.5031
   402.76         4.4334
   402.90         4.3737
   403.04         4.3263
   403.18         4.2898
   403.32         4.2604
   403.46         4.2352
   403.60         4.2139
   403.74         4.1990
   403.88         4.1934
   404.02         4.1986
   404.16         4.2130
   404.30         4.2340
   404.44         4.2592
   404.58         4.2888
   404.72         4.3247
   404.86         4.3668
   405.00         4.4110
   405.14         4.4495
   405.28         4.4744
   405.42         4.4791
   405.56         4.4608
   405.70         4.4205
   405.84         4.3630
   405.98         4.2981
   406.12         4.2381
   406.26         4.1933
   406.40         4.1689
   406.54         4.1656
   406.68         4.1823
   406.82         4.2189
   406.96         4.2751
   407.10         4.3500
   407.24         4.4426
   407.38         4.5519
   407.52         4.6767
   407.66         4.8160
   407.80         4.9683
   407.94         5.1303
   408.08         5.2952
   408.22         5.4534
   408.36         5.5930
   408.50         5.7024
   408.64         5.7724
   408.78         5.7969
   408.92         5.7737
   409.06         5.7065
   409.20         5.6046
   409.34         5.4811
   409.48         5.3495
   409.62         5.2223
   409.76         5.1102
   409.90         5.0217
   410.04         4.9626
   410.18         4.9354
   410.32         4.9391
   410.46         4.9696
   410.60         5.0205
   410.74         5.0841
   410.88         5.1521
   411.02         5.2180
   411.16         5.2773
   411.30         5.3280
   411.44         5.3696
   411.58         5.4020
   411.72         5.4242
   411.86         5.4330
   412.00         5.4242
   412.14         5.3954
   412.28         5.3481
   412.42         5.2873
   412.56         5.2209
   412.70         5.1576
   412.84         5.1023
   412.98         5.0545
   413.12         5.0110
   413.26         4.9688
   413.40         4.9274
   413.54         4.8885
   413.68         4.8544
   413.82         4.8270
   413.96         4.8072
   414.10         4.7949
   414.24         4.7901
   414.38         4.7935
   414.52         4.8074
   414.66         4.8362
   414.80         4.8845
   414.94         4.9546
   415.08         5.0447
   415.22         5.1475
   415.36         5.2519
   415.50         5.3461
   415.64         5.4218
   415.78         5.4749
   415.92         5.5043
   416.06         5.5094
   416.20         5.4899
   416.34         5.4473
   416.48         5.3854
   416.62         5.3110
   416.76         5.2328
   416.90         5.1595
   417.04         5.0980
   417.18         5.0529
   417.32         5.0259
   417.46         5.0152
   417.60         5.0171
   417.74         5.0274
   417.88         5.0420
   418.02         5.0587
   418.16         5.0766
   418.30         5.0945
   418.44         5.1094
   418.58         5.1172
   418.72         5.1146
   418.86         5.1004
   419.00         5.0751
   419.14         5.0408
   419.28         5.0015
   419.42         4.9616
   419.56         4.9257
   419.70         4.8993
   419.84         4.8883
   419.98         4.8985
   420.12         4.9334
   420.26         4.9929
   420.40         5.0728
   420.54         5.1653
   420.68         5.2603
   420.82         5.3458
   420.96         5.4079
   421.10         5.4315
   421.24         5.4036
   421.38         5.3156
   421.52         5.1657
   421.66         4.9605
   421.80         4.7147
   421.94         4.4481
   422.08         4.1820
   422.22         3.9365
   422.36         3.7293
   422.50         3.5745
   422.64         3.4825
   422.78         3.4579
   422.92         3.5008
   423.06         3.6075
   423.20         3.7704
   423.34         3.9762
   423.48         4.2060
   423.62         4.4366
   423.76         4.6455
   423.90         4.8149
   424.04         4.9343
   424.18         5.0007
   424.32         5.0174
   424.46         4.9924
   424.60         4.9349
   424.74         4.8534
   424.88         4.7576
   425.02         4.6602
   425.16         4.5760
   425.30         4.5188
   425.44         4.4973
   425.58         4.5138
   425.72         4.5624
   425.86         4.6304
   426.00         4.7003
   426.14         4.7548
   426.28         4.7816
   426.42         4.7772
   426.56         4.7455
   426.70         4.6957
   426.84         4.6387
   426.98         4.5860
   427.12         4.5469
   427.26         4.5279
   427.40         4.5319
   427.54         4.5587
   427.68         4.6035
   427.82         4.6575
   427.96         4.7100
   428.10         4.7510
   428.24         4.7729
   428.38         4.7718
   428.52         4.7473
   428.66         4.7022
   428.80         4.6428
   428.94         4.5769
   429.08         4.5112
   429.22         4.4496
   429.36         4.3921
   429.50         4.3362
   429.64         4.2798
   429.78         4.2233
   429.92         4.1696
   430.06         4.1238
   430.20         4.0929
   430.34         4.0874
   430.48         4.1194
   430.62         4.1988
   430.76         4.3296
   430.90         4.5082
   431.04         4.7235
   431.18         4.9568
   431.32         5.1875
   431.46         5.3980
   431.60         5.5775
   431.74         5.7218
   431.88         5.8315
   432.02         5.9115
   432.16         5.9710
   432.30         6.0213
   432.44         6.0724
   432.58         6.1301
   432.72         6.1956
   432.86         6.2680
   433.00         6.3458
   433.14         6.4259
   433.28         6.5038
   433.42         6.5750
   433.56         6.6357
   433.70         6.6835
   433.84         6.7173
   433.98         6.7394
   434.12         6.7547
   434.26         6.7686
   434.40         6.7846
   434.54         6.8034
   434.68         6.8243
   434.82         6.8460
   434.96         6.8678
   435.10         6.8908
   435.24         6.9180
   435.38         6.9540
   435.52         7.0023
   435.66         7.0638
   435.80         7.1351
   435.94         7.2093
   436.08         7.2774
   436.22         7.3288
   436.36         7.3534
   436.50         7.3444
   436.64         7.3006
   436.78         7.2250
   436.92         7.1210
   437.06         6.9894
   437.20         6.8306
   437.34         6.6491
   437.48         6.4542
   437.62         6.2585
   437.76         6.0749
   437.90         5.9153
   438.04         5.7897
   438.18         5.7060
   438.32         5.6706
   438.46         5.6874
   438.60         5.7565
   438.74         5.8716
   438.88         6.0204
   439.02         6.1854
   439.16         6.3456
   439.30         6.4789
   439.44         6.5671
   439.58         6.6017
   439.72         6.5866
   439.86         6.5370
   440.00         6.4725
   440.14         6.4093
   440.28         6.3585
   440.42         6.3281
   440.56         6.3256
   440.70         6.3570
   440.84         6.4249
   440.98         6.5260
   441.12         6.6516
   441.26         6.7871
   441.40         6.9160
   441.54         7.0244
   441.68         7.1048
   441.82         7.1565
   441.96         7.1841
   442.10         7.1940
   442.24         7.1909
   442.38         7.1779
   442.52         7.1581
   442.66         7.1354
   442.80         7.1142
   442.94         7.0995
   443.08         7.0973
   443.22         7.1125
   443.36         7.1468
   443.50         7.1989
   443.64         7.2650
   443.78         7.3404
   443.92         7.4188
   444.06         7.4914
   444.20         7.5483
   444.34         7.5793
   444.48         7.5761
   444.62         7.5339
   444.76         7.4527
   444.90         7.3394
   445.04         7.2079
   445.18         7.0751
   445.32         6.9570
   445.46         6.8666
   445.60         6.8145
   445.74         6.8097
   445.88         6.8576
   446.02         6.9579
   446.16         7.1040
   446.30         7.2848
   446.44         7.4865
   446.58         7.6936
   446.72         7.8903
   446.86         8.0632
   447.00         8.2045
   447.14         8.3125
   447.28         8.3896
   447.42         8.4416
   447.56         8.4748
   447.70         8.4947
   447.84         8.5059
   447.98         8.5113
   448.12         8.5114
   448.26         8.5056
   448.40         8.4938
   448.54         8.4781
   448.68         8.4618
   448.82         8.4497
   448.96         8.4466
   449.10         8.4568
   449.24         8.4831
   449.38         8.5270
   449.52         8.5898
   449.66         8.6720
   449.80         8.7710
   449.94         8.8803
   450.08         8.9896
   450.22         9.0877
   450.36         9.1651
   450.50         9.2156
   450.64         9.2372
   450.78         9.2314
   450.92         9.2033
   451.06         9.1596
   451.20         9.1063
   451.34         9.0456
   451.48         8.9764
   451.62         8.8966
   451.76         8.8053
   451.90         8.7011
   452.04         8.5822
   452.18         8.4472
   452.32         8.2995
   452.46         8.1479
   452.60         8.0052
   452.74         7.8840
   452.88         7.7956
   453.02         7.7481
   453.16         7.7454
   453.30         7.7861
   453.44         7.8632
   453.58         7.9654
   453.72         8.0793
   453.86         8.1920
   454.00         8.2925
   454.14         8.3744
   454.28         8.4366
   454.42         8.4820
   454.56         8.5149
   454.70         8.5423
   454.84         8.5735
   454.98         8.6178
   455.12         8.6796
   455.26         8.7583
   455.40         8.8498
   455.54         8.9484
   455.68         9.0463
   455.82         9.1356
   455.96         9.2105
   456.10         9.2687
   456.24         9.3110
   456.38         9.3400
   456.52         9.3575
   456.66         9.3641
   456.80         9.3608
   456.94         9.3501
   457.08         9.3344
   457.22         9.3152
   457.36         9.2937
   457.50         9.2719
   457.64         9.2513
   457.78         9.2340
   457.92         9.2222
   458.06         9.2170
   458.20         9.2175
   458.34         9.2228
   458.48         9.2328
   458.62         9.2473
   458.76         9.2645
   458.90         9.2810
   459.04         9.2929
   459.18         9.2980
   459.32         9.2969
   459.46         9.2937
   459.60         9.2940
   459.74         9.3031
   459.88         9.3242
   460.02         9.3586
   460.16         9.4056
   460.30         9.4623
   460.44         9.5239
   460.58         9.5853
   460.72         9.6424
   460.86         9.6917
   461.00         9.7306
   461.14         9.7574
   461.28         9.7725
   461.42         9.7779
   461.56         9.7772
   461.70         9.7747
   461.84         9.7734
   461.98         9.7743
   462.12         9.7773
   462.26         9.7815
   462.40         9.7842
   462.54         9.7807
   462.68         9.7671
   462.82         9.7422
   462.96         9.7069
   463.10         9.6629
   463.24         9.6121
   463.38         9.5561
   463.52         9.4965
   463.66         9.4354
   463.80         9.3755
   463.94         9.3192
   464.08         9.2670
   464.22         9.2189
   464.36         9.1752
   464.50         9.1377
   464.64         9.1104
   464.78         9.0980
   464.92         9.1036
   465.06         9.1276
   465.20         9.1672
   465.34         9.2175
   465.48         9.2714
   465.62         9.3210
   465.76         9.3601
   465.90         9.3847
   466.04         9.3940
   466.18         9.3899
   466.32         9.3761
   466.46         9.3568
   466.60         9.3359
   466.74         9.3168
   466.88         9.3020
   467.02         9.2935
   467.16         9.2931
   467.30         9.3020
   467.44         9.3204
   467.58         9.3451
   467.72         9.3702
   467.86         9.3903
   468.00         9.4025
   468.14         9.4079
   468.28         9.4101
   468.42         9.4123
   468.56         9.4140
   468.70         9.4120
   468.84         9.4013
   468.98         9.3767
   469.12         9.3339
   469.26         9.2712
   469.40         9.1909
   469.54         9.0984
   469.68         9.0016
   469.82         8.9106
   469.96         8.8351
   470.10         8.7808
   470.24         8.7492
   470.38         8.7409
   470.52         8.7567
   470.66         8.7967
   470.80         8.8592
   470.94         8.9390
   471.08         9.0284
   471.22         9.1185
   471.36         9.2013
   471.50         9.2709
   471.64         9.3234
   471.78         9.3578
   471.92         9.3746
   472.06         9.3752
   472.20         9.3608
   472.34         9.3334
   472.48         9.2955
   472.62         9.2491
   472.76         9.1966
   472.90         9.1416
   473.04         9.0887
   473.18         9.0434
   473.32         9.0110
   473.46         8.9952
   473.60         8.9975
   473.74         9.0174
   473.88         9.0530
   474.02         9.1000
   474.16         9.1523
   474.30         9.2033
   474.44         9.2471
   474.58         9.2792
   474.72         9.2966
   474.86         9.2976
   475.00         9.2809
   475.14         9.2462
   475.28         9.1948
   475.42         9.1297
   475.56         9.0542
   475.70         8.9727
   475.84         8.8896
   475.98         8.8082
   476.12         8.7305
   476.26         8.6573
   476.40         8.5886
   476.54         8.5234
   476.68         8.4602
   476.82         8.3981
   476.96         8.3372
   477.10         8.2778
   477.24         8.2203
   477.38         8.1657
   477.52         8.1146
   477.66         8.0683
   477.80         8.0309
   477.94         8.0082
   478.08         8.0057
   478.22         8.0262
   478.36         8.0700
   478.50         8.1347
   478.64         8.2162
   478.78         8.3104
   478.92         8.4131
   479.06         8.5195
   479.20         8.6248
   479.34         8.7245
   479.48         8.8157
   479.62         8.8962
   479.76         8.9656
   479.90         9.0255
   480.04         9.0785
   480.18         9.1274
   480.32         9.1753
   480.46         9.2242
   480.60         9.2740
   480.74         9.3214
   480.88         9.3620
   481.02         9.3911
   481.16         9.4054
   481.30         9.4035
   481.44         9.3851
   481.58         9.3505
   481.72         9.3005
   481.86         9.2374
   482.00         9.1661
   482.14         9.0929
   482.28         9.0237
   482.42         8.9633
   482.56         8.9154
   482.70         8.8822
   482.84         8.8645
   482.98         8.8622
   483.12         8.8741
   483.26         8.8985
   483.40         8.9337
   483.54         8.9779
   483.68         9.0290
   483.82         9.0841
   483.96         9.1404
   484.10         9.1956
   484.24         9.2465
   484.38         9.2892
   484.52         9.3197
   484.66         9.3332
   484.80         9.3254
   484.94         9.2935
   485.08         9.2391
   485.22         9.1675
   485.36         9.0859
   485.50         9.0016
   485.64         8.9198
   485.78         8.8427
   485.92         8.7713
   486.06         8.7070
   486.20         8.6522
   486.34         8.6100
   486.48         8.5840
   486.62         8.5770
   486.76         8.5886
   486.90         8.6154
   487.04         8.6531
   487.18         8.6971
   487.32         8.7421
   487.46         8.7839
   487.60         8.8187
   487.74         8.8413
   487.88         8.8461
   488.02         8.8301
   488.16         8.7952
   488.30         8.7478
   488.44         8.6983
   488.58         8.6594
   488.72         8.6422
   488.86         8.6529
   489.00         8.6924
   489.14         8.7575
   489.28         8.8422
   489.42         8.9403
   489.56         9.0455
   489.70         9.1502
   489.84         9.2458
   489.98         9.3245
   490.12         9.3817
   490.26         9.4155
   490.40         9.4262
   490.54         9.4150
   490.68         9.3816
   490.82         9.3247
   490.96         9.2431
   491.10         9.1381
   491.24         9.0149
   491.38         8.8821
   491.52         8.7519
   491.66         8.6394
   491.80         8.5595
   491.94         8.5230
   492.08         8.5339
   492.22         8.5889
   492.36         8.6796
   492.50         8.7932
   492.64         8.9146
   492.78         9.0283
   492.92         9.1210
   493.06         9.1829
   493.20         9.2094
   493.34         9.2022
   493.48         9.1701
   493.62         9.1266
   493.76         9.0864
   493.90         9.0625
   494.04         9.0641
   494.18         9.0944
   494.32         9.1483
   494.46         9.2118
   494.60         9.2671
   494.74         9.2991
   494.88         9.3011
   495.02         9.2724
   495.16         9.2164
   495.30         9.1408
   495.44         9.0565
   495.58         8.9742
   495.72         8.9017
   495.86         8.8443
   496.00         8.8060
   496.14         8.7902
   496.28         8.7982
   496.42         8.8277
   496.56         8.8714
   496.70         8.9180
   496.84         8.9538
   496.98         8.9659
   497.12         8.9450
   497.26         8.8907
   497.40         8.8108
   497.54         8.7162
   497.68         8.6157
   497.82         8.5163
   497.96         8.4242
   498.10         8.3446
   498.24         8.2820
   498.38         8.2411
   498.52         8.2256
   498.66         8.2353
   498.80         8.2648
   498.94         8.3053
   499.08         8.3472
   499.22         8.3816
   499.36         8.4002
   499.50         8.3960
   499.64         8.3659
   499.78         8.3135
   499.92         8.2473
   500.06         8.1750
   500.20         8.0998
   500.34         8.0219
   500.48         7.9430
   500.62         7.8666
   500.76         7.7974
   500.90         7.7392
   501.04         7.6941
   501.18         7.6615
   501.32         7.6402
   501.46         7.6300
   501.60         7.6305
   501.74         7.6409
   501.88         7.6594
   502.02         7.6843
   502.16         7.7152
   502.30         7.7522
   502.44         7.7938
   502.58         7.8345
   502.72         7.8666
   502.86         7.8833
   503.00         7.8815
   503.14         7.8622
   503.28         7.8294
   503.42         7.7887
   503.56         7.7457
   503.70         7.7047
   503.84         7.6692
   503.98         7.6425
   504.12         7.6271
   504.26         7.6241
   504.40         7.6342
   504.54         7.6587
   504.68         7.6977
   504.82         7.7498
   504.96         7.8109
   505.10         7.8747
   505.24         7.9339
   505.38         7.9819
   505.52         8.0136
   505.66         8.0265
   505.80         8.0202
   505.94         7.9949
   506.08         7.9508
   506.22         7.8881
   506.36         7.8088
   506.50         7.7178
   506.64         7.6233
   506.78         7.5332
   506.92         7.4533
   507.06         7.3876
   507.20         7.3383
   507.34         7.3059
   507.48         7.2891
   507.62         7.2847
   507.76         7.2894
   507.90         7.3011
   508.04         7.3200
   508.18         7.3469
   508.32         7.3813
   508.46         7.4206
   508.60         7.4614
   508.74         7.4986
   508.88         7.5271
   509.02         7.5417
   509.16         7.5393
   509.30         7.5183
   509.44         7.4793
   509.58         7.4252
   509.72         7.3614
   509.86         7.2945
   510.00         7.2312
   510.14         7.1773
   510.28         7.1372
   510.42         7.1140
   510.56         7.1095
   510.70         7.1233
   510.84         7.1520
   510.98         7.1896
   511.12         7.2294
   511.26         7.2647
   511.40         7.2887
   511.54         7.2961
   511.68         7.2842
   511.82         7.2533
   511.96         7.2072
   512.10         7.1531
   512.24         7.0988
   512.38         7.0521
   512.52         7.0190
   512.66         7.0030
   512.80         7.0044
   512.94         7.0210
   513.08         7.0491
   513.22         7.0834
   513.36         7.1177
   513.50         7.1460
   513.64         7.1638
   513.78         7.1684
   513.92         7.1583
   514.06         7.1335
   514.20         7.0961
   514.34         7.0514
   514.48         7.0078
   514.62         6.9741
   514.76         6.9569
   514.90         6.9585
   515.04         6.9772
   515.18         7.0069
   515.32         7.0375
   515.46         7.0558
   515.60         7.0489
   515.74         7.0068
   515.88         6.9214
   516.02         6.7874
   516.16         6.6052
   516.30         6.3831
   516.44         6.1362
   516.58         5.8827
   516.72         5.6414
   516.86         5.4281
   517.00         5.2530
   517.14         5.1199
   517.28         5.0290
   517.42         4.9795
   517.56         4.9709
   517.70         5.0019
   517.84         5.0691
   517.98         5.1671
   518.12         5.2921
   518.26         5.4435
   518.40         5.6221
   518.54         5.8281
   518.68         6.0607
   518.82         6.3179
   518.96         6.5926
   519.10         6.8690
   519.24         7.1231
   519.38         7.3286
   519.52         7.4646
   519.66         7.5211
   519.80         7.5033
   519.94         7.4307
   520.08         7.3294
   520.22         7.2252
   520.36         7.1386
   520.50         7.0863
   520.64         7.0849
   520.78         7.1483
   520.92         7.2833
   521.06         7.4855
   521.20         7.7384
   521.34         8.0164
   521.48         8.2904
   521.62         8.5340
   521.76         8.7277
   521.90         8.8607
   522.04         8.9334
   522.18         8.9569
   522.32         8.9498
   522.46         8.9337
   522.60         8.9280
   522.74         8.9454
   522.88         8.9918
   523.02         9.0692
   523.16         9.1763
   523.30         9.3078
   523.44         9.4519
   523.58         9.5929
   523.72         9.7156
   523.86         9.8087
   524.00         9.8670
   524.14         9.8910
   524.28         9.8846
   524.42         9.8536
   524.56         9.8045
   524.70         9.7459
   524.84         9.6850
   524.98         9.6241
   525.12         9.5606
   525.26         9.4884
   525.40         9.4007
   525.54         9.2896
   525.68         9.1480
   525.82         8.9735
   525.96         8.7715
   526.10         8.5549
   526.24         8.3415
   526.38         8.1517
   526.52         8.0058
   526.66         7.9200
   526.80         7.9031
   526.94         7.9555
   527.08         8.0702
   527.22         8.2354
   527.36         8.4355
   527.50         8.6526
   527.64         8.8696
   527.78         9.0729
   527.92         9.2544
   528.06         9.4099
   528.20         9.5382
   528.34         9.6397
   528.48         9.7162
   528.62         9.7696
   528.76         9.8009
   528.90         9.8108
   529.04         9.8022
   529.18         9.7796
   529.32         9.7483
   529.46         9.7147
   529.60         9.6875
   529.74         9.6766
   529.88         9.6901
   530.02         9.7319
   530.16         9.8013
   530.30         9.8935
   530.44         10.0015
   530.58         10.1164
   530.72         10.2273
   530.86         10.3221
   531.00         10.3890
   531.14         10.4194
   531.28         10.4085
   531.42         10.3532
   531.56         10.2520
   531.70         10.1070
   531.84         9.9267
   531.98         9.7248
   532.12         9.5180
   532.26         9.3235
   532.40         9.1573
   532.54         9.0316
   532.68         8.9524
   532.82         8.9200
   532.96         8.9310
   533.10         8.9785
   533.24         9.0521
   533.38         9.1393
   533.52         9.2272
   533.66         9.3048
   533.80         9.3658
   533.94         9.4086
   534.08         9.4369
   534.22         9.4596
   534.36         9.4901
   534.50         9.5404
   534.64         9.6169
   534.78         9.7186
   534.92         9.8394
   535.06         9.9697
   535.20         10.0972
   535.34         10.2098
   535.48         10.2973
   535.62         10.3513
   535.76         10.3637
   535.90         10.3294
   536.04         10.2505
   536.18         10.1369
   536.32         10.0042
   536.46         9.8703
   536.60         9.7528
   536.74         9.6663
   536.88         9.6215
   537.02         9.6226
   537.16         9.6669
   537.30         9.7467
   537.44         9.8510
   537.58         9.9668
   537.72         10.0801
   537.86         10.1769
   538.00         10.2455
   538.14         10.2777
   538.28         10.2687
   538.42         10.2184
   538.56         10.1327
   538.70         10.0225
   538.84         9.9005
   538.98         9.7767
   539.12         9.6574
   539.26         9.5444
   539.40         9.4386
   539.54         9.3413
   539.68         9.2546
   539.82         9.1810
   539.96         9.1240
   540.10         9.0878
   540.24         9.0753
   540.38         9.0875
   540.52         9.1250
   540.66         9.1876
   540.80         9.2741
   540.94         9.3810
   541.08         9.5037
   541.22         9.6371
   541.36         9.7753
   541.50         9.9091
   541.64         10.0257
   541.78         10.1124
   541.92         10.1620
   542.06         10.1731
   542.20         10.1479
   542.34         10.0914
   542.48         10.0129
   542.62         9.9252
   542.76         9.8413
   542.90         9.7731
   543.04         9.7297
   543.18         9.7153
   543.32         9.7271
   543.46         9.7572
   543.60         9.7966
   543.74         9.8377
   543.88         9.8758
   544.02         9.9077
   544.16         9.9292
   544.30         9.9359
   544.44         9.9271
   544.58         9.9070
   544.72         9.8827
   544.86         9.8618
   545.00         9.8518
   545.14         9.8577
   545.28         9.8811
   545.42         9.9204
   545.56         9.9711
   545.70         10.0264
   545.84         10.0791
   545.98         10.1244
   546.12         10.1608
   546.26         10.1882
   546.40         10.2057
   546.54         10.2113
   546.68         10.2031
   546.82         10.1804
   546.96         10.1450
   547.10         10.1031
   547.24         10.0630
   547.38         10.0312
   547.52         10.0107
   547.66         10.0022
   547.80         10.0066
   547.94         10.0241
   548.08         10.0537
   548.22         10.0931
   548.36         10.1386
   548.50         10.1859
   548.64         10.2310
   548.78         10.2699
   548.92         10.3005
   549.06         10.3231
   549.20         10.3394
   549.34         10.3507
   549.48         10.3567
   549.62         10.3569
   549.76         10.3526
   549.90         10.3440
   550.04         10.3286
   550.18         10.3028
   550.32         10.2661
   550.46         10.2216
   550.60         10.1742
   550.74         10.1303
   550.88         10.0960
   551.02         10.0768
   551.16         10.0766
   551.30         10.0964
   551.44         10.1336
   551.58         10.1825
   551.72         10.2363
   551.86         10.2884
   552.00         10.3336
   552.14         10.3686
   552.28         10.3921
   552.42         10.4035
   552.56         10.4035
   552.70         10.3944
   552.84         10.3811
   552.98         10.3704
   553.12         10.3678
   553.26         10.3766
   553.40         10.3971
   553.54         10.4277
   553.68         10.4657
   553.82         10.5087
   553.96         10.5547
   554.10         10.6016
   554.24         10.6481
   554.38         10.6937
   554.52         10.7380
   554.66         10.7780
   554.80         10.8098
   554.94         10.8299
   555.08         10.8356
   555.22         10.8251
   555.36         10.7976
   555.50         10.7537
   555.64         10.6949
   555.78         10.6239
   555.92         10.5451
   556.06         10.4633
   556.20         10.3835
   556.34         10.3105
   556.48         10.2486
   556.62         10.2022
   556.76         10.1739
   556.90         10.1650
   557.04         10.1745
   557.18         10.1995
   557.32         10.2347
   557.46         10.2727
   557.60         10.3035
   557.74         10.3175
   557.88         10.3087
   558.02         10.2761
   558.16         10.2220
   558.30         10.1515
   558.44         10.0720
   558.58         9.9922
   558.72         9.9193
   558.86         9.8593
   559.00         9.8171
   559.14         9.7953
   559.28         9.7946
   559.42         9.8141
   559.56         9.8519
   559.70         9.9057
   559.84         9.9730
   559.98         10.0498
   560.12         10.1318
   560.26         10.2138
   560.40         10.2905
   560.54         10.3567
   560.68         10.4082
   560.82         10.4410
   560.96         10.4538
   561.10         10.4475
   561.24         10.4241
   561.38         10.3867
   561.52         10.3407
   561.66         10.2941
   561.80         10.2562
   561.94         10.2361
   562.08         10.2399
   562.22         10.2699
   562.36         10.3242
   562.50         10.3974
   562.64         10.4820
   562.78         10.5701
   562.92         10.6547
   563.06         10.7309
   563.20         10.7971
   563.34         10.8525
   563.48         10.8969
   563.62         10.9304
   563.76         10.9529
   563.90         10.9646
   564.04         10.9679
   564.18         10.9664
   564.32         10.9627
   564.46         10.9580
   564.60         10.9517
   564.74         10.9418
   564.88         10.9257
   565.02         10.9015
   565.16         10.8689
   565.30         10.8289
   565.44         10.7842
   565.58         10.7377
   565.72         10.6921
   565.86         10.6497
   566.00         10.6132
   566.14         10.5858
   566.28         10.5709
   566.42         10.5700
   566.56         10.5833
   566.70         10.6096
   566.84         10.6462
   566.98         10.6882
   567.12         10.7304
   567.26         10.7679
   567.40         10.7972
   567.54         10.8160
   567.68         10.8227
   567.82         10.8171
   567.96         10.8003
   568.10         10.7753
   568.24         10.7461
   568.38         10.7169
   568.52         10.6918
   568.66         10.6740
   568.80         10.6652
   568.94         10.6642
   569.08         10.6676
   569.22         10.6714
   569.36         10.6721
   569.50         10.6664
   569.64         10.6512
   569.78         10.6244
   569.92         10.5851
   570.06         10.5344
   570.20         10.4755
   570.34         10.4137
   570.48         10.3557
   570.62         10.3082
   570.76         10.2766
   570.90         10.2635
   571.04         10.2700
   571.18         10.2968
   571.32         10.3430
   571.46         10.4050
   571.60         10.4783
   571.74         10.5587
   571.88         10.6419
   572.02         10.7226
   572.16         10.7959
   572.30         10.8580
   572.44         10.9067
   572.58         10.9413
   572.72         10.9629
   572.86         10.9732
   573.00         10.9735
   573.14         10.9650
   573.28         10.9501
   573.42         10.9318
   573.56         10.9128
   573.70         10.8959
   573.84         10.8829
   573.98         10.8739
   574.12         10.8678
   574.26         10.8640
   574.40         10.8627
   574.54         10.8641
   574.68         10.8686
   574.82         10.8763
   574.96         10.8861
   575.10         10.8953
   575.24         10.9017
   575.38         10.9047
   575.52         10.9046
   575.66         10.9026
   575.80         10.9010
   575.94         10.9026
   576.08         10.9094
   576.22         10.9221
   576.36         10.9407
   576.50         10.9643
   576.64         10.9908
   576.78         11.0167
   576.92         11.0376
   577.06         11.0491
   577.20         11.0468
   577.34         11.0271
   577.48         10.9880
   577.62         10.9310
   577.76         10.8601
   577.90         10.7812
   578.04         10.7018
   578.18         10.6303
   578.32         10.5751
   578.46         10.5426
   578.60         10.5358
   578.74         10.5548
   578.88         10.5975
   579.02         10.6602
   579.16         10.7375
   579.30         10.8223
   579.44         10.9065
   579.58         10.9835
   579.72         11.0496
   579.86         11.1041
   580.00         11.1476
   580.14         11.1820
   580.28         11.2091
   580.42         11.2301
   580.56         11.2468
   580.70         11.2612
   580.84         11.2750
   580.98         11.2890
   581.12         11.3032
   581.26         11.3172
   581.40         11.3306
   581.54         11.3440
   581.68         11.3574
   581.82         11.3705
   581.96         11.3833
   582.10         11.3956
   582.24         11.4075
   582.38         11.4195
   582.52         11.4326
   582.66         11.4466
   582.80         11.4613
   582.94         11.4768
   583.08         11.4943
   583.22         11.5141
   583.36         11.5357
   583.50         11.5574
   583.64         11.5770
   583.78         11.5917
   583.92         11.5986
   584.06         11.5954
   584.20         11.5808
   584.34         11.5528
   584.48         11.5089
   584.62         11.4489
   584.76         11.3754
   584.90         11.2946
   585.04         11.2136
   585.18         11.1391
   585.32         11.0765
   585.46         11.0304
   585.60         11.0045
   585.74         11.0015
   585.88         11.0213
   586.02         11.0618
   586.16         11.1184
   586.30         11.1862
   586.44         11.2583
   586.58         11.3260
   586.72         11.3815
   586.86         11.4194
   587.00         11.4356
   587.14         11.4273
   587.28         11.3926
   587.42         11.3270
   587.56         11.2201
   587.70         11.0578
   587.84         10.8307
   587.98         10.5393
   588.12         10.1925
   588.26         9.8021
   588.40         9.3834
   588.54         8.9583
   588.68         8.5552
   588.82         8.2054
   588.96         7.9382
   589.10         7.7753
   589.24         7.7299
   589.38         7.8071
   589.52         8.0019
   589.66         8.2978
   589.80         8.6681
   589.94         9.0806
   590.08         9.5013
   590.22         9.9001
   590.36         10.2561
   590.50         10.5596
   590.64         10.8063
   590.78         10.9931
   590.92         11.1207
   591.06         11.1983
   591.20         11.2404
   591.34         11.2592
   591.48         11.2623
   591.62         11.2539
   591.76         11.2377
   591.90         11.2182
   592.04         11.1989
   592.18         11.1801
   592.32         11.1617
   592.46         11.1444
   592.60         11.1295
   592.74         11.1177
   592.88         11.1095
   593.02         11.1052
   593.16         11.1048
   593.30         11.1081
   593.44         11.1151
   593.58         11.1251
   593.72         11.1370
   593.86         11.1482
   594.00         11.1545
   594.14         11.1531
   594.28         11.1443
   594.42         11.1304
   594.56         11.1132
   594.70         11.0947
   594.84         11.0783
   594.98         11.0686
   595.12         11.0682
   595.26         11.0762
   595.40         11.0909
   595.54         11.1109
   595.68         11.1357
   595.82         11.1648
   595.96         11.1976
   596.10         11.2305
   596.24         11.2586
   596.38         11.2772
   596.52         11.2825
   596.66         11.2724
   596.80         11.2485
   596.94         11.2143
   597.08         11.1736
   597.22         11.1280
   597.36         11.0790
   597.50         11.0282
   597.64         10.9777
   597.78         10.9297
   597.92         10.8877
   598.06         10.8561
   598.20         10.8381
   598.34         10.8352
   598.48         10.8466
   598.62         10.8689
   598.76         10.8977
   598.90         10.9297
   599.04         10.9625
   599.18         10.9937
   599.32         11.0212
   599.46         11.0423
   599.60         11.0529
   599.74         11.0492
   599.88         11.0300
   600.02         10.9973
   600.16         10.9557
   600.30         10.9094
   600.44         10.8624
   600.58         10.8178
   600.72         10.7771
   600.86         10.7397
   601.00         10.7057
   601.14         10.6758
   601.28         10.6513
   601.42         10.6341
   601.56         10.6252
   601.70         10.6241
   601.84         10.6294
   601.98         10.6400
   602.12         10.6542
   602.26         10.6715
   602.40         10.6930
   602.54         10.7188
   602.68         10.7477
   602.82         10.7775
   602.96         10.8061
   603.10         10.8331
   603.24         10.8596
   603.38         10.8866
   603.52         10.9158
   603.66         10.9493
   603.80         10.9878
   603.94         11.0300
   604.08         11.0727
   604.22         11.1118
   604.36         11.1437
   604.50         11.1670
   604.64         11.1813
   604.78         11.1876
   604.92         11.1871
   605.06         11.1808
   605.20         11.1682
   605.34         11.1494
   605.48         11.1256
   605.62         11.0990
   605.76         11.0728
   605.90         11.0497
   606.04         11.0314
   606.18         11.0187
   606.32         11.0118
   606.46         11.0093
   606.60         11.0092
   606.74         11.0099
   606.88         11.0099
   607.02         11.0083
   607.16         11.0042
   607.30         10.9969
   607.44         10.9855
   607.58         10.9691
   607.72         10.9475
   607.86         10.9219
   608.00         10.8950
   608.14         10.8702
   608.28         10.8507
   608.42         10.8377
   608.56         10.8306
   608.70         10.8261
   608.84         10.8191
   608.98         10.8037
   609.12         10.7765
   609.26         10.7377
   609.40         10.6905
   609.54         10.6402
   609.68         10.5924
   609.82         10.5520
   609.96         10.5229
   610.10         10.5075
   610.24         10.5069
   610.38         10.5210
   610.52         10.5478
   610.66         10.5829
   610.80         10.6188
   610.94         10.6465
   611.08         10.6581
   611.22         10.6492
   611.36         10.6195
   611.50         10.5728
   611.64         10.5162
   611.78         10.4594
   611.92         10.4114
   612.06         10.3783
   612.20         10.3626
   612.34         10.3623
   612.48         10.3723
   612.62         10.3874
   612.76         10.4042
   612.90         10.4196
   613.04         10.4307
   613.18         10.4351
   613.32         10.4324
   613.46         10.4255
   613.60         10.4195
   613.74         10.4203
   613.88         10.4318
   614.02         10.4556
   614.16         10.4903
   614.30         10.5328
   614.44         10.5788
   614.58         10.6221
   614.72         10.6544
   614.86         10.6644
   615.00         10.6418
   615.14         10.5830
   615.28         10.4932
   615.42         10.3815
   615.56         10.2565
   615.70         10.1265
   615.84         10.0006
   615.98         9.8894
   616.12         9.8032
   616.26         9.7504
   616.40         9.7363
   616.54         9.7625
   616.68         9.8265
   616.82         9.9224
   616.96         10.0409
   617.10         10.1708
   617.24         10.3001
   617.38         10.4176
   617.52         10.5164
   617.66         10.5945
   617.80         10.6538
   617.94         10.6957
   618.08         10.7205
   618.22         10.7300
   618.36         10.7284
   618.50         10.7219
   618.64         10.7159
   618.78         10.7139
   618.92         10.7175
   619.06         10.7273
   619.20         10.7436
   619.34         10.7669
   619.48         10.7972
   619.62         10.8336
   619.76         10.8747
   619.90         10.9174
   620.04         10.9576
   620.18         10.9896
   620.32         11.0080
   620.46         11.0088
   620.60         10.9906
   620.74         10.9550
   620.88         10.9047
   621.02         10.8431
   621.16         10.7743
   621.30         10.7041
   621.44         10.6388
   621.58         10.5844
   621.72         10.5430
   621.86         10.5132
   622.00         10.4917
   622.14         10.4755
   622.28         10.4636
   622.42         10.4550
   622.56         10.4488
   622.70         10.4440
   622.84         10.4400
   622.98         10.4367
   623.12         10.4349
   623.26         10.4351
   623.40         10.4384
   623.54         10.4457
   623.68         10.4577
   623.82         10.4730
   623.96         10.4883
   624.10         10.4988
   624.24         10.5002
   624.38         10.4892
   624.52         10.4651
   624.66         10.4297
   624.80         10.3869
   624.94         10.3410
   625.08         10.2948
   625.22         10.2496
   625.36         10.2073
   625.50         10.1711
   625.64         10.1448
   625.78         10.1317
   625.92         10.1339
   626.06         10.1520
   626.20         10.1843
   626.34         10.2267
   626.48         10.2733
   626.62         10.3180
   626.76         10.3559
   626.90         10.3836
   627.04         10.3990
   627.18         10.4020
   627.32         10.3954
   627.46         10.3846
   627.60         10.3751
   627.74         10.3710
   627.88         10.3746
   628.02         10.3870
   628.16         10.4086
   628.30         10.4372
   628.44         10.4688
   628.58         10.4992
   628.72         10.5250
   628.86         10.5426
   629.00         10.5490
   629.14         10.5427
   629.28         10.5248
   629.42         10.4981
   629.56         10.4671
   629.70         10.4375
   629.84         10.4144
   629.98         10.4009
   630.12         10.3979
   630.26         10.4034
   630.40         10.4136
   630.54         10.4238
   630.68         10.4313
   630.82         10.4351
   630.96         10.4355
   631.10         10.4336
   631.24         10.4316
   631.38         10.4316
   631.52         10.4355
   631.66         10.4452
   631.80         10.4623
   631.94         10.4871
   632.08         10.5187
   632.22         10.5544
   632.36         10.5895
   632.50         10.6190
   632.64         10.6390
   632.78         10.6486
   632.92         10.6485
   633.06         10.6408
   633.20         10.6283
   633.34         10.6150
   633.48         10.6053
   633.62         10.6027
   633.76         10.6082
   633.90         10.6215
   634.04         10.6413
   634.18         10.6652
   634.32         10.6896
   634.46         10.7110
   634.60         10.7262
   634.74         10.7322
   634.88         10.7271
   635.02         10.7101
   635.16         10.6831
   635.30         10.6496
   635.44         10.6136
   635.58         10.5786
   635.72         10.5475
   635.86         10.5234
   636.00         10.5086
   636.14         10.5049
   636.28         10.5123
   636.42         10.5297
   636.56         10.5549
   636.70         10.5849
   636.84         10.6159
   636.98         10.6443
   637.12         10.6669
   637.26         10.6821
   637.40         10.6886
   637.54         10.6860
   637.68         10.6751
   637.82         10.6576
   637.96         10.6354
   638.10         10.6093
   638.24         10.5797
   638.38         10.5483
   638.52         10.5165
   638.66         10.4849
   638.80         10.4531
   638.94         10.4208
   639.08         10.3886
   639.22         10.3582
   639.36         10.3315
   639.50         10.3103
   639.64         10.2961
   639.78         10.2894
   639.92         10.2899
   640.06         10.2965
   640.20         10.3083
   640.34         10.3248
   640.48         10.3442
   640.62         10.3642
   640.76         10.3821
   640.90         10.3965
   641.04         10.4068
   641.18         10.4126
   641.32         10.4148
   641.46         10.4161
   641.60         10.4195
   641.74         10.4265
   641.88         10.4369
   642.02         10.4502
   642.16         10.4665
   642.30         10.4861
   642.44         10.5079
   642.58         10.5291
   642.72         10.5458
   642.86         10.5557
   643.00         10.5579
   643.14         10.5530
   643.28         10.5434
   643.42         10.5319
   643.56         10.5204
   643.70         10.5096
   643.84         10.4993
   643.98         10.4899
   644.12         10.4822
   644.26         10.4768
   644.40         10.4746
   644.54         10.4765
   644.68         10.4829
   644.82         10.4912
   644.96         10.4959
   645.10         10.4918
   645.24         10.4771
   645.38         10.4542
   645.52         10.4280
   645.66         10.4030
   645.80         10.3819
   645.94         10.3655
   646.08         10.3543
   646.22         10.3487
   646.36         10.3507
   646.50         10.3638
   646.64         10.3900
   646.78         10.4282
   646.92         10.4749
   647.06         10.5259
   647.20         10.5772
   647.34         10.6254
   647.48         10.6673
   647.62         10.7018
   647.76         10.7294
   647.90         10.7501
   648.04         10.7611
   648.18         10.7573
   648.32         10.7342
   648.46         10.6897
   648.60         10.6250
   648.74         10.5447
   648.88         10.4560
   649.02         10.3670
   649.16         10.2867
   649.30         10.2229
   649.44         10.1825
   649.58         10.1704
   649.72         10.1891
   649.86         10.2378
   650.00         10.3125
   650.14         10.4064
   650.28         10.5110
   650.42         10.6171
   650.56         10.7155
   650.70         10.7995
   650.84         10.8662
   650.98         10.9167
   651.12         10.9539
   651.26         10.9810
   651.40         11.0009
   651.54         11.0160
   651.68         11.0279
   651.82         11.0376
   651.96         11.0453
   652.10         11.0508
   652.24         11.0543
   652.38         11.0562
   652.52         11.0569
   652.66         11.0564
   652.80         11.0550
   652.94         11.0525
   653.08         11.0490
   653.22         11.0445
   653.36         11.0388
   653.50         11.0315
   653.64         11.0225
   653.78         11.0119
   653.92         11.0000
   654.06         10.9868
   654.20         10.9718
   654.34         10.9547
   654.48         10.9358
   654.62         10.9152
   654.76         10.8918
   654.90         10.8617
   655.04         10.8188
   655.18         10.7592
   655.32         10.6843
   655.46         10.5993
   655.60         10.5113
   655.74         10.4275
   655.88         10.3550
   656.02         10.2998
   656.16         10.2667
   656.30         10.2586
   656.44         10.2764
   656.58         10.3191
   656.72         10.3829
   656.86         10.4619
   657.00         10.5496
   657.14         10.6389
   657.28         10.7227
   657.42         10.7938
   657.56         10.8478
   657.70         10.8848
   657.84         10.9080
   657.98         10.9197
   658.12         10.9200
   658.26         10.9085
   658.40         10.8862
   658.54         10.8554
   658.68         10.8194
   658.82         10.7833
   658.96         10.7527
   659.10         10.7323
   659.24         10.7244
   659.38         10.7286
   659.52         10.7427
   659.66         10.7635
   659.80         10.7879
   659.94         10.8131
   660.08         10.8369
   660.22         10.8577
   660.36         10.8743
   660.50         10.8860
   660.64         10.8929
   660.78         10.8968
   660.92         10.9000
   661.06         10.9041
   661.20         10.9095
   661.34         10.9156
   661.48         10.9209
   661.62         10.9236
   661.76         10.9217
   661.90         10.9139
   662.04         10.8993
   662.18         10.8781
   662.32         10.8516
   662.46         10.8225
   662.60         10.7930
   662.74         10.7646
   662.88         10.7382
   663.02         10.7141
   663.16         10.6927
   663.30         10.6745
   663.44         10.6598
   663.58         10.6488
   663.72         10.6413
   663.86         10.6368
   664.00         10.6350
   664.14         10.6359
   664.28         10.6402
   664.42         10.6476
   664.56         10.6563
   664.70         10.6641
   664.84         10.6691
   664.98         10.6702
   665.12         10.6665
   665.26         10.6575
   665.40         10.6431
   665.54         10.6243
   665.68         10.6024
   665.82         10.5795
   665.96         10.5583
   666.10         10.5407
   666.24         10.5273
   666.38         10.5172
   666.52         10.5082
   666.66         10.4982
   666.80         10.4857
   666.94         10.4703
   667.08         10.4525
   667.22         10.4339
   667.36         10.4176
   667.50         10.4066
   667.64         10.4033
   667.78         10.4092
   667.92         10.4254
   668.06         10.4513
   668.20         10.4847
   668.34         10.5220
   668.48         10.5598
   668.62         10.5938
   668.76         10.6205
   668.90         10.6369
   669.04         10.6418
   669.18         10.6365
   669.32         10.6237
   669.46         10.6070
   669.60         10.5897
   669.74         10.5739
   669.88         10.5606
   670.02         10.5494
   670.16         10.5388
   670.30         10.5263
   670.44         10.5093
   670.58         10.4866
   670.72         10.4585
   670.86         10.4273
   671.00         10.3962
   671.14         10.3684
   671.28         10.3467
   671.42         10.3328
   671.56         10.3273
   671.70         10.3295
   671.84         10.3380
   671.98         10.3513
   672.12         10.3675
   672.26         10.3845
   672.40         10.3998
   672.54         10.4113
   672.68         10.4174
   672.82         10.4171
   672.96         10.4108
   673.10         10.4003
   673.24         10.3886
   673.38         10.3780
   673.52         10.3692
   673.66         10.3611
   673.80         10.3521
   673.94         10.3414
   674.08         10.3287
   674.22         10.3148
   674.36         10.3014
   674.50         10.2908
   674.64         10.2853
   674.78         10.2860
   674.92         10.2936
   675.06         10.3076
   675.20         10.3271
   675.34         10.3505
   675.48         10.3753
   675.62         10.3989
   675.76         10.4191
   675.90         10.4343
   676.04         10.4433
   676.18         10.4455
   676.32         10.4416
   676.46         10.4337
   676.60         10.4240
   676.74         10.4142
   676.88         10.4055
   677.02         10.3980
   677.16         10.3913
   677.30         10.3845
   677.44         10.3771
   677.58         10.3688
   677.72         10.3595
   677.86         10.3486
   678.00         10.3357
   678.14         10.3213
   678.28         10.3066
   678.42         10.2930
   678.56         10.2818
   678.70         10.2741
   678.84         10.2707
   678.98         10.2715
   679.12         10.2758
   679.26         10.2826
   679.40         10.2910
   679.54         10.3004
   679.68         10.3098
   679.82         10.3186
   679.96         10.3263
   680.10         10.3329
   680.24         10.3383
   680.38         10.3423
   680.52         10.3447
   680.66         10.3453
   680.80         10.3441
   680.94         10.3413
   681.08         10.3369
   681.22         10.3314
   681.36         10.3251
   681.50         10.3180
   681.64         10.3096
   681.78         10.2999
   681.92         10.2889
   682.06         10.2762
   682.20         10.2620
   682.34         10.2469
   682.48         10.2314
   682.62         10.2159
   682.76         10.1995
   682.90         10.1812
   683.04         10.1606
   683.18         10.1379
   683.32         10.1141
   683.46         10.0907
   683.60         10.0696
   683.74         10.0524
   683.88         10.0404
   684.02         10.0340
   684.16         10.0330
   684.30         10.0361
   684.44         10.0419
   684.58         10.0487
   684.72         10.0551
   684.86         10.0597
   685.00         10.0610
   685.14         10.0577
   685.28         10.0478
   685.42         10.0287
   685.56         9.9951
   685.70         9.9395
   685.84         9.8536
   685.98         9.7310
   686.12         9.5695
   686.26         9.3722
   686.40         9.1469
   686.54         8.9057
   686.68         8.6632
   686.82         8.4359
   686.96         8.2411
   687.10         8.0940
   687.24         8.0053
   687.38         7.9785
   687.52         8.0103
   687.66         8.0913
   687.80         8.2070
   687.94         8.3401
   688.08         8.4731
   688.22         8.5910
   688.36         8.6846
   688.50         8.7513
   688.64         8.7942
   688.78         8.8192
   688.92         8.8332
   689.06         8.8428
   689.20         8.8536
   689.34         8.8700
   689.48         8.8953
   689.62         8.9303
   689.76         8.9733
   689.90         9.0212
   690.04         9.0707
   690.18         9.1192
   690.32         9.1654
   690.46         9.2092
   690.60         9.2511
   690.74         9.2918
   690.88         9.3315
   691.02         9.3706
   691.16         9.4087
   691.30         9.4452
   691.44         9.4799
   691.58         9.5132
   691.72         9.5459
   691.86         9.5786
   692.00         9.6114
   692.14         9.6438
   692.28         9.6750
   692.42         9.7047
   692.56         9.7330
   692.70         9.7600
   692.84         9.7857
   692.98         9.8109
   693.12         9.8364
   693.26         9.8618
   693.40         9.8866
   693.54         9.9101
   693.68         9.9315
   693.82         9.9503
   693.96         9.9666
   694.10         9.9817
   694.24         9.9966
   694.38         10.0113
   694.52         10.0254
   694.66         10.0386
   694.80         10.0506
   694.94         10.0616
   695.08         10.0716
   695.22         10.0802
   695.36         10.0871
   695.50         10.0926
   695.64         10.0978
   695.78         10.1032
   695.92         10.1089
   696.06         10.1147
   696.20         10.1199
   696.34         10.1235
   696.48         10.1236
   696.62         10.1185
   696.76         10.1073
   696.90         10.0903
   697.04         10.0694
   697.18         10.0473
   697.32         10.0275
   697.46         10.0128
   697.60         10.0054
   697.74         10.0062
   697.88         10.0153
   698.02         10.0321
   698.16         10.0547
   698.30         10.0810
   698.44         10.1082
   698.58         10.1340
   698.72         10.1557
   698.86         10.1714
   699.00         10.1806
   699.14         10.1838
   699.28         10.1822
   699.42         10.1774
   699.56         10.1708
   699.70         10.1635
   699.84         10.1559
   699.98         10.1477
   700.12         10.1389
   700.26         10.1293
   700.40         10.1189
   700.54         10.1086
   700.68         10.0997
   700.82         10.0932
   700.96         10.0893
   701.10         10.0870
   701.24         10.0854
   701.38         10.0843
   701.52         10.0838
   701.66         10.0840
   701.80         10.0846
   701.94         10.0854
   702.08         10.0862
   702.22         10.0873
   702.36         10.0885
   702.50         10.0888
   702.64         10.0874
   702.78         10.0841
   702.92         10.0791
   703.06         10.0733
   703.20         10.0679
   703.34         10.0641
   703.48         10.0629
   703.62         10.0649
   703.76         10.0706
   703.90         10.0804
   704.04         10.0935
   704.18         10.1080
   704.32         10.1226
   704.46         10.1361
   704.60         10.1468
   704.74         10.1528
   704.88         10.1524
   705.02         10.1447
   705.16         10.1302
   705.30         10.1106
   705.44         10.0875
   705.58         10.0625
   705.72         10.0373
   705.86         10.0142
   706.00         9.9959
   706.14         9.9847
   706.28         9.9817
   706.42         9.9875
   706.56         10.0021
   706.70         10.0247
   706.84         10.0536
   706.98         10.0861
   707.12         10.1179
   707.26         10.1449
   707.40         10.1642
   707.54         10.1744
   707.68         10.1746
   707.82         10.1652
   707.96         10.1478
   708.10         10.1251
   708.24         10.1005
   708.38         10.0778
   708.52         10.0604
   708.66         10.0504
   708.80         10.0483
   708.94         10.0534
   709.08         10.0646
   709.22         10.0801
   709.36         10.0983
   709.50         10.1170
   709.64         10.1340
   709.78         10.1469
   709.92         10.1543
   710.06         10.1561
   710.20         10.1534
   710.34         10.1477
   710.48         10.1410
   710.62         10.1353
   710.76         10.1310
   710.90         10.1281
   711.04         10.1263
   711.18         10.1256
   711.32         10.1263
   711.46         10.1282
   711.60         10.1312
   711.74         10.1342
   711.88         10.1360
   712.02         10.1354
   712.16         10.1317
   712.30         10.1253
   712.44         10.1177
   712.58         10.1109
   712.72         10.1065
   712.86         10.1038
   713.00         10.1006
   713.14         10.0943
   713.28         10.0826
   713.42         10.0636
   713.56         10.0365
   713.70         10.0024
   713.84         9.9630
   713.98         9.9207
   714.12         9.8785
   714.26         9.8397
   714.40         9.8085
   714.54         9.7893
   714.68         9.7858
   714.82         9.7995
   714.96         9.8293
   715.10         9.8711
   715.24         9.9184
   715.38         9.9646
   715.52         10.0042
   715.66         10.0332
   715.80         10.0495
   715.94         10.0526
   716.08         10.0430
   716.22         10.0220
   716.36         9.9915
   716.50         9.9539
   716.64         9.9119
   716.78         9.8678
   716.92         9.8234
   717.06         9.7792
   717.20         9.7346
   717.34         9.6869
   717.48         9.6327
   717.62         9.5711
   717.76         9.5037
   717.90         9.4343
   718.04         9.3670
   718.18         9.3054
   718.32         9.2532
   718.46         9.2136
   718.60         9.1888
   718.74         9.1792
   718.88         9.1829
   719.02         9.1979
   719.16         9.2220
   719.30         9.2520
   719.44         9.2826
   719.58         9.3089
   719.72         9.3293
   719.86         9.3443
   720.00         9.3568
   720.14         9.3718
   720.28         9.3951
   720.42         9.4309
   720.56         9.4809
   720.70         9.5454
   720.84         9.6236
   720.98         9.7126
   721.12         9.8071
   721.26         9.9000
   721.40         9.9851
   721.54         10.0577
   721.68         10.1157
   721.82         10.1584
   721.96         10.1851
   722.10         10.1957
   722.24         10.1920
   722.38         10.1767
   722.52         10.1529
   722.66         10.1230
   722.80         10.0885
   722.94         10.0499
   723.08         10.0063
   723.22         9.9571
   723.36         9.9027
   723.50         9.8458
   723.64         9.7897
   723.78         9.7378
   723.92         9.6925
   724.06         9.6550
   724.20         9.6252
   724.34         9.6029
   724.48         9.5884
   724.62         9.5809
   724.76         9.5797
   724.90         9.5852
   725.04         9.5981
   725.18         9.6179
   725.32         9.6421
   725.46         9.6670
   725.60         9.6905
   725.74         9.7119
   725.88         9.7324
   726.02         9.7533
   726.16         9.7736
   726.30         9.7904
   726.44         9.8003
   726.58         9.8011
   726.72         9.7927
   726.86         9.7774
   727.00         9.7588
   727.14         9.7401
   727.28         9.7239
   727.42         9.7125
   727.56         9.7064
   727.70         9.7040
   727.84         9.7029
   727.98         9.7006
   728.12         9.6951
   728.26         9.6855
   728.40         9.6712
   728.54         9.6528
   728.68         9.6311
   728.82         9.6069
   728.96         9.5809
   729.10         9.5535
   729.24         9.5261
   729.38         9.5009
   729.52         9.4810
   729.66         9.4682
   729.80         9.4633
   729.94         9.4657
   730.08         9.4742
   730.22         9.4871
   730.36         9.5030
   730.50         9.5213
   730.64         9.5415
   730.78         9.5624
   730.92         9.5832
   731.06         9.6034
   731.20         9.6216
   731.34         9.6348
   731.48         9.6400
   731.62         9.6367
   731.76         9.6266
   731.90         9.6131
   732.04         9.5994
   732.18         9.5880
   732.32         9.5802
   732.46         9.5771
   732.60         9.5792
   732.74         9.5860
   732.88         9.5954
   733.02         9.6056
   733.16         9.6147
   733.30         9.6206
   733.44         9.6222
   733.58         9.6199
   733.72         9.6144
   733.86         9.6061
   734.00         9.5954
   734.14         9.5837
   734.28         9.5722
   734.42         9.5615
   734.56         9.5514
   734.70         9.5415
   734.84         9.5317
   734.98         9.5216
   735.12         9.5107
   735.26         9.4991
   735.40         9.4869
   735.54         9.4747
   735.68         9.4636
   735.82         9.4548
   735.96         9.4502
   736.10         9.4519
   736.24         9.4610
   736.38         9.4767
   736.52         9.4969
   736.66         9.5195
   736.80         9.5423
   736.94         9.5629
   737.08         9.5791
   737.22         9.5888
   737.36         9.5898
   737.50         9.5801
   737.64         9.5576
   737.78         9.5227
   737.92         9.4776
   738.06         9.4257
   738.20         9.3711
   738.34         9.3190
   738.48         9.2748
   738.62         9.2418
   738.76         9.2208
   738.90         9.2107
   739.04         9.2096
   739.18         9.2159
   739.32         9.2270
   739.46         9.2397
   739.60         9.2508
   739.74         9.2581
   739.88         9.2597
   740.02         9.2551
   740.16         9.2445
   740.30         9.2293
   740.44         9.2125
   740.58         9.1974
   740.72         9.1862
   740.86         9.1801
   741.00         9.1787
   741.14         9.1805
   741.28         9.1834
   741.42         9.1863
   741.56         9.1893
   741.70         9.1936
   741.84         9.1994
   741.98         9.2058
   742.12         9.2120
   742.26         9.2171
   742.40         9.2205
   742.54         9.2226
   742.68         9.2238
   742.82         9.2244
   742.96         9.2244
   743.10         9.2238
   743.24         9.2226
   743.38         9.2205
   743.52         9.2171
   743.66         9.2120
   743.80         9.2058
   743.94         9.1994
   744.08         9.1936
   744.22         9.1893
