# File HD56183
# Wavelength [nm]    Normalized Amplitude
   349.70         41.5111
   349.84         41.5869
   349.98         41.6594
   350.12         41.7230
   350.26         41.7724
   350.40         41.8024
   350.54         41.8123
   350.68         41.8084
   350.82         41.7986
   350.96         41.7904
   351.10         41.7874
   351.24         41.7904
   351.38         41.7986
   351.52         41.8084
   351.66         41.8123
   351.80         41.8024
   351.94         41.7724
   352.08         41.7230
   352.22         41.6594
   352.36         41.5869
   352.50         41.5111
   352.64         41.4381
   352.78         41.3725
   352.92         41.3158
   353.06         41.2685
   353.20         41.2355
   353.34         41.2224
   353.48         41.2292
   353.62         41.2483
   353.76         41.2688
   353.90         41.2808
   354.04         41.2754
   354.18         41.2430
   354.32         41.1794
   354.46         41.0881
   354.60         40.9744
   354.74         40.8448
   354.88         40.7052
   355.02         40.5594
   355.16         40.4091
   355.30         40.2563
   355.44         40.1067
   355.58         39.9717
   355.72         39.8657
   355.86         39.7999
   356.00         39.7778
   356.14         39.7951
   356.28         39.8435
   356.42         39.9150
   356.56         40.0018
   356.70         40.0938
   356.84         40.1796
   356.98         40.2500
   357.12         40.2964
   357.26         40.3093
   357.40         40.2799
   357.54         40.2026
   357.68         40.0765
   357.82         39.9078
   357.96         39.7142
   358.10         39.5205
   358.24         39.3475
   358.38         39.2067
   358.52         39.1035
   358.66         39.0409
   358.80         39.0184
   358.94         39.0329
   359.08         39.0801
   359.22         39.1560
   359.36         39.2527
   359.50         39.3580
   359.64         39.4589
   359.78         39.5452
   359.92         39.6074
   360.06         39.6360
   360.20         39.6276
   360.34         39.5863
   360.48         39.5232
   360.62         39.4524
   360.76         39.3838
   360.90         39.3214
   361.04         39.2656
   361.18         39.2186
   361.32         39.1849
   361.46         39.1674
   361.60         39.1668
   361.74         39.1823
   361.88         39.2092
   362.02         39.2383
   362.16         39.2591
   362.30         39.2635
   362.44         39.2454
   362.58         39.2002
   362.72         39.1300
   362.86         39.0456
   363.00         38.9608
   363.14         38.8885
   363.28         38.8363
   363.42         38.8035
   363.56         38.7843
   363.70         38.7709
   363.84         38.7583
   363.98         38.7434
   364.12         38.7222
   364.26         38.6912
   364.40         38.6503
   364.54         38.6021
   364.68         38.5475
   364.82         38.4859
   364.96         38.4185
   365.10         38.3496
   365.24         38.2834
   365.38         38.2242
   365.52         38.1738
   365.66         38.1284
   365.80         38.0793
   365.94         38.0170
   366.08         37.9339
   366.22         37.8290
   366.36         37.7088
   366.50         37.5869
   366.64         37.4798
   366.78         37.3986
   366.92         37.3462
   367.06         37.3207
   367.20         37.3162
   367.34         37.3228
   367.48         37.3299
   367.62         37.3309
   367.76         37.3238
   367.90         37.3095
   368.04         37.2897
   368.18         37.2662
   368.32         37.2394
   368.46         37.2085
   368.60         37.1742
   368.74         37.1390
   368.88         37.1059
   369.02         37.0767
   369.16         37.0501
   369.30         37.0200
   369.44         36.9791
   369.58         36.9256
   369.72         36.8629
   369.86         36.7949
   370.00         36.7240
   370.14         36.6547
   370.28         36.5979
   370.42         36.5668
   370.56         36.5700
   370.70         36.6073
   370.84         36.6703
   370.98         36.7428
   371.12         36.8053
   371.26         36.8439
   371.40         36.8554
   371.54         36.8486
   371.68         36.8384
   371.82         36.8364
   371.96         36.8478
   372.10         36.8691
   372.24         36.8864
   372.38         36.8813
   372.52         36.8441
   372.66         36.7834
   372.80         36.7248
   372.94         36.7025
   373.08         36.7454
   373.22         36.8688
   373.36         37.0711
   373.50         37.3351
   373.64         37.6279
   373.78         37.9066
   373.92         38.1272
   374.06         38.2514
   374.20         38.2549
   374.34         38.1326
   374.48         37.9040
   374.62         37.6130
   374.76         37.3227
   374.90         37.1083
   375.04         37.0481
   375.18         37.2056
   375.32         37.6098
   375.46         38.2416
   375.60         39.0294
   375.74         39.8591
   375.88         40.5962
   376.02         41.1136
   376.16         41.3213
   376.30         41.1875
   376.44         40.7482
   376.58         40.1004
   376.72         39.3797
   376.86         38.7324
   377.00         38.2953
   377.14         38.1786
   377.28         38.4511
   377.42         39.1305
   377.56         40.1799
   377.70         41.5141
   377.84         43.0131
   377.98         44.5363
   378.12         45.9337
   378.26         47.0604
   378.40         47.7941
   378.54         48.0521
   378.68         47.8065
   378.82         47.0868
   378.96         45.9709
   379.10         44.5751
   379.24         43.0449
   379.38         41.5405
   379.52         40.2202
   379.66         39.2259
   379.80         38.6654
   379.94         38.5989
   380.08         39.0376
   380.22         39.9481
   380.36         41.2551
   380.50         42.8445
   380.64         44.5679
   380.78         46.2600
   380.92         47.7673
   381.06         48.9766
   381.20         49.8319
   381.34         50.3304
   381.48         50.5045
   381.62         50.4053
   381.76         50.0914
   381.90         49.6133
   382.04         48.9985
   382.18         48.2497
   382.32         47.3571
   382.46         46.3116
   382.60         45.1182
   382.74         43.8050
   382.88         42.4223
   383.02         41.0401
   383.16         39.7457
   383.30         38.6396
   383.44         37.8267
   383.58         37.4014
   383.72         37.4291
   383.86         37.9308
   384.00         38.8768
   384.14         40.1945
   384.28         41.7815
   384.42         43.5194
   384.56         45.2895
   384.70         46.9839
   384.84         48.5158
   384.98         49.8304
   385.12         50.9057
   385.26         51.7470
   385.40         52.3780
   385.54         52.8289
   385.68         53.1282
   385.82         53.2995
   385.96         53.3603
   386.10         53.3229
   386.24         53.1990
   386.38         52.9994
   386.52         52.7331
   386.66         52.4070
   386.80         52.0255
   386.94         51.5896
   387.08         51.0943
   387.22         50.5235
   387.36         49.8467
   387.50         49.0241
   387.64         48.0186
   387.78         46.8058
   387.92         45.3849
   388.06         43.7889
   388.20         42.0853
   388.34         40.3695
   388.48         38.7549
   388.62         37.3615
   388.76         36.3042
   388.90         35.6766
   389.04         35.5363
   389.18         35.9002
   389.32         36.7443
   389.46         38.0038
   389.60         39.5803
   389.74         41.3554
   389.88         43.2059
   390.02         45.0175
   390.16         46.6988
   390.30         48.1897
   390.44         49.4607
   390.58         50.5078
   390.72         51.3450
   390.86         51.9944
   391.00         52.4776
   391.14         52.8147
   391.28         53.0227
   391.42         53.1139
   391.56         53.0986
   391.70         52.9903
   391.84         52.8079
   391.98         52.5731
   392.12         52.3059
   392.26         52.0274
   392.40         51.7616
   392.54         51.5303
   392.68         51.3508
   392.82         51.2322
   392.96         51.1741
   393.10         51.1677
   393.24         51.2013
   393.38         51.2624
   393.52         51.3350
   393.66         51.4013
   393.80         51.4468
   393.94         51.4619
   394.08         51.4425
   394.22         51.3882
   394.36         51.2989
   394.50         51.1709
   394.64         50.9970
   394.78         50.7665
   394.92         50.4683
   395.06         50.0894
   395.20         49.6108
   395.34         49.0047
   395.48         48.2367
   395.62         47.2742
   395.76         46.0946
   395.90         44.6938
   396.04         43.0965
   396.18         41.3622
   396.32         39.5820
   396.46         37.8675
   396.60         36.3353
   396.74         35.0928
   396.88         34.2274
   397.02         33.7995
   397.16         33.8361
   397.30         34.3277
   397.44         35.2298
   397.58         36.4676
   397.72         37.9429
   397.86         39.5438
   398.00         41.1577
   398.14         42.6866
   398.28         44.0564
   398.42         45.2231
   398.56         46.1747
   398.70         46.9247
   398.84         47.5002
   398.98         47.9305
   399.12         48.2404
   399.26         48.4484
   399.40         48.5664
   399.54         48.6022
   399.68         48.5606
   399.82         48.4463
   399.96         48.2674
   400.10         48.0380
   400.24         47.7773
   400.38         47.5071
   400.52         47.2504
   400.66         47.0281
   400.80         46.8539
   400.94         46.7304
   401.08         46.6478
   401.22         46.5814
   401.36         46.4942
   401.50         46.3492
   401.64         46.1204
   401.78         45.8002
   401.92         45.4035
   402.06         44.9636
   402.20         44.5221
   402.34         44.1226
   402.48         43.8093
   402.62         43.6240
   402.76         43.5969
   402.90         43.7386
   403.04         44.0372
   403.18         44.4635
   403.32         44.9753
   403.46         45.5219
   403.60         46.0509
   403.74         46.5168
   403.88         46.8882
   404.02         47.1533
   404.16         47.3209
   404.30         47.4115
   404.44         47.4448
   404.58         47.4369
   404.72         47.3986
   404.86         47.3373
   405.00         47.2621
   405.14         47.1841
   405.28         47.1117
   405.42         47.0468
   405.56         46.9879
   405.70         46.9319
   405.84         46.8751
   405.98         46.8133
   406.12         46.7440
   406.26         46.6688
   406.40         46.5909
   406.54         46.5110
   406.68         46.4282
   406.82         46.3420
   406.96         46.2528
   407.10         46.1621
   407.24         46.0720
   407.38         45.9820
   407.52         45.8862
   407.66         45.7747
   407.80         45.6339
   407.94         45.4464
   408.08         45.1940
   408.22         44.8597
   408.36         44.4260
   408.50         43.8747
   408.64         43.1862
   408.78         42.3405
   408.92         41.3187
   409.06         40.1105
   409.20         38.7304
   409.34         37.2250
   409.48         35.6700
   409.62         34.1599
   409.76         32.7962
   409.90         31.6765
   410.04         30.8828
   410.18         30.4721
   410.32         30.4697
   410.46         30.8667
   410.60         31.6213
   410.74         32.6637
   410.88         33.9016
   411.02         35.2306
   411.16         36.5485
   411.30         37.7692
   411.44         38.8316
   411.58         39.7045
   411.72         40.3875
   411.86         40.9053
   412.00         41.2949
   412.14         41.5958
   412.28         41.8428
   412.42         42.0595
   412.56         42.2570
   412.70         42.4375
   412.84         42.5959
   412.98         42.7206
   413.12         42.7943
   413.26         42.8001
   413.40         42.7296
   413.54         42.5875
   413.68         42.3902
   413.82         42.1616
   413.96         41.9283
   414.10         41.7150
   414.24         41.5439
   414.38         41.4341
   414.52         41.3977
   414.66         41.4385
   414.80         41.5513
   414.94         41.7215
   415.08         41.9282
   415.22         42.1488
   415.36         42.3624
   415.50         42.5491
   415.64         42.6932
   415.78         42.7876
   415.92         42.8364
   416.06         42.8514
   416.20         42.8443
   416.34         42.8230
   416.48         42.7930
   416.62         42.7578
   416.76         42.7185
   416.90         42.6748
   417.04         42.6246
   417.18         42.5650
   417.32         42.4949
   417.46         42.4135
   417.60         42.3197
   417.74         42.2140
   417.88         42.0986
   418.02         41.9783
   418.16         41.8596
   418.30         41.7513
   418.44         41.6616
   418.58         41.5960
   418.72         41.5565
   418.86         41.5408
   419.00         41.5426
   419.14         41.5539
   419.28         41.5671
   419.42         41.5759
   419.56         41.5753
   419.70         41.5616
   419.84         41.5328
   419.98         41.4896
   420.12         41.4347
   420.26         41.3733
   420.40         41.3114
   420.54         41.2543
   420.68         41.2048
   420.82         41.1643
   420.96         41.1329
   421.10         41.1083
   421.24         41.0849
   421.38         41.0565
   421.52         41.0182
   421.66         40.9669
   421.80         40.9032
   421.94         40.8303
   422.08         40.7524
   422.22         40.6724
   422.36         40.5925
   422.50         40.5161
   422.64         40.4469
   422.78         40.3871
   422.92         40.3365
   423.06         40.2936
   423.20         40.2572
   423.34         40.2265
   423.48         40.1998
   423.62         40.1742
   423.76         40.1473
   423.90         40.1171
   424.04         40.0812
   424.18         40.0384
   424.32         39.9890
   424.46         39.9347
   424.60         39.8768
   424.74         39.8148
   424.88         39.7461
   425.02         39.6677
   425.16         39.5779
   425.30         39.4756
   425.44         39.3604
   425.58         39.2328
   425.72         39.0942
   425.86         38.9488
   426.00         38.8020
   426.14         38.6605
   426.28         38.5325
   426.42         38.4264
   426.56         38.3459
   426.70         38.2924
   426.84         38.2671
   426.98         38.2694
   427.12         38.2941
   427.26         38.3324
   427.40         38.3737
   427.54         38.4094
   427.68         38.4348
   427.82         38.4494
   427.96         38.4543
   428.10         38.4490
   428.24         38.4326
   428.38         38.4065
   428.52         38.3730
   428.66         38.3331
   428.80         38.2879
   428.94         38.2384
   429.08         38.1854
   429.22         38.1291
   429.36         38.0705
   429.50         38.0114
   429.64         37.9524
   429.78         37.8935
   429.92         37.8360
   430.06         37.7822
   430.20         37.7342
   430.34         37.6901
   430.48         37.6439
   430.62         37.5876
   430.76         37.5142
   430.90         37.4213
   431.04         37.3094
   431.18         37.1785
   431.32         37.0293
   431.46         36.8637
   431.60         36.6818
   431.74         36.4807
   431.88         36.2541
   432.02         35.9938
   432.16         35.6909
   432.30         35.3335
   432.44         34.9075
   432.58         34.3957
   432.72         33.7786
   432.86         33.0389
   433.00         32.1688
   433.14         31.1777
   433.28         30.0968
   433.42         28.9772
   433.56         27.8838
   433.70         26.8870
   433.84         26.0556
   433.98         25.4501
   434.12         25.1154
   434.26         25.0757
   434.40         25.3316
   434.54         25.8621
   434.68         26.6265
   434.82         27.5667
   434.96         28.6130
   435.10         29.6928
   435.24         30.7410
   435.38         31.7058
   435.52         32.5541
   435.66         33.2731
   435.80         33.8672
   435.94         34.3504
   436.08         34.7393
   436.22         35.0485
   436.36         35.2906
   436.50         35.4775
   436.64         35.6193
   436.78         35.7235
   436.92         35.7940
   437.06         35.8323
   437.20         35.8365
   437.34         35.8006
   437.48         35.7160
   437.62         35.5743
   437.76         35.3715
   437.90         35.1121
   438.04         34.8101
   438.18         34.4863
   438.32         34.1661
   438.46         33.8758
   438.60         33.6398
   438.74         33.4781
   438.88         33.4035
   439.02         33.4205
   439.16         33.5235
   439.30         33.6969
   439.44         33.9180
   439.58         34.1619
   439.72         34.4043
   439.86         34.6219
   440.00         34.7951
   440.14         34.9136
   440.28         34.9770
   440.42         34.9944
   440.56         34.9796
   440.70         34.9466
   440.84         34.9065
   440.98         34.8678
   441.12         34.8363
   441.26         34.8140
   441.40         34.7974
   441.54         34.7790
   441.68         34.7516
   441.82         34.7104
   441.96         34.6526
   442.10         34.5761
   442.24         34.4805
   442.38         34.3650
   442.52         34.2284
   442.66         34.0722
   442.80         33.9025
   442.94         33.7287
   443.08         33.5626
   443.22         33.4148
   443.36         33.2946
   443.50         33.2090
   443.64         33.1604
   443.78         33.1481
   443.92         33.1694
   444.06         33.2188
   444.20         33.2881
   444.34         33.3695
   444.48         33.4542
   444.62         33.5338
   444.76         33.6018
   444.90         33.6545
   445.04         33.6886
   445.18         33.7022
   445.32         33.6957
   445.46         33.6678
   445.60         33.6134
   445.74         33.5204
   445.88         33.3707
   446.02         33.1467
   446.16         32.8413
   446.30         32.4624
   446.44         32.0324
   446.58         31.5829
   446.72         31.1476
   446.86         30.7588
   447.00         30.4455
   447.14         30.2298
   447.28         30.1247
   447.42         30.1337
   447.56         30.2493
   447.70         30.4531
   447.84         30.7202
   447.98         31.0218
   448.12         31.3286
   448.26         31.6155
   448.40         31.8634
   448.54         32.0621
   448.68         32.2127
   448.82         32.3253
   448.96         32.4108
   449.10         32.4754
   449.24         32.5216
   449.38         32.5506
   449.52         32.5632
   449.66         32.5604
   449.80         32.5443
   449.94         32.5181
   450.08         32.4857
   450.22         32.4502
   450.36         32.4144
   450.50         32.3811
   450.64         32.3521
   450.78         32.3270
   450.92         32.3038
   451.06         32.2779
   451.20         32.2446
   451.34         32.2031
   451.48         32.1543
   451.62         32.1000
   451.76         32.0435
   451.90         31.9873
   452.04         31.9312
   452.18         31.8749
   452.32         31.8197
   452.46         31.7694
   452.60         31.7294
   452.74         31.7037
   452.88         31.6921
   453.02         31.6908
   453.16         31.6926
   453.30         31.6881
   453.44         31.6696
   453.58         31.6324
   453.72         31.5751
   453.86         31.4993
   454.00         31.4093
   454.14         31.3101
   454.28         31.2088
   454.42         31.1143
   454.56         31.0352
   454.70         30.9794
   454.84         30.9533
   454.98         30.9589
   455.12         30.9923
   455.26         31.0458
   455.40         31.1074
   455.54         31.1641
   455.68         31.2057
   455.82         31.2260
   455.96         31.2228
   456.10         31.1966
   456.24         31.1492
   456.38         31.0848
   456.52         31.0101
   456.66         30.9326
   456.80         30.8600
   456.94         30.8001
   457.08         30.7597
   457.22         30.7409
   457.36         30.7410
   457.50         30.7550
   457.64         30.7742
   457.78         30.7884
   457.92         30.7913
   458.06         30.7792
   458.20         30.7511
   458.34         30.7082
   458.48         30.6536
   458.62         30.5918
   458.76         30.5297
   458.90         30.4751
   459.04         30.4340
   459.18         30.4090
   459.32         30.3996
   459.46         30.4039
   459.60         30.4173
   459.74         30.4323
   459.88         30.4392
   460.02         30.4313
   460.16         30.4054
   460.30         30.3604
   460.44         30.2983
   460.58         30.2234
   460.72         30.1408
   460.86         30.0546
   461.00         29.9682
   461.14         29.8859
   461.28         29.8128
   461.42         29.7532
   461.56         29.7072
   461.70         29.6719
   461.84         29.6452
   461.98         29.6247
   462.12         29.6070
   462.26         29.5890
   462.40         29.5683
   462.54         29.5423
   462.68         29.5084
   462.82         29.4643
   462.96         29.4075
   463.10         29.3377
   463.24         29.2595
   463.38         29.1807
   463.52         29.1090
   463.66         29.0515
   463.80         29.0133
   463.94         28.9969
   464.08         29.0004
   464.22         29.0197
   464.36         29.0505
   464.50         29.0870
   464.64         29.1217
   464.78         29.1481
   464.92         29.1615
   465.06         29.1592
   465.20         29.1415
   465.34         29.1109
   465.48         29.0704
   465.62         29.0239
   465.76         28.9752
   465.90         28.9264
   466.04         28.8768
   466.18         28.8242
   466.32         28.7678
   466.46         28.7084
   466.60         28.6489
   466.74         28.5933
   466.88         28.5434
   467.02         28.4973
   467.16         28.4523
   467.30         28.4094
   467.44         28.3726
   467.58         28.3449
   467.72         28.3286
   467.86         28.3232
   468.00         28.3244
   468.14         28.3282
   468.28         28.3302
   468.42         28.3250
   468.56         28.3101
   468.70         28.2865
   468.84         28.2558
   468.98         28.2189
   469.12         28.1746
   469.26         28.1219
   469.40         28.0608
   469.54         27.9937
   469.68         27.9256
   469.82         27.8624
   469.96         27.8058
   470.10         27.7537
   470.24         27.7017
   470.38         27.6456
   470.52         27.5824
   470.66         27.5113
   470.80         27.4349
   470.94         27.3568
   471.08         27.2812
   471.22         27.2128
   471.36         27.1541
   471.50         27.1058
   471.64         27.0674
   471.78         27.0376
   471.92         27.0142
   472.06         26.9938
   472.20         26.9728
   472.34         26.9450
   472.48         26.9029
   472.62         26.8432
   472.76         26.7695
   472.90         26.6907
   473.04         26.6164
   473.18         26.5540
   473.32         26.5102
   473.46         26.4888
   473.60         26.4907
   473.74         26.5143
   473.88         26.5561
   474.02         26.6127
   474.16         26.6805
   474.30         26.7543
   474.44         26.8272
   474.58         26.8937
   474.72         26.9512
   474.86         26.9982
   475.00         27.0328
   475.14         27.0522
   475.28         27.0550
   475.42         27.0412
   475.56         27.0104
   475.70         26.9634
   475.84         26.9026
   475.98         26.8314
   476.12         26.7525
   476.26         26.6692
   476.40         26.5864
   476.54         26.5103
   476.68         26.4467
   476.82         26.3996
   476.96         26.3714
   477.10         26.3628
   477.24         26.3724
   477.38         26.3957
   477.52         26.4248
   477.66         26.4503
   477.80         26.4640
   477.94         26.4627
   478.08         26.4471
   478.22         26.4177
   478.36         26.3734
   478.50         26.3132
   478.64         26.2396
   478.78         26.1590
   478.92         26.0800
   479.06         26.0106
   479.20         25.9559
   479.34         25.9174
   479.48         25.8938
   479.62         25.8810
   479.76         25.8732
   479.90         25.8636
   480.04         25.8469
   480.18         25.8203
   480.32         25.7828
   480.46         25.7359
   480.60         25.6822
   480.74         25.6242
   480.88         25.5633
   481.02         25.5019
   481.16         25.4447
   481.30         25.3958
   481.44         25.3568
   481.58         25.3258
   481.72         25.2986
   481.86         25.2717
   482.00         25.2446
   482.14         25.2188
   482.28         25.1958
   482.42         25.1771
   482.56         25.1636
   482.70         25.1561
   482.84         25.1535
   482.98         25.1525
   483.12         25.1482
   483.26         25.1344
   483.40         25.1030
   483.54         25.0458
   483.68         24.9561
   483.82         24.8286
   483.96         24.6606
   484.10         24.4515
   484.24         24.1987
   484.38         23.8989
   484.52         23.5500
   484.66         23.1486
   484.80         22.6877
   484.94         22.1602
   485.08         21.5667
   485.22         20.9190
   485.36         20.2409
   485.50         19.5663
   485.64         18.9350
   485.78         18.3891
   485.92         17.9677
   486.06         17.7018
   486.20         17.6114
   486.34         17.7037
   486.48         17.9729
   486.62         18.3987
   486.76         18.9472
   486.90         19.5758
   487.04         20.2428
   487.18         20.9088
   487.32         21.5385
   487.46         22.1042
   487.60         22.5899
   487.74         22.9918
   487.88         23.3153
   488.02         23.5711
   488.16         23.7708
   488.30         23.9240
   488.44         24.0382
   488.58         24.1189
   488.72         24.1707
   488.86         24.1992
   489.00         24.2118
   489.14         24.2146
   489.28         24.2119
   489.42         24.2104
   489.56         24.2187
   489.70         24.2416
   489.84         24.2780
   489.98         24.3238
   490.12         24.3738
   490.26         24.4225
   490.40         24.4663
   490.54         24.5026
   490.68         24.5266
   490.82         24.5300
   490.96         24.5006
   491.10         24.4258
   491.24         24.2998
   491.38         24.1273
   491.52         23.9214
   491.66         23.6995
   491.80         23.4799
   491.94         23.2821
   492.08         23.1242
   492.22         23.0193
   492.36         22.9746
   492.50         22.9917
   492.64         23.0666
   492.78         23.1890
   492.92         23.3449
   493.06         23.5182
   493.20         23.6907
   493.34         23.8436
   493.48         23.9621
   493.62         24.0379
   493.76         24.0716
   493.90         24.0725
   494.04         24.0539
   494.18         24.0268
   494.32         23.9986
   494.46         23.9745
   494.60         23.9564
   494.74         23.9439
   494.88         23.9352
   495.02         23.9255
   495.16         23.9088
   495.30         23.8822
   495.44         23.8461
   495.58         23.8025
   495.72         23.7534
   495.86         23.7014
   496.00         23.6498
   496.14         23.6006
   496.28         23.5544
   496.42         23.5115
   496.56         23.4732
   496.70         23.4399
   496.84         23.4106
   496.98         23.3835
   497.12         23.3564
   497.26         23.3275
   497.40         23.2967
   497.54         23.2650
   497.68         23.2335
   497.82         23.2049
   497.96         23.1833
   498.10         23.1707
   498.24         23.1670
   498.38         23.1708
   498.52         23.1807
   498.66         23.1952
   498.80         23.2129
   498.94         23.2348
   499.08         23.2641
   499.22         23.3017
   499.36         23.3429
   499.50         23.3789
   499.64         23.4010
   499.78         23.4022
   499.92         23.3790
   500.06         23.3297
   500.20         23.2547
   500.34         23.1550
   500.48         23.0318
   500.62         22.8870
   500.76         22.7238
   500.90         22.5491
   501.04         22.3738
   501.18         22.2099
   501.32         22.0676
   501.46         21.9547
   501.60         21.8763
   501.74         21.8332
   501.88         21.8207
   502.02         21.8310
   502.16         21.8583
   502.30         21.8988
   502.44         21.9487
   502.58         22.0028
   502.72         22.0551
   502.86         22.1002
   503.00         22.1326
   503.14         22.1491
   503.28         22.1509
   503.42         22.1409
   503.56         22.1224
   503.70         22.0975
   503.84         22.0663
   503.98         22.0298
   504.12         21.9909
   504.26         21.9513
   504.40         21.9102
   504.54         21.8655
   504.68         21.8169
   504.82         21.7673
   504.96         21.7211
   505.10         21.6821
   505.24         21.6516
   505.38         21.6300
   505.52         21.6166
   505.66         21.6099
   505.80         21.6094
   505.94         21.6138
   506.08         21.6203
   506.22         21.6263
   506.36         21.6297
   506.50         21.6290
   506.64         21.6243
   506.78         21.6164
   506.92         21.6053
   507.06         21.5916
   507.20         21.5767
   507.34         21.5632
   507.48         21.5524
   507.62         21.5429
   507.76         21.5326
   507.90         21.5195
   508.04         21.5029
   508.18         21.4821
   508.32         21.4574
   508.46         21.4293
   508.60         21.3984
   508.74         21.3665
   508.88         21.3362
   509.02         21.3102
   509.16         21.2894
   509.30         21.2734
   509.44         21.2610
   509.58         21.2501
   509.72         21.2387
   509.86         21.2252
   510.00         21.2083
   510.14         21.1871
   510.28         21.1626
   510.42         21.1370
   510.56         21.1116
   510.70         21.0876
   510.84         21.0654
   510.98         21.0446
   511.12         21.0253
   511.26         21.0086
   511.40         20.9960
   511.54         20.9871
   511.68         20.9796
   511.82         20.9711
   511.96         20.9605
   512.10         20.9489
   512.24         20.9373
   512.38         20.9256
   512.52         20.9138
   512.66         20.9030
   512.80         20.8937
   512.94         20.8855
   513.08         20.8783
   513.22         20.8710
   513.36         20.8617
   513.50         20.8493
   513.64         20.8336
   513.78         20.8161
   513.92         20.7993
   514.06         20.7845
   514.20         20.7699
   514.34         20.7535
   514.48         20.7353
   514.62         20.7174
   514.76         20.6998
   514.90         20.6802
   515.04         20.6558
   515.18         20.6256
   515.32         20.5889
   515.46         20.5445
   515.60         20.4935
   515.74         20.4378
   515.88         20.3786
   516.02         20.3182
   516.16         20.2604
   516.30         20.2091
   516.44         20.1678
   516.58         20.1384
   516.72         20.1204
   516.86         20.1117
   517.00         20.1108
   517.14         20.1169
   517.28         20.1282
   517.42         20.1420
   517.56         20.1554
   517.70         20.1673
   517.84         20.1769
   517.98         20.1834
   518.12         20.1864
   518.26         20.1859
   518.40         20.1818
   518.54         20.1743
   518.68         20.1639
   518.82         20.1503
   518.96         20.1337
   519.10         20.1139
   519.24         20.0895
   519.38         20.0586
   519.52         20.0202
   519.66         19.9743
   519.80         19.9231
   519.94         19.8693
   520.08         19.8162
   520.22         19.7682
   520.36         19.7281
   520.50         19.6975
   520.64         19.6772
   520.78         19.6657
   520.92         19.6588
   521.06         19.6526
   521.20         19.6440
   521.34         19.6303
   521.48         19.6103
   521.62         19.5839
   521.76         19.5522
   521.90         19.5168
   522.04         19.4803
   522.18         19.4461
   522.32         19.4164
   522.46         19.3926
   522.60         19.3759
   522.74         19.3661
   522.88         19.3601
   523.02         19.3548
   523.16         19.3493
   523.30         19.3436
   523.44         19.3364
   523.58         19.3266
   523.72         19.3136
   523.86         19.2966
   524.00         19.2750
   524.14         19.2487
   524.28         19.2180
   524.42         19.1838
   524.56         19.1468
   524.70         19.1087
   524.84         19.0709
   524.98         19.0347
   525.12         19.0016
   525.26         18.9729
   525.40         18.9474
   525.54         18.9229
   525.68         18.8987
   525.82         18.8749
   525.96         18.8508
   526.10         18.8247
   526.24         18.7956
   526.38         18.7641
   526.52         18.7315
   526.66         18.7001
   526.80         18.6713
   526.94         18.6457
   527.08         18.6234
   527.22         18.6048
   527.36         18.5902
   527.50         18.5788
   527.64         18.5688
   527.78         18.5585
   527.92         18.5464
   528.06         18.5313
   528.20         18.5138
   528.34         18.4968
   528.48         18.4827
   528.62         18.4723
   528.76         18.4652
   528.90         18.4611
   529.04         18.4598
   529.18         18.4607
   529.32         18.4630
   529.46         18.4657
   529.60         18.4688
   529.74         18.4723
   529.88         18.4755
   530.02         18.4771
   530.16         18.4741
   530.30         18.4640
   530.44         18.4463
   530.58         18.4216
   530.72         18.3905
   530.86         18.3535
   531.00         18.3126
   531.14         18.2704
   531.28         18.2295
   531.42         18.1921
   531.56         18.1601
   531.70         18.1347
   531.84         18.1161
   531.98         18.1038
   532.12         18.0962
   532.26         18.0897
   532.40         18.0802
   532.54         18.0646
   532.68         18.0404
   532.82         18.0058
   532.96         17.9611
   533.10         17.9084
   533.24         17.8506
   533.38         17.7905
   533.52         17.7316
   533.66         17.6782
   533.80         17.6333
   533.94         17.5979
   534.08         17.5708
   534.22         17.5497
   534.36         17.5322
   534.50         17.5171
   534.64         17.5033
   534.78         17.4900
   534.92         17.4775
   535.06         17.4678
   535.20         17.4626
   535.34         17.4622
   535.48         17.4659
   535.62         17.4737
   535.76         17.4856
   535.90         17.5017
   536.04         17.5210
   536.18         17.5411
   536.32         17.5588
   536.46         17.5712
   536.60         17.5759
   536.74         17.5714
   536.88         17.5587
   537.02         17.5400
   537.16         17.5171
   537.30         17.4913
   537.44         17.4635
   537.58         17.4348
   537.72         17.4059
   537.86         17.3770
   538.00         17.3484
   538.14         17.3208
   538.28         17.2959
   538.42         17.2749
   538.56         17.2572
   538.70         17.2412
   538.84         17.2257
   538.98         17.2109
   539.12         17.1983
   539.26         17.1886
   539.40         17.1826
   539.54         17.1802
   539.68         17.1802
   539.82         17.1803
   539.96         17.1783
   540.10         17.1734
   540.24         17.1657
   540.38         17.1549
   540.52         17.1402
   540.66         17.1212
   540.80         17.0986
   540.94         17.0739
   541.08         17.0490
   541.22         17.0260
   541.36         17.0067
   541.50         16.9926
   541.64         16.9845
   541.78         16.9826
   541.92         16.9861
   542.06         16.9927
   542.20         16.9988
   542.34         17.0010
   542.48         16.9969
   542.62         16.9850
   542.76         16.9644
   542.90         16.9362
   543.04         16.9024
   543.18         16.8664
   543.32         16.8315
   543.46         16.8008
   543.60         16.7758
   543.74         16.7564
   543.88         16.7425
   544.02         16.7344
   544.16         16.7317
   544.30         16.7319
   544.44         16.7320
   544.58         16.7299
   544.72         16.7249
   544.86         16.7171
   545.00         16.7074
   545.14         16.6974
   545.28         16.6888
   545.42         16.6825
   545.56         16.6779
   545.70         16.6735
   545.84         16.6678
   545.98         16.6588
   546.12         16.6455
   546.26         16.6278
   546.40         16.6069
   546.54         16.5842
   546.68         16.5595
   546.82         16.5313
   546.96         16.4985
   547.10         16.4634
   547.24         16.4292
   547.38         16.3974
   547.52         16.3676
   547.66         16.3388
   547.80         16.3108
   547.94         16.2828
   548.08         16.2538
   548.22         16.2235
   548.36         16.1934
   548.50         16.1654
   548.64         16.1408
   548.78         16.1208
   548.92         16.1061
   549.06         16.0967
   549.20         16.0925
   549.34         16.0930
   549.48         16.0968
   549.62         16.1018
   549.76         16.1060
   549.90         16.1071
   550.04         16.1020
   550.18         16.0889
   550.32         16.0685
   550.46         16.0425
   550.60         16.0122
   550.74         15.9793
   550.88         15.9473
   551.02         15.9205
   551.16         15.9007
   551.30         15.8871
   551.44         15.8775
   551.58         15.8703
   551.72         15.8644
   551.86         15.8582
   552.00         15.8500
   552.14         15.8377
   552.28         15.8197
   552.42         15.7962
   552.56         15.7689
   552.70         15.7398
   552.84         15.7104
   552.98         15.6826
   553.12         15.6574
   553.26         15.6348
   553.40         15.6160
   553.54         15.6026
   553.68         15.5952
   553.82         15.5931
   553.96         15.5966
   554.10         15.6057
   554.24         15.6191
   554.38         15.6354
   554.52         15.6522
   554.66         15.6656
   554.80         15.6710
   554.94         15.6659
   555.08         15.6503
   555.22         15.6255
   555.36         15.5930
   555.50         15.5562
   555.64         15.5192
   555.78         15.4846
   555.92         15.4557
   556.06         15.4359
   556.20         15.4275
   556.34         15.4299
   556.48         15.4402
   556.62         15.4553
   556.76         15.4725
   556.90         15.4893
   557.04         15.5042
   557.18         15.5156
   557.32         15.5220
   557.46         15.5225
   557.60         15.5172
   557.74         15.5069
   557.88         15.4931
   558.02         15.4771
   558.16         15.4594
   558.30         15.4402
   558.44         15.4208
   558.58         15.4028
   558.72         15.3868
   558.86         15.3720
   559.00         15.3568
   559.14         15.3402
   559.28         15.3215
   559.42         15.2999
   559.56         15.2740
   559.70         15.2426
   559.84         15.2046
   559.98         15.1592
   560.12         15.1078
   560.26         15.0536
   560.40         15.0002
   560.54         14.9498
   560.68         14.9030
   560.82         14.8604
   560.96         14.8236
   561.10         14.7940
   561.24         14.7717
   561.38         14.7567
   561.52         14.7488
   561.66         14.7468
   561.80         14.7494
   561.94         14.7548
   562.08         14.7606
   562.22         14.7642
   562.36         14.7634
   562.50         14.7574
   562.64         14.7471
   562.78         14.7338
   562.92         14.7179
   563.06         14.6999
   563.20         14.6815
   563.34         14.6643
   563.48         14.6500
   563.62         14.6399
   563.76         14.6335
   563.90         14.6283
   564.04         14.6212
   564.18         14.6103
   564.32         14.5946
   564.46         14.5739
   564.60         14.5493
   564.74         14.5224
   564.88         14.4952
   565.02         14.4697
   565.16         14.4482
   565.30         14.4321
   565.44         14.4206
   565.58         14.4118
   565.72         14.4047
   565.86         14.3977
   566.00         14.3880
   566.14         14.3740
   566.28         14.3558
   566.42         14.3346
   566.56         14.3126
   566.70         14.2932
   566.84         14.2795
   566.98         14.2738
   567.12         14.2770
   567.26         14.2884
   567.40         14.3057
   567.54         14.3253
   567.68         14.3433
   567.82         14.3569
   567.96         14.3638
   568.10         14.3632
   568.24         14.3556
   568.38         14.3429
   568.52         14.3265
   568.66         14.3083
   568.80         14.2909
   568.94         14.2761
   569.08         14.2634
   569.22         14.2516
   569.36         14.2401
   569.50         14.2283
   569.64         14.2152
   569.78         14.2002
   569.92         14.1829
   570.06         14.1642
   570.20         14.1448
   570.34         14.1257
   570.48         14.1087
   570.62         14.0941
   570.76         14.0799
   570.90         14.0627
   571.04         14.0398
   571.18         14.0108
   571.32         13.9763
   571.46         13.9375
   571.60         13.8965
   571.74         13.8556
   571.88         13.8177
   572.02         13.7860
   572.16         13.7628
   572.30         13.7497
   572.44         13.7466
   572.58         13.7506
   572.72         13.7577
   572.86         13.7638
   573.00         13.7657
   573.14         13.7609
   573.28         13.7474
   573.42         13.7239
   573.56         13.6908
   573.70         13.6515
   573.84         13.6106
   573.98         13.5725
   574.12         13.5415
   574.26         13.5203
   574.40         13.5102
   574.54         13.5128
   574.68         13.5278
   574.82         13.5525
   574.96         13.5825
   575.10         13.6121
   575.24         13.6368
   575.38         13.6538
   575.52         13.6621
   575.66         13.6613
   575.80         13.6516
   575.94         13.6336
   576.08         13.6085
   576.22         13.5785
   576.36         13.5469
   576.50         13.5158
   576.64         13.4862
   576.78         13.4577
   576.92         13.4293
   577.06         13.4003
   577.20         13.3702
   577.34         13.3389
   577.48         13.3062
   577.62         13.2725
   577.76         13.2384
   577.90         13.2050
   578.04         13.1739
   578.18         13.1479
   578.32         13.1288
   578.46         13.1175
   578.60         13.1137
   578.74         13.1164
   578.88         13.1242
   579.02         13.1356
   579.16         13.1492
   579.30         13.1640
   579.44         13.1779
   579.58         13.1888
   579.72         13.1963
   579.86         13.2003
   580.00         13.2005
   580.14         13.1964
   580.28         13.1882
   580.42         13.1763
   580.56         13.1617
   580.70         13.1452
   580.84         13.1269
   580.98         13.1068
   581.12         13.0852
   581.26         13.0637
   581.40         13.0438
   581.54         13.0276
   581.68         13.0163
   581.82         13.0109
   581.96         13.0118
   582.10         13.0176
   582.24         13.0265
   582.38         13.0369
   582.52         13.0470
   582.66         13.0550
   582.80         13.0597
   582.94         13.0611
   583.08         13.0593
   583.22         13.0557
   583.36         13.0513
   583.50         13.0472
   583.64         13.0444
   583.78         13.0436
   583.92         13.0446
   584.06         13.0470
   584.20         13.0504
   584.34         13.0532
   584.48         13.0540
   584.62         13.0513
   584.76         13.0435
   584.90         13.0310
   585.04         13.0157
   585.18         12.9993
   585.32         12.9826
   585.46         12.9662
   585.60         12.9512
   585.74         12.9383
   585.88         12.9283
   586.02         12.9202
   586.16         12.9113
   586.30         12.8973
   586.44         12.8719
   586.58         12.8298
   586.72         12.7689
   586.86         12.6909
   587.00         12.5993
   587.14         12.4999
   587.28         12.3995
   587.42         12.3050
   587.56         12.2227
   587.70         12.1561
   587.84         12.1059
   587.98         12.0714
   588.12         12.0527
   588.26         12.0489
   588.40         12.0558
   588.54         12.0676
   588.68         12.0782
   588.82         12.0837
   588.96         12.0839
   589.10         12.0821
   589.24         12.0842
   589.38         12.0966
   589.52         12.1244
   589.66         12.1692
   589.80         12.2301
   589.94         12.3036
   590.08         12.3848
   590.22         12.4679
   590.36         12.5472
   590.50         12.6176
   590.64         12.6758
   590.78         12.7186
   590.92         12.7429
   591.06         12.7465
   591.20         12.7294
   591.34         12.6936
   591.48         12.6426
   591.62         12.5814
   591.76         12.5146
   591.90         12.4458
   592.04         12.3772
   592.18         12.3099
   592.32         12.2442
   592.46         12.1807
   592.60         12.1215
   592.74         12.0685
   592.88         12.0226
   593.02         11.9835
   593.16         11.9505
   593.30         11.9228
   593.44         11.8995
   593.58         11.8799
   593.72         11.8635
   593.86         11.8497
   594.00         11.8383
   594.14         11.8299
   594.28         11.8253
   594.42         11.8236
   594.56         11.8240
   594.70         11.8274
   594.84         11.8357
   594.98         11.8504
   595.12         11.8718
   595.26         11.8987
   595.40         11.9283
   595.54         11.9563
   595.68         11.9797
   595.82         11.9975
   595.96         12.0096
   596.10         12.0149
   596.24         12.0130
   596.38         12.0037
   596.52         11.9868
   596.66         11.9619
   596.80         11.9301
   596.94         11.8942
   597.08         11.8576
   597.22         11.8241
   597.36         11.7953
   597.50         11.7711
   597.64         11.7509
   597.78         11.7339
   597.92         11.7197
   598.06         11.7089
   598.20         11.7019
   598.34         11.6997
   598.48         11.7025
   598.62         11.7092
   598.76         11.7182
   598.90         11.7292
   599.04         11.7419
   599.18         11.7551
   599.32         11.7681
   599.46         11.7807
   599.60         11.7926
   599.74         11.8021
   599.88         11.8072
   600.02         11.8072
   600.16         11.8026
   600.30         11.7939
   600.44         11.7818
   600.58         11.7674
   600.72         11.7513
   600.86         11.7326
   601.00         11.7103
   601.14         11.6845
   601.28         11.6555
   601.42         11.6238
   601.56         11.5902
   601.70         11.5556
   601.84         11.5206
   601.98         11.4857
   602.12         11.4518
   602.26         11.4193
   602.40         11.3880
   602.54         11.3575
   602.68         11.3280
   602.82         11.2997
   602.96         11.2731
   603.10         11.2495
   603.24         11.2302
   603.38         11.2151
   603.52         11.2033
   603.66         11.1947
   603.80         11.1906
   603.94         11.1919
   604.08         11.1981
   604.22         11.2085
   604.36         11.2212
   604.50         11.2336
   604.64         11.2446
   604.78         11.2537
   604.92         11.2608
   605.06         11.2670
   605.20         11.2748
   605.34         11.2866
   605.48         11.3022
   605.62         11.3200
   605.76         11.3383
   605.90         11.3557
   606.04         11.3714
   606.18         11.3853
   606.32         11.3975
   606.46         11.4069
   606.60         11.4115
   606.74         11.4095
   606.88         11.4000
   607.02         11.3829
   607.16         11.3594
   607.30         11.3316
   607.44         11.3020
   607.58         11.2733
   607.72         11.2481
   607.86         11.2282
   608.00         11.2143
   608.14         11.2064
   608.28         11.2038
   608.42         11.2049
   608.56         11.2070
   608.70         11.2067
   608.84         11.2007
   608.98         11.1865
   609.12         11.1630
   609.26         11.1304
   609.40         11.0899
   609.54         11.0447
   609.68         10.9993
   609.82         10.9587
   609.96         10.9268
   610.10         10.9069
   610.24         10.9006
   610.38         10.9076
   610.52         10.9249
   610.66         10.9487
   610.80         10.9749
   610.94         10.9994
   611.08         11.0187
   611.22         11.0305
   611.36         11.0341
   611.50         11.0306
   611.64         11.0212
   611.78         11.0081
   611.92         10.9930
   612.06         10.9782
   612.20         10.9663
   612.34         10.9588
   612.48         10.9550
   612.62         10.9527
   612.76         10.9499
   612.90         10.9455
   613.04         10.9384
   613.18         10.9265
   613.32         10.9081
   613.46         10.8820
   613.60         10.8485
   613.74         10.8093
   613.88         10.7678
   614.02         10.7280
   614.16         10.6928
   614.30         10.6632
   614.44         10.6398
   614.58         10.6235
   614.72         10.6160
   614.86         10.6179
   615.00         10.6286
   615.14         10.6460
   615.28         10.6677
   615.42         10.6909
   615.56         10.7120
   615.70         10.7273
   615.84         10.7340
   615.98         10.7308
   616.12         10.7187
   616.26         10.7000
   616.40         10.6764
   616.54         10.6492
   616.68         10.6197
   616.82         10.5898
   616.96         10.5618
   617.10         10.5376
   617.24         10.5182
   617.38         10.5033
   617.52         10.4914
   617.66         10.4817
   617.80         10.4737
   617.94         10.4676
   618.08         10.4631
   618.22         10.4606
   618.36         10.4608
   618.50         10.4638
   618.64         10.4701
   618.78         10.4804
   618.92         10.4958
   619.06         10.5157
   619.20         10.5388
   619.34         10.5632
   619.48         10.5858
   619.62         10.6042
   619.76         10.6164
   619.90         10.6225
   620.04         10.6235
   620.18         10.6203
   620.32         10.6137
   620.46         10.6042
   620.60         10.5917
   620.74         10.5753
   620.88         10.5556
   621.02         10.5337
   621.16         10.5103
   621.30         10.4861
   621.44         10.4619
   621.58         10.4381
   621.72         10.4149
   621.86         10.3928
   622.00         10.3729
   622.14         10.3567
   622.28         10.3461
   622.42         10.3415
   622.56         10.3423
   622.70         10.3471
   622.84         10.3543
   622.98         10.3625
   623.12         10.3711
   623.26         10.3790
   623.40         10.3857
   623.54         10.3914
   623.68         10.3964
   623.82         10.4004
   623.96         10.4034
   624.10         10.4059
   624.24         10.4073
   624.38         10.4071
   624.52         10.4053
   624.66         10.4023
   624.80         10.3987
   624.94         10.3947
   625.08         10.3899
   625.22         10.3820
   625.36         10.3680
   625.50         10.3464
   625.64         10.3170
   625.78         10.2799
   625.92         10.2351
   626.06         10.1835
   626.20         10.1265
   626.34         10.0655
   626.48         10.0014
   626.62         9.9353
   626.76         9.8686
   626.90         9.8024
   627.04         9.7385
   627.18         9.6786
   627.32         9.6247
   627.46         9.5785
   627.60         9.5421
   627.74         9.5177
   627.88         9.5066
   628.02         9.5100
   628.16         9.5279
   628.30         9.5583
   628.44         9.5972
   628.58         9.6407
   628.72         9.6857
   628.86         9.7290
   629.00         9.7673
   629.14         9.7980
   629.28         9.8204
   629.42         9.8351
   629.56         9.8434
   629.70         9.8472
   629.84         9.8486
   629.98         9.8494
   630.12         9.8510
   630.26         9.8537
   630.40         9.8567
   630.54         9.8589
   630.68         9.8592
   630.82         9.8574
   630.96         9.8533
   631.10         9.8470
   631.24         9.8398
   631.38         9.8337
   631.52         9.8301
   631.66         9.8290
   631.80         9.8302
   631.94         9.8328
   632.08         9.8351
   632.22         9.8350
   632.36         9.8310
   632.50         9.8218
   632.64         9.8071
   632.78         9.7873
   632.92         9.7635
   633.06         9.7366
   633.20         9.7072
   633.34         9.6758
   633.48         9.6438
   633.62         9.6131
   633.76         9.5861
   633.90         9.5641
   634.04         9.5472
   634.18         9.5338
   634.32         9.5221
   634.46         9.5107
   634.60         9.4992
   634.74         9.4876
   634.88         9.4765
   635.02         9.4669
   635.16         9.4602
   635.30         9.4569
   635.44         9.4564
   635.58         9.4571
   635.72         9.4572
   635.86         9.4559
   636.00         9.4522
   636.14         9.4452
   636.28         9.4343
   636.42         9.4194
   636.56         9.4017
   636.70         9.3827
   636.84         9.3630
   636.98         9.3421
   637.12         9.3201
   637.26         9.2973
   637.40         9.2738
   637.54         9.2494
   637.68         9.2239
   637.82         9.1978
   637.96         9.1716
   638.10         9.1469
   638.24         9.1259
   638.38         9.1106
   638.52         9.1021
   638.66         9.1009
   638.80         9.1068
   638.94         9.1183
   639.08         9.1317
   639.22         9.1426
   639.36         9.1470
   639.50         9.1434
   639.64         9.1331
   639.78         9.1189
   639.92         9.1039
   640.06         9.0907
   640.20         9.0823
   640.34         9.0810
   640.48         9.0878
   640.62         9.1019
   640.76         9.1211
   640.90         9.1423
   641.04         9.1623
   641.18         9.1785
   641.32         9.1886
   641.46         9.1915
   641.60         9.1868
   641.74         9.1758
   641.88         9.1615
   642.02         9.1473
   642.16         9.1367
   642.30         9.1318
   642.44         9.1337
   642.58         9.1418
   642.72         9.1552
   642.86         9.1718
   643.00         9.1892
   643.14         9.2045
   643.28         9.2159
   643.42         9.2224
   643.56         9.2232
   643.70         9.2185
   643.84         9.2085
   643.98         9.1936
   644.12         9.1750
   644.26         9.1543
   644.40         9.1332
   644.54         9.1132
   644.68         9.0951
   644.82         9.0798
   644.96         9.0675
   645.10         9.0582
   645.24         9.0507
   645.38         9.0429
   645.52         9.0335
   645.66         9.0221
   645.80         9.0087
   645.94         8.9942
   646.08         8.9792
   646.22         8.9637
   646.36         8.9478
   646.50         8.9322
   646.64         8.9184
   646.78         8.9076
   646.92         8.9013
   647.06         8.9000
   647.20         8.9028
   647.34         8.9083
   647.48         8.9155
   647.62         8.9243
   647.76         8.9347
   647.90         8.9449
   648.04         8.9536
   648.18         8.9594
   648.32         8.9611
   648.46         8.9575
   648.60         8.9485
   648.74         8.9352
   648.88         8.9200
   649.02         8.9048
   649.16         8.8913
   649.30         8.8802
   649.44         8.8715
   649.58         8.8654
   649.72         8.8622
   649.86         8.8614
   650.00         8.8631
   650.14         8.8672
   650.28         8.8730
   650.42         8.8775
   650.56         8.8775
   650.70         8.8721
   650.84         8.8632
   650.98         8.8536
   651.12         8.8462
   651.26         8.8433
   651.40         8.8459
   651.54         8.8532
   651.68         8.8631
   651.82         8.8736
   651.96         8.8835
   652.10         8.8907
   652.24         8.8937
   652.38         8.8906
   652.52         8.8796
   652.66         8.8593
   652.80         8.8299
   652.94         8.7930
   653.08         8.7510
   653.22         8.7073
   653.36         8.6653
   653.50         8.6263
   653.64         8.5895
   653.78         8.5533
   653.92         8.5163
   654.06         8.4769
   654.20         8.4330
   654.34         8.3831
   654.48         8.3258
   654.62         8.2591
   654.76         8.1803
   654.90         8.0870
   655.04         7.9762
   655.18         7.8458
   655.32         7.6961
   655.46         7.5312
   655.60         7.3590
   655.74         7.1893
   655.88         7.0332
   656.02         6.9016
   656.16         6.8039
   656.30         6.7473
   656.44         6.7362
   656.58         6.7718
   656.72         6.8505
   656.86         6.9650
   657.00         7.1057
   657.14         7.2614
   657.28         7.4213
   657.42         7.5757
   657.56         7.7179
   657.70         7.8443
   657.84         7.9544
   657.98         8.0501
   658.12         8.1341
   658.26         8.2081
   658.40         8.2726
   658.54         8.3269
   658.68         8.3704
   658.82         8.4034
   658.96         8.4264
   659.10         8.4401
   659.24         8.4462
   659.38         8.4473
   659.52         8.4461
   659.66         8.4455
   659.80         8.4474
   659.94         8.4523
   660.08         8.4595
   660.22         8.4678
   660.36         8.4755
   660.50         8.4815
   660.64         8.4849
   660.78         8.4842
   660.92         8.4791
   661.06         8.4706
   661.20         8.4605
   661.34         8.4509
   661.48         8.4429
   661.62         8.4361
   661.76         8.4308
   661.90         8.4276
   662.04         8.4261
   662.18         8.4248
   662.32         8.4220
   662.46         8.4169
   662.60         8.4093
   662.74         8.3998
   662.88         8.3892
   663.02         8.3784
   663.16         8.3681
   663.30         8.3586
   663.44         8.3493
   663.58         8.3399
   663.72         8.3304
   663.86         8.3203
   664.00         8.3087
   664.14         8.2949
   664.28         8.2794
   664.42         8.2635
   664.56         8.2475
   664.70         8.2306
   664.84         8.2126
   664.98         8.1938
   665.12         8.1746
   665.26         8.1553
   665.40         8.1361
   665.54         8.1173
   665.68         8.0998
   665.82         8.0848
   665.96         8.0734
   666.10         8.0663
   666.24         8.0637
   666.38         8.0642
   666.52         8.0644
   666.66         8.0595
   666.80         8.0459
   666.94         8.0225
   667.08         7.9901
   667.22         7.9511
   667.36         7.9093
   667.50         7.8689
   667.64         7.8336
   667.78         7.8067
   667.92         7.7906
   668.06         7.7863
   668.20         7.7926
   668.34         7.8074
   668.48         7.8285
   668.62         7.8523
   668.76         7.8747
   668.90         7.8924
   669.04         7.9027
   669.18         7.9054
   669.32         7.9025
   669.46         7.8971
   669.60         7.8924
   669.74         7.8900
   669.88         7.8896
   670.02         7.8912
   670.16         7.8941
   670.30         7.8975
   670.44         7.9001
   670.58         7.9008
   670.72         7.8984
   670.86         7.8924
   671.00         7.8839
   671.14         7.8738
   671.28         7.8625
   671.42         7.8506
   671.56         7.8392
   671.70         7.8283
   671.84         7.8178
   671.98         7.8079
   672.12         7.8000
   672.26         7.7953
   672.40         7.7941
   672.54         7.7962
   672.68         7.8017
   672.82         7.8098
   672.96         7.8188
   673.10         7.8274
   673.24         7.8342
   673.38         7.8385
   673.52         7.8399
   673.66         7.8387
   673.80         7.8343
   673.94         7.8263
   674.08         7.8152
   674.22         7.8014
   674.36         7.7854
   674.50         7.7682
   674.64         7.7513
   674.78         7.7353
   674.92         7.7202
   675.06         7.7064
   675.20         7.6952
   675.34         7.6876
   675.48         7.6836
   675.62         7.6823
   675.76         7.6824
   675.90         7.6827
   676.04         7.6829
   676.18         7.6823
   676.32         7.6801
   676.46         7.6758
   676.60         7.6701
   676.74         7.6647
   676.88         7.6605
   677.02         7.6579
   677.16         7.6567
   677.30         7.6565
   677.44         7.6568
   677.58         7.6571
   677.72         7.6582
   677.86         7.6604
   678.00         7.6640
   678.14         7.6686
   678.28         7.6730
   678.42         7.6758
   678.56         7.6763
   678.70         7.6742
   678.84         7.6695
   678.98         7.6624
   679.12         7.6522
   679.26         7.6384
   679.40         7.6210
   679.54         7.6005
   679.68         7.5787
   679.82         7.5578
   679.96         7.5398
   680.10         7.5267
   680.24         7.5205
   680.38         7.5222
   680.52         7.5305
   680.66         7.5420
   680.80         7.5524
   680.94         7.5585
   681.08         7.5586
   681.22         7.5529
   681.36         7.5419
   681.50         7.5256
   681.64         7.5040
   681.78         7.4785
   681.92         7.4525
   682.06         7.4296
   682.20         7.4122
   682.34         7.4012
   682.48         7.3960
   682.62         7.3954
   682.76         7.3976
   682.90         7.4004
   683.04         7.4013
   683.18         7.3987
   683.32         7.3920
   683.46         7.3817
   683.60         7.3683
   683.74         7.3524
   683.88         7.3346
   684.02         7.3158
   684.16         7.2973
   684.30         7.2809
   684.44         7.2678
   684.58         7.2591
   684.72         7.2544
   684.86         7.2526
   685.00         7.2529
   685.14         7.2537
   685.28         7.2533
   685.42         7.2481
   685.56         7.2318
   685.70         7.1971
   685.84         7.1362
   685.98         7.0432
   686.12         6.9166
   686.26         6.7595
   686.40         6.5792
   686.54         6.3861
   686.68         6.1928
   686.82         6.0133
   686.96         5.8614
   687.10         5.7494
   687.24         5.6859
   687.38         5.6728
   687.52         5.7056
   687.66         5.7751
   687.80         5.8684
   687.94         5.9711
   688.08         6.0689
   688.22         6.1505
   688.36         6.2093
   688.50         6.2443
   688.64         6.2589
   688.78         6.2585
   688.92         6.2486
   689.06         6.2345
   689.20         6.2212
   689.34         6.2131
   689.48         6.2130
   689.62         6.2220
   689.76         6.2393
   689.90         6.2629
   690.04         6.2911
   690.18         6.3223
   690.32         6.3560
   690.46         6.3922
   690.60         6.4312
   690.74         6.4725
   690.88         6.5153
   691.02         6.5582
   691.16         6.5999
   691.30         6.6391
   691.44         6.6746
   691.58         6.7054
   691.72         6.7310
   691.86         6.7510
   692.00         6.7655
   692.14         6.7746
   692.28         6.7780
   692.42         6.7764
   692.56         6.7709
   692.70         6.7624
   692.84         6.7513
   692.98         6.7394
   693.12         6.7289
   693.26         6.7222
   693.40         6.7206
   693.54         6.7242
   693.68         6.7324
   693.82         6.7445
   693.96         6.7593
   694.10         6.7763
   694.24         6.7947
   694.38         6.8131
   694.52         6.8298
   694.66         6.8433
   694.80         6.8521
   694.94         6.8559
   695.08         6.8548
   695.22         6.8492
   695.36         6.8396
   695.50         6.8272
   695.64         6.8139
   695.78         6.8012
   695.92         6.7902
   696.06         6.7824
   696.20         6.7790
   696.34         6.7810
   696.48         6.7885
   696.62         6.8012
   696.76         6.8174
   696.90         6.8346
   697.04         6.8502
   697.18         6.8624
   697.32         6.8700
   697.46         6.8725
   697.60         6.8701
   697.74         6.8631
   697.88         6.8519
   698.02         6.8376
   698.16         6.8217
   698.30         6.8063
   698.44         6.7930
   698.58         6.7833
   698.72         6.7779
   698.86         6.7764
   699.00         6.7778
   699.14         6.7816
   699.28         6.7869
   699.42         6.7927
   699.56         6.7978
   699.70         6.8011
   699.84         6.8015
   699.98         6.7986
   700.12         6.7924
   700.26         6.7834
   700.40         6.7722
   700.54         6.7604
   700.68         6.7499
   700.82         6.7427
   700.96         6.7395
   701.10         6.7399
   701.24         6.7435
   701.38         6.7503
   701.52         6.7595
   701.66         6.7698
   701.80         6.7797
   701.94         6.7875
   702.08         6.7908
   702.22         6.7872
   702.36         6.7751
   702.50         6.7537
   702.64         6.7237
   702.78         6.6864
   702.92         6.6436
   703.06         6.5983
   703.20         6.5543
   703.34         6.5157
   703.48         6.4860
   703.62         6.4677
   703.76         6.4622
   703.90         6.4703
   704.04         6.4913
   704.18         6.5227
   704.32         6.5608
   704.46         6.6016
   704.60         6.6411
   704.74         6.6755
   704.88         6.7021
   705.02         6.7188
   705.16         6.7238
   705.30         6.7157
   705.44         6.6933
   705.58         6.6571
   705.72         6.6093
   705.86         6.5541
   706.00         6.4969
   706.14         6.4429
   706.28         6.3961
   706.42         6.3592
   706.56         6.3340
   706.70         6.3210
   706.84         6.3195
   706.98         6.3282
   707.12         6.3457
   707.26         6.3699
   707.40         6.3980
   707.54         6.4264
   707.68         6.4516
   707.82         6.4707
   707.96         6.4825
   708.10         6.4874
   708.24         6.4873
   708.38         6.4844
   708.52         6.4802
   708.66         6.4751
   708.80         6.4689
   708.94         6.4615
   709.08         6.4539
   709.22         6.4477
   709.36         6.4444
   709.50         6.4449
   709.64         6.4491
   709.78         6.4565
   709.92         6.4656
   710.06         6.4752
   710.20         6.4849
   710.34         6.4946
   710.48         6.5041
   710.62         6.5131
   710.76         6.5204
   710.90         6.5242
   711.04         6.5237
   711.18         6.5189
   711.32         6.5104
   711.46         6.5002
   711.60         6.4906
   711.74         6.4832
   711.88         6.4794
   712.02         6.4797
   712.16         6.4844
   712.30         6.4943
   712.44         6.5102
   712.58         6.5323
   712.72         6.5595
   712.86         6.5891
   713.00         6.6174
   713.14         6.6402
   713.28         6.6539
   713.42         6.6556
   713.56         6.6441
   713.70         6.6199
   713.84         6.5839
   713.98         6.5379
   714.12         6.4845
   714.26         6.4275
   714.40         6.3709
   714.54         6.3196
   714.68         6.2777
   714.82         6.2488
   714.96         6.2349
   715.10         6.2357
   715.24         6.2483
   715.38         6.2687
   715.52         6.2916
   715.66         6.3125
   715.80         6.3278
   715.94         6.3344
   716.08         6.3299
   716.22         6.3135
   716.36         6.2858
   716.50         6.2482
   716.64         6.2026
   716.78         6.1522
   716.92         6.1004
   717.06         6.0500
   717.20         6.0031
   717.34         5.9601
   717.48         5.9203
   717.62         5.8833
   717.76         5.8495
   717.90         5.8193
   718.04         5.7923
   718.18         5.7680
   718.32         5.7469
   718.46         5.7300
   718.60         5.7183
   718.74         5.7116
   718.88         5.7099
   719.02         5.7132
   719.16         5.7214
   719.30         5.7339
   719.44         5.7492
   719.58         5.7659
   719.72         5.7838
   719.86         5.8038
   720.00         5.8271
   720.14         5.8549
   720.28         5.8887
   720.42         5.9285
   720.56         5.9723
   720.70         6.0177
   720.84         6.0630
   720.98         6.1069
   721.12         6.1474
   721.26         6.1811
   721.40         6.2051
   721.54         6.2182
   721.68         6.2211
   721.82         6.2148
   721.96         6.2000
   722.10         6.1782
   722.24         6.1512
   722.38         6.1200
   722.52         6.0850
   722.66         6.0459
   722.80         6.0017
   722.94         5.9512
   723.08         5.8948
   723.22         5.8337
   723.36         5.7707
   723.50         5.7094
   723.64         5.6541
   723.78         5.6091
   723.92         5.5771
   724.06         5.5594
   724.20         5.5554
   724.34         5.5639
   724.48         5.5828
   724.62         5.6101
   724.76         5.6438
   724.90         5.6825
   725.04         5.7248
   725.18         5.7683
   725.32         5.8096
   725.46         5.8450
   725.60         5.8717
   725.74         5.8888
   725.88         5.8963
   726.02         5.8945
   726.16         5.8841
   726.30         5.8654
   726.44         5.8387
   726.58         5.8047
   726.72         5.7650
   726.86         5.7230
   727.00         5.6825
   727.14         5.6468
   727.28         5.6184
   727.42         5.5987
   727.56         5.5882
   727.70         5.5845
   727.84         5.5844
   727.98         5.5852
   728.12         5.5852
   728.26         5.5839
   728.40         5.5818
   728.54         5.5796
   728.68         5.5775
   728.82         5.5759
   728.96         5.5753
   729.10         5.5758
   729.24         5.5783
   729.38         5.5843
   729.52         5.5948
   729.66         5.6088
   729.80         5.6248
   729.94         5.6410
   730.08         5.6559
   730.22         5.6675
   730.36         5.6736
   730.50         5.6737
   730.64         5.6688
   730.78         5.6604
   730.92         5.6503
   731.06         5.6405
   731.20         5.6330
   731.34         5.6297
   731.48         5.6319
   731.62         5.6396
   731.76         5.6526
   731.90         5.6693
   732.04         5.6875
   732.18         5.7034
   732.32         5.7149
   732.46         5.7217
   732.60         5.7248
   732.74         5.7246
   732.88         5.7209
   733.02         5.7137
   733.16         5.7033
   733.30         5.6906
   733.44         5.6769
   733.58         5.6640
   733.72         5.6540
   733.86         5.6477
   734.00         5.6447
   734.14         5.6434
   734.28         5.6420
   734.42         5.6400
   734.56         5.6375
   734.70         5.6350
   734.84         5.6331
   734.98         5.6330
   735.12         5.6352
   735.26         5.6389
   735.40         5.6422
   735.54         5.6434
   735.68         5.6406
   735.82         5.6332
   735.96         5.6215
   736.10         5.6065
   736.24         5.5891
   736.38         5.5690
   736.52         5.5456
   736.66         5.5187
   736.80         5.4892
   736.94         5.4582
   737.08         5.4270
   737.22         5.3964
   737.36         5.3667
   737.50         5.3384
   737.64         5.3118
   737.78         5.2866
   737.92         5.2628
   738.06         5.2405
   738.20         5.2205
   738.34         5.2042
   738.48         5.1938
   738.62         5.1912
   738.76         5.1967
   738.90         5.2100
   739.04         5.2299
   739.18         5.2549
   739.32         5.2832
   739.46         5.3121
   739.60         5.3390
   739.74         5.3616
   739.88         5.3783
   740.02         5.3877
   740.16         5.3893
   740.30         5.3835
   740.44         5.3721
   740.58         5.3572
   740.72         5.3409
   740.86         5.3249
   741.00         5.3105
   741.14         5.2982
   741.28         5.2877
   741.42         5.2791
   741.56         5.2717
   741.70         5.2646
   741.84         5.2575
   741.98         5.2503
   742.12         5.2431
   742.26         5.2359
   742.40         5.2287
   742.54         5.2220
   742.68         5.2165
   742.82         5.2132
   742.96         5.2132
   743.10         5.2165
   743.24         5.2220
   743.38         5.2287
   743.52         5.2359
   743.66         5.2431
   743.80         5.2503
   743.94         5.2575
   744.08         5.2646
   744.22         5.2717
