# File HD5702
# Wavelength [nm]    Normalized Amplitude
   349.70         7.1238
   349.84         7.1196
   349.98         7.1317
   350.12         7.1564
   350.26         7.1898
   350.40         7.2279
   350.54         7.2670
   350.68         7.3037
   350.82         7.3337
   350.96         7.3531
   351.10         7.3598
   351.24         7.3531
   351.38         7.3337
   351.52         7.3037
   351.66         7.2670
   351.80         7.2279
   351.94         7.1898
   352.08         7.1564
   352.22         7.1317
   352.36         7.1196
   352.50         7.1238
   352.64         7.1477
   352.78         7.1922
   352.92         7.2563
   353.06         7.3365
   353.20         7.4274
   353.34         7.5225
   353.48         7.6157
   353.62         7.7036
   353.76         7.7838
   353.90         7.8545
   354.04         7.9147
   354.18         7.9626
   354.32         7.9963
   354.46         8.0151
   354.60         8.0190
   354.74         8.0090
   354.88         7.9865
   355.02         7.9535
   355.16         7.9112
   355.30         7.8594
   355.44         7.7964
   355.58         7.7204
   355.72         7.6297
   355.86         7.5243
   356.00         7.4070
   356.14         7.2822
   356.28         7.1545
   356.42         7.0298
   356.56         6.9149
   356.70         6.8162
   356.84         6.7366
   356.98         6.6763
   357.12         6.6333
   357.26         6.6027
   357.40         6.5777
   357.54         6.5525
   357.68         6.5243
   357.82         6.4934
   357.96         6.4637
   358.10         6.4424
   358.24         6.4390
   358.38         6.4625
   358.52         6.5192
   358.66         6.6106
   358.80         6.7340
   358.94         6.8823
   359.08         7.0447
   359.22         7.2074
   359.36         7.3547
   359.50         7.4724
   359.64         7.5512
   359.78         7.5872
   359.92         7.5815
   360.06         7.5407
   360.20         7.4747
   360.34         7.3942
   360.48         7.3079
   360.62         7.2216
   360.76         7.1389
   360.90         7.0632
   361.04         6.9977
   361.18         6.9465
   361.32         6.9156
   361.46         6.9103
   361.60         6.9328
   361.74         6.9811
   361.88         7.0484
   362.02         7.1249
   362.16         7.2006
   362.30         7.2684
   362.44         7.3242
   362.58         7.3669
   362.72         7.3989
   362.86         7.4240
   363.00         7.4457
   363.14         7.4665
   363.28         7.4880
   363.42         7.5114
   363.56         7.5375
   363.70         7.5661
   363.84         7.5956
   363.98         7.6235
   364.12         7.6456
   364.26         7.6577
   364.40         7.6578
   364.54         7.6485
   364.68         7.6374
   364.82         7.6358
   364.96         7.6541
   365.10         7.6971
   365.24         7.7643
   365.38         7.8513
   365.52         7.9495
   365.66         8.0473
   365.80         8.1332
   365.94         8.1990
   366.08         8.2419
   366.22         8.2638
   366.36         8.2688
   366.50         8.2600
   366.64         8.2396
   366.78         8.2099
   366.92         8.1740
   367.06         8.1356
   367.20         8.0983
   367.34         8.0643
   367.48         8.0328
   367.62         8.0014
   367.76         7.9687
   367.90         7.9366
   368.04         7.9093
   368.18         7.8909
   368.32         7.8847
   368.46         7.8926
   368.60         7.9162
   368.74         7.9561
   368.88         8.0103
   369.02         8.0734
   369.16         8.1388
   369.30         8.1994
   369.44         8.2493
   369.58         8.2837
   369.72         8.2988
   369.86         8.2933
   370.00         8.2697
   370.14         8.2365
   370.28         8.2063
   370.42         8.1917
   370.56         8.1997
   370.70         8.2299
   370.84         8.2749
   370.98         8.3248
   371.12         8.3704
   371.26         8.4054
   371.40         8.4260
   371.54         8.4296
   371.68         8.4154
   371.82         8.3836
   371.96         8.3360
   372.10         8.2747
   372.24         8.2012
   372.38         8.1165
   372.52         8.0240
   372.66         7.9307
   372.80         7.8449
   372.94         7.7729
   373.08         7.7177
   373.22         7.6787
   373.36         7.6523
   373.50         7.6343
   373.64         7.6207
   373.78         7.6078
   373.92         7.5934
   374.06         7.5776
   374.20         7.5644
   374.34         7.5593
   374.48         7.5668
   374.62         7.5883
   374.76         7.6232
   374.90         7.6723
   375.04         7.7392
   375.18         7.8281
   375.32         7.9388
   375.46         8.0647
   375.60         8.1934
   375.74         8.3080
   375.88         8.3920
   376.02         8.4348
   376.16         8.4360
   376.30         8.4059
   376.44         8.3634
   376.58         8.3307
   376.72         8.3277
   376.86         8.3680
   377.00         8.4575
   377.14         8.5952
   377.28         8.7753
   377.42         8.9876
   377.56         9.2187
   377.70         9.4519
   377.84         9.6684
   377.98         9.8507
   378.12         9.9841
   378.26         10.0575
   378.40         10.0638
   378.54         10.0008
   378.68         9.8734
   378.82         9.6945
   378.96         9.4835
   379.10         9.2629
   379.24         9.0560
   379.38         8.8843
   379.52         8.7669
   379.66         8.7184
   379.80         8.7469
   379.94         8.8513
   380.08         9.0214
   380.22         9.2401
   380.36         9.4870
   380.50         9.7417
   380.64         9.9839
   380.78         10.1928
   380.92         10.3493
   381.06         10.4409
   381.20         10.4633
   381.34         10.4197
   381.48         10.3182
   381.62         10.1689
   381.76         9.9817
   381.90         9.7651
   382.04         9.5256
   382.18         9.2667
   382.32         8.9908
   382.46         8.7004
   382.60         8.3995
   382.74         8.0947
   382.88         7.7983
   383.02         7.5290
   383.16         7.3084
   383.30         7.1556
   383.44         7.0853
   383.58         7.1088
   383.72         7.2320
   383.86         7.4517
   384.00         7.7562
   384.14         8.1282
   384.28         8.5461
   384.42         8.9843
   384.56         9.4147
   384.70         9.8097
   384.84         10.1466
   384.98         10.4126
   385.12         10.6069
   385.26         10.7376
   385.40         10.8180
   385.54         10.8633
   385.68         10.8892
   385.82         10.9083
   385.96         10.9278
   386.10         10.9498
   386.24         10.9737
   386.38         10.9962
   386.52         11.0122
   386.66         11.0149
   386.80         10.9978
   386.94         10.9559
   387.08         10.8862
   387.22         10.7863
   387.36         10.6548
   387.50         10.4915
   387.64         10.2975
   387.78         10.0754
   387.92         9.8302
   388.06         9.5706
   388.20         9.3086
   388.34         9.0593
   388.48         8.8392
   388.62         8.6641
   388.76         8.5473
   388.90         8.4980
   389.04         8.5191
   389.18         8.6060
   389.32         8.7487
   389.46         8.9347
   389.60         9.1497
   389.74         9.3776
   389.88         9.6021
   390.02         9.8106
   390.16         9.9958
   390.30         10.1563
   390.44         10.2951
   390.58         10.4166
   390.72         10.5228
   390.86         10.6121
   391.00         10.6817
   391.14         10.7278
   391.28         10.7461
   391.42         10.7302
   391.56         10.6709
   391.70         10.5565
   391.84         10.3743
   391.98         10.1135
   392.12         9.7678
   392.26         9.3373
   392.40         8.8307
   392.54         8.2683
   392.68         7.6813
   392.82         7.1088
   392.96         6.5926
   393.10         6.1705
   393.24         5.8735
   393.38         5.7246
   393.52         5.7361
   393.66         5.9072
   393.80         6.2226
   393.94         6.6536
   394.08         7.1613
   394.22         7.7018
   394.36         8.2326
   394.50         8.7191
   394.64         9.1378
   394.78         9.4748
   394.92         9.7241
   395.06         9.8850
   395.20         9.9581
   395.34         9.9425
   395.48         9.8340
   395.62         9.6273
   395.76         9.3221
   395.90         8.9285
   396.04         8.4690
   396.18         7.9752
   396.32         7.4852
   396.46         7.0399
   396.60         6.6811
   396.74         6.4453
   396.88         6.3596
   397.02         6.4373
   397.16         6.6772
   397.30         7.0628
   397.44         7.5643
   397.58         8.1426
   397.72         8.7550
   397.86         9.3608
   398.00         9.9263
   398.14         10.4278
   398.28         10.8530
   398.42         11.2002
   398.56         11.4756
   398.70         11.6900
   398.84         11.8553
   398.98         11.9829
   399.12         12.0838
   399.26         12.1654
   399.40         12.2305
   399.54         12.2792
   399.68         12.3127
   399.82         12.3345
   399.96         12.3497
   400.10         12.3634
   400.24         12.3801
   400.38         12.4026
   400.52         12.4333
   400.66         12.4730
   400.80         12.5205
   400.94         12.5739
   401.08         12.6307
   401.22         12.6891
   401.36         12.7483
   401.50         12.8084
   401.64         12.8685
   401.78         12.9243
   401.92         12.9686
   402.06         12.9945
   402.20         12.9989
   402.34         12.9829
   402.48         12.9498
   402.62         12.9049
   402.76         12.8542
   402.90         12.8031
   403.04         12.7555
   403.18         12.7130
   403.32         12.6756
   403.46         12.6426
   403.60         12.6148
   403.74         12.5943
   403.88         12.5835
   404.02         12.5832
   404.16         12.5916
   404.30         12.6034
   404.44         12.6123
   404.58         12.6148
   404.72         12.6111
   404.86         12.6032
   405.00         12.5918
   405.14         12.5748
   405.28         12.5476
   405.42         12.5055
   405.56         12.4464
   405.70         12.3723
   405.84         12.2882
   405.98         12.2014
   406.12         12.1206
   406.26         12.0530
   406.40         12.0005
   406.54         11.9602
   406.68         11.9281
   406.82         11.9021
   406.96         11.8823
   407.10         11.8693
   407.24         11.8637
   407.38         11.8666
   407.52         11.8793
   407.66         11.9033
   407.80         11.9407
   407.94         11.9933
   408.08         12.0611
   408.22         12.1402
   408.36         12.2217
   408.50         12.2922
   408.64         12.3360
   408.78         12.3357
   408.92         12.2746
   409.06         12.1421
   409.20         11.9394
   409.34         11.6800
   409.48         11.3858
   409.62         11.0818
   409.76         10.7947
   409.90         10.5519
   410.04         10.3786
   410.18         10.2936
   410.32         10.3066
   410.46         10.4164
   410.60         10.6111
   410.74         10.8704
   410.88         11.1685
   411.02         11.4773
   411.16         11.7701
   411.30         12.0255
   411.44         12.2301
   411.58         12.3811
   411.72         12.4844
   411.86         12.5507
   412.00         12.5896
   412.14         12.6087
   412.28         12.6143
   412.42         12.6142
   412.56         12.6165
   412.70         12.6288
   412.84         12.6558
   412.98         12.6978
   413.12         12.7504
   413.26         12.8083
   413.40         12.8672
   413.54         12.9237
   413.68         12.9747
   413.82         13.0182
   413.96         13.0526
   414.10         13.0755
   414.24         13.0841
   414.38         13.0760
   414.52         13.0504
   414.66         13.0100
   414.80         12.9612
   414.94         12.9130
   415.08         12.8752
   415.22         12.8555
   415.36         12.8576
   415.50         12.8802
   415.64         12.9196
   415.78         12.9710
   415.92         13.0275
   416.06         13.0790
   416.20         13.1134
   416.34         13.1210
   416.48         13.0964
   416.62         13.0387
   416.76         12.9512
   416.90         12.8422
   417.04         12.7226
   417.18         12.6048
   417.32         12.5011
   417.46         12.4210
   417.60         12.3706
   417.74         12.3525
   417.88         12.3653
   418.02         12.4040
   418.16         12.4619
   418.30         12.5314
   418.44         12.6030
   418.58         12.6659
   418.72         12.7123
   418.86         12.7395
   419.00         12.7484
   419.14         12.7409
   419.28         12.7192
   419.42         12.6874
   419.56         12.6501
   419.70         12.6120
   419.84         12.5785
   419.98         12.5554
   420.12         12.5468
   420.26         12.5548
   420.40         12.5790
   420.54         12.6172
   420.68         12.6657
   420.82         12.7200
   420.96         12.7748
   421.10         12.8234
   421.24         12.8577
   421.38         12.8692
   421.52         12.8504
   421.66         12.7988
   421.80         12.7193
   421.94         12.6220
   422.08         12.5181
   422.22         12.4167
   422.36         12.3252
   422.50         12.2491
   422.64         12.1919
   422.78         12.1555
   422.92         12.1402
   423.06         12.1457
   423.20         12.1713
   423.34         12.2138
   423.48         12.2660
   423.62         12.3173
   423.76         12.3573
   423.90         12.3791
   424.04         12.3825
   424.18         12.3740
   424.32         12.3637
   424.46         12.3594
   424.60         12.3634
   424.74         12.3732
   424.88         12.3845
   425.02         12.3951
   425.16         12.4059
   425.30         12.4201
   425.44         12.4400
   425.58         12.4660
   425.72         12.4956
   425.86         12.5234
   426.00         12.5420
   426.14         12.5449
   426.28         12.5288
   426.42         12.4952
   426.56         12.4495
   426.70         12.3989
   426.84         12.3499
   426.98         12.3066
   427.12         12.2719
   427.26         12.2476
   427.40         12.2343
   427.54         12.2315
   427.68         12.2372
   427.82         12.2467
   427.96         12.2524
   428.10         12.2471
   428.24         12.2257
   428.38         12.1859
   428.52         12.1270
   428.66         12.0497
   428.80         11.9550
   428.94         11.8446
   429.08         11.7217
   429.22         11.5902
   429.36         11.4525
   429.50         11.3097
   429.64         11.1627
   429.78         11.0130
   429.92         10.8651
   430.06         10.7265
   430.20         10.6073
   430.34         10.5193
   430.48         10.4756
   430.62         10.4878
   430.76         10.5619
   430.90         10.6960
   431.04         10.8802
   431.18         11.0982
   431.32         11.3294
   431.46         11.5539
   431.60         11.7572
   431.74         11.9308
   431.88         12.0695
   432.02         12.1697
   432.16         12.2303
   432.30         12.2531
   432.44         12.2416
   432.58         12.1980
   432.72         12.1204
   432.86         12.0035
   433.00         11.8428
   433.14         11.6390
   433.28         11.3989
   433.42         11.1362
   433.56         10.8698
   433.70         10.6213
   433.84         10.4109
   433.98         10.2564
   434.12         10.1727
   434.26         10.1703
   434.40         10.2520
   434.54         10.4115
   434.68         10.6356
   434.82         10.9053
   434.96         11.1990
   435.10         11.4956
   435.24         11.7781
   435.38         12.0349
   435.52         12.2616
   435.66         12.4603
   435.80         12.6363
   435.94         12.7943
   436.08         12.9349
   436.22         13.0545
   436.36         13.1472
   436.50         13.2089
   436.64         13.2396
   436.78         13.2432
   436.92         13.2250
   437.06         13.1886
   437.20         13.1340
   437.34         13.0602
   437.48         12.9694
   437.62         12.8682
   437.76         12.7645
   437.90         12.6652
   438.04         12.5755
   438.18         12.5003
   438.32         12.4441
   438.46         12.4119
   438.60         12.4070
   438.74         12.4292
   438.88         12.4747
   439.02         12.5379
   439.16         12.6121
   439.30         12.6893
   439.44         12.7601
   439.58         12.8161
   439.72         12.8516
   439.86         12.8663
   440.00         12.8673
   440.14         12.8643
   440.28         12.8640
   440.42         12.8699
   440.56         12.8838
   440.70         12.9081
   440.84         12.9451
   440.98         12.9946
   441.12         13.0536
   441.26         13.1171
   441.40         13.1795
   441.54         13.2369
   441.68         13.2882
   441.82         13.3325
   441.96         13.3683
   442.10         13.3930
   442.24         13.4048
   442.38         13.4025
   442.52         13.3871
   442.66         13.3609
   442.80         13.3263
   442.94         13.2849
   443.08         13.2383
   443.22         13.1898
   443.36         13.1436
   443.50         13.1027
   443.64         13.0692
   443.78         13.0454
   443.92         13.0332
   444.06         13.0320
   444.20         13.0373
   444.34         13.0415
   444.48         13.0371
   444.62         13.0191
   444.76         12.9859
   444.90         12.9390
   445.04         12.8820
   445.18         12.8209
   445.32         12.7619
   445.46         12.7098
   445.60         12.6677
   445.74         12.6398
   445.88         12.6315
   446.02         12.6479
   446.16         12.6918
   446.30         12.7632
   446.44         12.8587
   446.58         12.9715
   446.72         13.0918
   446.86         13.2079
   447.00         13.3088
   447.14         13.3880
   447.28         13.4433
   447.42         13.4766
   447.56         13.4913
   447.70         13.4907
   447.84         13.4781
   447.98         13.4574
   448.12         13.4332
   448.26         13.4110
   448.40         13.3960
   448.54         13.3924
   448.68         13.4018
   448.82         13.4228
   448.96         13.4523
   449.10         13.4882
   449.24         13.5288
   449.38         13.5731
   449.52         13.6203
   449.66         13.6703
   449.80         13.7242
   449.94         13.7818
   450.08         13.8402
   450.22         13.8940
   450.36         13.9371
   450.50         13.9652
   450.64         13.9760
   450.78         13.9687
   450.92         13.9431
   451.06         13.8997
   451.20         13.8402
   451.34         13.7672
   451.48         13.6835
   451.62         13.5920
   451.76         13.4958
   451.90         13.3966
   452.04         13.2945
   452.18         13.1898
   452.32         13.0855
   452.46         12.9875
   452.60         12.9033
   452.74         12.8385
   452.88         12.7968
   453.02         12.7797
   453.16         12.7873
   453.30         12.8175
   453.44         12.8653
   453.58         12.9224
   453.72         12.9793
   453.86         13.0272
   454.00         13.0581
   454.14         13.0666
   454.28         13.0511
   454.42         13.0148
   454.56         12.9644
   454.70         12.9093
   454.84         12.8607
   454.98         12.8286
   455.12         12.8187
   455.26         12.8314
   455.40         12.8636
   455.54         12.9111
   455.68         12.9701
   455.82         13.0358
   455.96         13.1022
   456.10         13.1643
   456.24         13.2195
   456.38         13.2680
   456.52         13.3108
   456.66         13.3486
   456.80         13.3811
   456.94         13.4075
   457.08         13.4263
   457.22         13.4351
   457.36         13.4319
   457.50         13.4152
   457.64         13.3848
   457.78         13.3416
   457.92         13.2896
   458.06         13.2347
   458.20         13.1830
   458.34         13.1388
   458.48         13.1046
   458.62         13.0823
   458.76         13.0733
   458.90         13.0769
   459.04         13.0903
   459.18         13.1094
   459.32         13.1299
   459.46         13.1497
   459.60         13.1686
   459.74         13.1887
   459.88         13.2118
   460.02         13.2389
   460.16         13.2689
   460.30         13.2992
   460.44         13.3270
   460.58         13.3500
   460.72         13.3667
   460.86         13.3771
   461.00         13.3816
   461.14         13.3812
   461.28         13.3779
   461.42         13.3734
   461.56         13.3681
   461.70         13.3625
   461.84         13.3577
   461.98         13.3548
   462.12         13.3539
   462.26         13.3538
   462.40         13.3523
   462.54         13.3470
   462.68         13.3362
   462.82         13.3203
   462.96         13.3007
   463.10         13.2792
   463.24         13.2575
   463.38         13.2365
   463.52         13.2167
   463.66         13.1981
   463.80         13.1805
   463.94         13.1639
   464.08         13.1478
   464.22         13.1323
   464.36         13.1180
   464.50         13.1068
   464.64         13.1007
   464.78         13.1015
   464.92         13.1107
   465.06         13.1290
   465.20         13.1559
   465.34         13.1881
   465.48         13.2198
   465.62         13.2443
   465.76         13.2562
   465.90         13.2529
   466.04         13.2349
   466.18         13.2054
   466.32         13.1694
   466.46         13.1330
   466.60         13.1022
   466.74         13.0807
   466.88         13.0693
   467.02         13.0679
   467.16         13.0765
   467.30         13.0951
   467.44         13.1223
   467.58         13.1558
   467.72         13.1930
   467.86         13.2305
   468.00         13.2651
   468.14         13.2952
   468.28         13.3221
   468.42         13.3478
   468.56         13.3731
   468.70         13.3965
   468.84         13.4137
   468.98         13.4193
   469.12         13.4080
   469.26         13.3753
   469.40         13.3199
   469.54         13.2446
   469.68         13.1552
   469.82         13.0598
   469.96         12.9674
   470.10         12.8863
   470.24         12.8226
   470.38         12.7809
   470.52         12.7633
   470.66         12.7699
   470.80         12.7994
   470.94         12.8491
   471.08         12.9142
   471.22         12.9886
   471.36         13.0659
   471.50         13.1399
   471.64         13.2060
   471.78         13.2605
   471.92         13.3011
   472.06         13.3273
   472.20         13.3389
   472.34         13.3359
   472.48         13.3194
   472.62         13.2914
   472.76         13.2543
   472.90         13.2117
   473.04         13.1681
   473.18         13.1284
   473.32         13.0965
   473.46         13.0758
   473.60         13.0679
   473.74         13.0723
   473.88         13.0874
   474.02         13.1104
   474.16         13.1367
   474.30         13.1615
   474.44         13.1805
   474.58         13.1912
   474.72         13.1932
   474.86         13.1871
   475.00         13.1747
   475.14         13.1578
   475.28         13.1391
   475.42         13.1207
   475.56         13.1038
   475.70         13.0885
   475.84         13.0751
   475.98         13.0647
   476.12         13.0579
   476.26         13.0549
   476.40         13.0564
   476.54         13.0636
   476.68         13.0772
   476.82         13.0977
   476.96         13.1246
   477.10         13.1567
   477.24         13.1911
   477.38         13.2238
   477.52         13.2504
   477.66         13.2657
   477.80         13.2656
   477.94         13.2496
   478.08         13.2199
   478.22         13.1810
   478.36         13.1388
   478.50         13.0999
   478.64         13.0693
   478.78         13.0504
   478.92         13.0446
   479.06         13.0518
   479.20         13.0688
   479.34         13.0907
   479.48         13.1116
   479.62         13.1270
   479.76         13.1344
   479.90         13.1331
   480.04         13.1241
   480.18         13.1092
   480.32         13.0917
   480.46         13.0764
   480.60         13.0680
   480.74         13.0689
   480.88         13.0793
   481.02         13.0981
   481.16         13.1228
   481.30         13.1498
   481.44         13.1747
   481.58         13.1925
   481.72         13.1982
   481.86         13.1887
   482.00         13.1645
   482.14         13.1288
   482.28         13.0858
   482.42         13.0393
   482.56         12.9924
   482.70         12.9480
   482.84         12.9088
   482.98         12.8769
   483.12         12.8524
   483.26         12.8334
   483.40         12.8168
   483.54         12.7990
   483.68         12.7778
   483.82         12.7519
   483.96         12.7215
   484.10         12.6878
   484.24         12.6523
   484.38         12.6170
   484.52         12.5843
   484.66         12.5568
   484.80         12.5339
   484.94         12.5115
   485.08         12.4829
   485.22         12.4405
   485.36         12.3750
   485.50         12.2755
   485.64         12.1312
   485.78         11.9343
   485.92         11.6851
   486.06         11.3929
   486.20         11.0756
   486.34         10.7565
   486.48         10.4597
   486.62         10.2061
   486.76         10.0114
   486.90         9.8867
   487.04         9.8385
   487.18         9.8683
   487.32         9.9712
   487.46         10.1362
   487.60         10.3489
   487.74         10.5931
   487.88         10.8520
   488.02         11.1089
   488.16         11.3497
   488.30         11.5654
   488.44         11.7529
   488.58         11.9127
   488.72         12.0460
   488.86         12.1531
   489.00         12.2354
   489.14         12.2973
   489.28         12.3450
   489.42         12.3863
   489.56         12.4298
   489.70         12.4834
   489.84         12.5514
   489.98         12.6334
   490.12         12.7270
   490.26         12.8283
   490.40         12.9322
   490.54         13.0327
   490.68         13.1231
   490.82         13.1973
   490.96         13.2518
   491.10         13.2849
   491.24         13.2967
   491.38         13.2887
   491.52         13.2637
   491.66         13.2248
   491.80         13.1744
   491.94         13.1140
   492.08         13.0465
   492.22         12.9783
   492.36         12.9166
   492.50         12.8674
   492.64         12.8356
   492.78         12.8253
   492.92         12.8374
   493.06         12.8686
   493.20         12.9122
   493.34         12.9595
   493.48         13.0026
   493.62         13.0352
   493.76         13.0536
   493.90         13.0564
   494.04         13.0462
   494.18         13.0278
   494.32         13.0066
   494.46         12.9885
   494.60         12.9784
   494.74         12.9798
   494.88         12.9939
   495.02         13.0181
   495.16         13.0462
   495.30         13.0711
   495.44         13.0864
   495.58         13.0873
   495.72         13.0727
   495.86         13.0453
   496.00         13.0112
   496.14         12.9781
   496.28         12.9535
   496.42         12.9418
   496.56         12.9437
   496.70         12.9569
   496.84         12.9774
   496.98         13.0007
   497.12         13.0231
   497.26         13.0430
   497.40         13.0598
   497.54         13.0732
   497.68         13.0815
   497.82         13.0814
   497.96         13.0699
   498.10         13.0453
   498.24         13.0072
   498.38         12.9580
   498.52         12.9011
   498.66         12.8398
   498.80         12.7762
   498.94         12.7122
   499.08         12.6500
   499.22         12.5921
   499.36         12.5416
   499.50         12.5011
   499.64         12.4723
   499.78         12.4554
   499.92         12.4490
   500.06         12.4499
   500.20         12.4524
   500.34         12.4507
   500.48         12.4406
   500.62         12.4215
   500.76         12.3958
   500.90         12.3664
   501.04         12.3351
   501.18         12.3014
   501.32         12.2642
   501.46         12.2228
   501.60         12.1778
   501.74         12.1308
   501.88         12.0849
   502.02         12.0439
   502.16         12.0127
   502.30         11.9949
   502.44         11.9928
   502.58         12.0073
   502.72         12.0387
   502.86         12.0871
   503.00         12.1509
   503.14         12.2264
   503.28         12.3077
   503.42         12.3868
   503.56         12.4543
   503.70         12.5018
   503.84         12.5242
   503.98         12.5204
   504.12         12.4937
   504.26         12.4501
   504.40         12.3964
   504.54         12.3390
   504.68         12.2838
   504.82         12.2356
   504.96         12.1984
   505.10         12.1751
   505.24         12.1680
   505.38         12.1778
   505.52         12.2031
   505.66         12.2410
   505.80         12.2877
   505.94         12.3394
   506.08         12.3918
   506.22         12.4411
   506.36         12.4844
   506.50         12.5204
   506.64         12.5488
   506.78         12.5697
   506.92         12.5819
   507.06         12.5838
   507.20         12.5751
   507.34         12.5566
   507.48         12.5298
   507.62         12.4950
   507.76         12.4527
   507.90         12.4039
   508.04         12.3512
   508.18         12.2987
   508.32         12.2504
   508.46         12.2107
   508.60         12.1834
   508.74         12.1722
   508.88         12.1799
   509.02         12.2083
   509.16         12.2566
   509.30         12.3204
   509.44         12.3920
   509.58         12.4625
   509.72         12.5241
   509.86         12.5706
   510.00         12.5986
   510.14         12.6068
   510.28         12.5967
   510.42         12.5725
   510.56         12.5395
   510.70         12.5035
   510.84         12.4697
   510.98         12.4424
   511.12         12.4253
   511.26         12.4202
   511.40         12.4262
   511.54         12.4405
   511.68         12.4594
   511.82         12.4789
   511.96         12.4951
   512.10         12.5057
   512.24         12.5098
   512.38         12.5070
   512.52         12.4969
   512.66         12.4788
   512.80         12.4521
   512.94         12.4170
   513.08         12.3749
   513.22         12.3287
   513.36         12.2815
   513.50         12.2353
   513.64         12.1917
   513.78         12.1516
   513.92         12.1149
   514.06         12.0809
   514.20         12.0490
   514.34         12.0190
   514.48         11.9901
   514.62         11.9621
   514.76         11.9349
   514.90         11.9089
   515.04         11.8852
   515.18         11.8655
   515.32         11.8522
   515.46         11.8477
   515.60         11.8533
   515.74         11.8689
   515.88         11.8917
   516.02         11.9172
   516.16         11.9410
   516.30         11.9577
   516.44         11.9609
   516.58         11.9441
   516.72         11.9024
   516.86         11.8333
   517.00         11.7383
   517.14         11.6250
   517.28         11.5044
   517.42         11.3897
   517.56         11.2933
   517.70         11.2241
   517.84         11.1860
   517.98         11.1776
   518.12         11.1934
   518.26         11.2261
   518.40         11.2690
   518.54         11.3164
   518.68         11.3631
   518.82         11.4044
   518.96         11.4365
   519.10         11.4587
   519.24         11.4733
   519.38         11.4852
   519.52         11.5011
   519.66         11.5278
   519.80         11.5704
   519.94         11.6293
   520.08         11.6999
   520.22         11.7739
   520.36         11.8418
   520.50         11.8966
   520.64         11.9366
   520.78         11.9647
   520.92         11.9854
   521.06         12.0025
   521.20         12.0170
   521.34         12.0286
   521.48         12.0374
   521.62         12.0444
   521.76         12.0519
   521.90         12.0616
   522.04         12.0729
   522.18         12.0834
   522.32         12.0888
   522.46         12.0853
   522.60         12.0705
   522.74         12.0439
   522.88         12.0061
   523.02         11.9594
   523.16         11.9087
   523.30         11.8602
   523.44         11.8196
   523.58         11.7910
   523.72         11.7771
   523.86         11.7800
   524.00         11.8005
   524.14         11.8373
   524.28         11.8873
   524.42         11.9451
   524.56         12.0041
   524.70         12.0586
   524.84         12.1049
   524.98         12.1411
   525.12         12.1664
   525.26         12.1806
   525.40         12.1837
   525.54         12.1756
   525.68         12.1571
   525.82         12.1292
   525.96         12.0922
   526.10         12.0449
   526.24         11.9856
   526.38         11.9126
   526.52         11.8256
   526.66         11.7260
   526.80         11.6178
   526.94         11.5071
   527.08         11.4013
   527.22         11.3082
   527.36         11.2349
   527.50         11.1865
   527.64         11.1662
   527.78         11.1746
   527.92         11.2096
   528.06         11.2666
   528.20         11.3398
   528.34         11.4230
   528.48         11.5111
   528.62         11.6001
   528.76         11.6878
   528.90         11.7730
   529.04         11.8551
   529.18         11.9334
   529.32         12.0070
   529.46         12.0748
   529.60         12.1343
   529.74         12.1825
   529.88         12.2172
   530.02         12.2374
   530.16         12.2439
   530.30         12.2387
   530.44         12.2249
   530.58         12.2062
   530.72         12.1866
   530.86         12.1698
   531.00         12.1588
   531.14         12.1549
   531.28         12.1574
   531.42         12.1642
   531.56         12.1725
   531.70         12.1794
   531.84         12.1809
   531.98         12.1732
   532.12         12.1529
   532.26         12.1179
   532.40         12.0673
   532.54         12.0025
   532.68         11.9276
   532.82         11.8486
   532.96         11.7717
   533.10         11.7023
   533.24         11.6443
   533.38         11.6007
   533.52         11.5735
   533.66         11.5629
   533.80         11.5676
   533.94         11.5849
   534.08         11.6115
   534.22         11.6435
   534.36         11.6769
   534.50         11.7077
   534.64         11.7334
   534.78         11.7537
   534.92         11.7696
   535.06         11.7839
   535.20         11.8001
   535.34         11.8216
   535.48         11.8502
   535.62         11.8858
   535.76         11.9263
   535.90         11.9681
   536.04         12.0069
   536.18         12.0391
   536.32         12.0617
   536.46         12.0728
   536.60         12.0718
   536.74         12.0593
   536.88         12.0376
   537.02         12.0096
   537.16         11.9796
   537.30         11.9516
   537.44         11.9291
   537.58         11.9152
   537.72         11.9115
   537.86         11.9183
   538.00         11.9340
   538.14         11.9553
   538.28         11.9784
   538.42         11.9999
   538.56         12.0174
   538.70         12.0298
   538.84         12.0365
   538.98         12.0371
   539.12         12.0316
   539.26         12.0206
   539.40         12.0049
   539.54         11.9861
   539.68         11.9657
   539.82         11.9444
   539.96         11.9212
   540.10         11.8949
   540.24         11.8649
   540.38         11.8321
   540.52         11.7978
   540.66         11.7636
   540.80         11.7313
   540.94         11.7031
   541.08         11.6806
   541.22         11.6648
   541.36         11.6579
   541.50         11.6617
   541.64         11.6776
   541.78         11.7055
   541.92         11.7437
   542.06         11.7891
   542.20         11.8374
   542.34         11.8832
   542.48         11.9212
   542.62         11.9472
   542.76         11.9590
   542.90         11.9571
   543.04         11.9432
   543.18         11.9201
   543.32         11.8917
   543.46         11.8634
   543.60         11.8414
   543.74         11.8317
   543.88         11.8385
   544.02         11.8628
   544.16         11.9004
   544.30         11.9440
   544.44         11.9866
   544.58         12.0226
   544.72         12.0487
   544.86         12.0630
   545.00         12.0645
   545.14         12.0531
   545.28         12.0309
   545.42         12.0024
   545.56         11.9727
   545.70         11.9457
   545.84         11.9236
   545.98         11.9067
   546.12         11.8939
   546.26         11.8836
   546.40         11.8738
   546.54         11.8631
   546.68         11.8508
   546.82         11.8376
   546.96         11.8249
   547.10         11.8141
   547.24         11.8060
   547.38         11.7999
   547.52         11.7945
   547.66         11.7894
   547.80         11.7857
   547.94         11.7850
   548.08         11.7881
   548.22         11.7943
   548.36         11.8018
   548.50         11.8096
   548.64         11.8180
   548.78         11.8284
   548.92         11.8418
   549.06         11.8589
   549.20         11.8791
   549.34         11.9010
   549.48         11.9223
   549.62         11.9407
   549.76         11.9546
   549.90         11.9633
   550.04         11.9676
   550.18         11.9682
   550.32         11.9660
   550.46         11.9615
   550.60         11.9550
   550.74         11.9473
   550.88         11.9393
   551.02         11.9319
   551.16         11.9256
   551.30         11.9207
   551.44         11.9180
   551.58         11.9185
   551.72         11.9224
   551.86         11.9288
   552.00         11.9364
   552.14         11.9429
   552.28         11.9455
   552.42         11.9415
   552.56         11.9293
   552.70         11.9091
   552.84         11.8827
   552.98         11.8527
   553.12         11.8223
   553.26         11.7948
   553.40         11.7731
   553.54         11.7596
   553.68         11.7553
   553.82         11.7607
   553.96         11.7762
   554.10         11.8007
   554.24         11.8309
   554.38         11.8621
   554.52         11.8899
   554.66         11.9113
   554.80         11.9244
   554.94         11.9290
   555.08         11.9263
   555.22         11.9189
   555.36         11.9099
   555.50         11.9015
   555.64         11.8946
   555.78         11.8895
   555.92         11.8859
   556.06         11.8833
   556.20         11.8799
   556.34         11.8737
   556.48         11.8627
   556.62         11.8454
   556.76         11.8204
   556.90         11.7876
   557.04         11.7483
   557.18         11.7049
   557.32         11.6606
   557.46         11.6188
   557.60         11.5822
   557.74         11.5533
   557.88         11.5347
   558.02         11.5278
   558.16         11.5322
   558.30         11.5455
   558.44         11.5634
   558.58         11.5802
   558.72         11.5898
   558.86         11.5880
   559.00         11.5725
   559.14         11.5435
   559.28         11.5024
   559.42         11.4519
   559.56         11.3963
   559.70         11.3394
   559.84         11.2849
   559.98         11.2359
   560.12         11.1949
   560.26         11.1638
   560.40         11.1445
   560.54         11.1381
   560.68         11.1442
   560.82         11.1607
   560.96         11.1846
   561.10         11.2129
   561.24         11.2426
   561.38         11.2716
   561.52         11.2979
   561.66         11.3191
   561.80         11.3330
   561.94         11.3383
   562.08         11.3347
   562.22         11.3226
   562.36         11.3032
   562.50         11.2800
   562.64         11.2581
   562.78         11.2422
   562.92         11.2355
   563.06         11.2385
   563.20         11.2500
   563.34         11.2666
   563.48         11.2840
   563.62         11.2975
   563.76         11.3039
   563.90         11.3015
   564.04         11.2910
   564.18         11.2745
   564.32         11.2550
   564.46         11.2347
   564.60         11.2156
   564.74         11.1984
   564.88         11.1835
   565.02         11.1713
   565.16         11.1620
   565.30         11.1539
   565.44         11.1435
   565.58         11.1281
   565.72         11.1063
   565.86         11.0784
   566.00         11.0459
   566.14         11.0115
   566.28         10.9790
   566.42         10.9525
   566.56         10.9357
   566.70         10.9315
   566.84         10.9423
   566.98         10.9679
   567.12         11.0064
   567.26         11.0544
   567.40         11.1083
   567.54         11.1637
   567.68         11.2163
   567.82         11.2615
   567.96         11.2952
   568.10         11.3150
   568.24         11.3204
   568.38         11.3120
   568.52         11.2913
   568.66         11.2613
   568.80         11.2258
   568.94         11.1885
   569.08         11.1534
   569.22         11.1250
   569.36         11.1075
   569.50         11.1041
   569.64         11.1148
   569.78         11.1375
   569.92         11.1684
   570.06         11.2035
   570.20         11.2387
   570.34         11.2696
   570.48         11.2915
   570.62         11.2997
   570.76         11.2906
   570.90         11.2626
   571.04         11.2170
   571.18         11.1583
   571.32         11.0936
   571.46         11.0294
   571.60         10.9711
   571.74         10.9241
   571.88         10.8929
   572.02         10.8803
   572.16         10.8874
   572.30         10.9126
   572.44         10.9527
   572.58         11.0039
   572.72         11.0620
   572.86         11.1223
   573.00         11.1791
   573.14         11.2279
   573.28         11.2662
   573.42         11.2937
   573.56         11.3113
   573.70         11.3217
   573.84         11.3275
   573.98         11.3302
   574.12         11.3306
   574.26         11.3303
   574.40         11.3314
   574.54         11.3357
   574.68         11.3435
   574.82         11.3538
   574.96         11.3635
   575.10         11.3695
   575.24         11.3690
   575.38         11.3606
   575.52         11.3440
   575.66         11.3202
   575.80         11.2907
   575.94         11.2571
   576.08         11.2210
   576.22         11.1846
   576.36         11.1513
   576.50         11.1240
   576.64         11.1045
   576.78         11.0938
   576.92         11.0910
   577.06         11.0940
   577.20         11.0999
   577.34         11.1058
   577.48         11.1096
   577.62         11.1104
   577.76         11.1076
   577.90         11.1011
   578.04         11.0917
   578.18         11.0801
   578.32         11.0666
   578.46         11.0516
   578.60         11.0363
   578.74         11.0226
   578.88         11.0130
   579.02         11.0091
   579.16         11.0117
   579.30         11.0208
   579.44         11.0357
   579.58         11.0546
   579.72         11.0762
   579.86         11.1002
   580.00         11.1261
   580.14         11.1530
   580.28         11.1794
   580.42         11.2028
   580.56         11.2219
   580.70         11.2361
   580.84         11.2449
   580.98         11.2483
   581.12         11.2472
   581.26         11.2433
   581.40         11.2372
   581.54         11.2296
   581.68         11.2219
   581.82         11.2147
   581.96         11.2083
   582.10         11.2022
   582.24         11.1968
   582.38         11.1937
   582.52         11.1951
   582.66         11.2021
   582.80         11.2148
   582.94         11.2318
   583.08         11.2520
   583.22         11.2740
   583.36         11.2958
   583.50         11.3149
   583.64         11.3294
   583.78         11.3384
   583.92         11.3413
   584.06         11.3376
   584.20         11.3282
   584.34         11.3143
   584.48         11.2967
   584.62         11.2774
   584.76         11.2590
   584.90         11.2431
   585.04         11.2298
   585.18         11.2173
   585.32         11.2026
   585.46         11.1836
   585.60         11.1604
   585.74         11.1341
   585.88         11.1065
   586.02         11.0795
   586.16         11.0554
   586.30         11.0369
   586.44         11.0256
   586.58         11.0220
   586.72         11.0258
   586.86         11.0356
   587.00         11.0491
   587.14         11.0639
   587.28         11.0777
   587.42         11.0881
   587.56         11.0933
   587.70         11.0926
   587.84         11.0858
   587.98         11.0738
   588.12         11.0580
   588.26         11.0395
   588.40         11.0175
   588.54         10.9895
   588.68         10.9529
   588.82         10.9059
   588.96         10.8477
   589.10         10.7792
   589.24         10.7029
   589.38         10.6223
   589.52         10.5418
   589.66         10.4674
   589.80         10.4055
   589.94         10.3617
   590.08         10.3392
   590.22         10.3398
   590.36         10.3631
   590.50         10.4071
   590.64         10.4679
   590.78         10.5403
   590.92         10.6180
   591.06         10.6939
   591.20         10.7630
   591.34         10.8224
   591.48         10.8701
   591.62         10.9047
   591.76         10.9256
   591.90         10.9330
   592.04         10.9284
   592.18         10.9145
   592.32         10.8948
   592.46         10.8724
   592.60         10.8504
   592.74         10.8315
   592.88         10.8181
   593.02         10.8113
   593.16         10.8104
   593.30         10.8141
   593.44         10.8220
   593.58         10.8334
   593.72         10.8464
   593.86         10.8585
   594.00         10.8663
   594.14         10.8664
   594.28         10.8567
   594.42         10.8378
   594.56         10.8120
   594.70         10.7818
   594.84         10.7495
   594.98         10.7166
   595.12         10.6846
   595.26         10.6555
   595.40         10.6304
   595.54         10.6101
   595.68         10.5953
   595.82         10.5867
   595.96         10.5855
   596.10         10.5918
   596.24         10.6037
   596.38         10.6180
   596.52         10.6318
   596.66         10.6433
   596.80         10.6506
   596.94         10.6530
   597.08         10.6500
   597.22         10.6404
   597.36         10.6222
   597.50         10.5951
   597.64         10.5604
   597.78         10.5207
   597.92         10.4787
   598.06         10.4365
   598.20         10.3965
   598.34         10.3616
   598.48         10.3346
   598.62         10.3170
   598.76         10.3088
   598.90         10.3095
   599.04         10.3186
   599.18         10.3356
   599.32         10.3590
   599.46         10.3858
   599.60         10.4118
   599.74         10.4332
   599.88         10.4464
   600.02         10.4486
   600.16         10.4394
   600.30         10.4202
   600.44         10.3934
   600.58         10.3622
   600.72         10.3303
   600.86         10.3011
   601.00         10.2778
   601.14         10.2621
   601.28         10.2545
   601.42         10.2554
   601.56         10.2636
   601.70         10.2752
   601.84         10.2853
   601.98         10.2899
   602.12         10.2859
   602.26         10.2723
   602.40         10.2512
   602.54         10.2261
   602.68         10.2012
   602.82         10.1806
   602.96         10.1670
   603.10         10.1619
   603.24         10.1652
   603.38         10.1768
   603.52         10.1959
   603.66         10.2219
   603.80         10.2531
   603.94         10.2868
   604.08         10.3196
   604.22         10.3474
   604.36         10.3671
   604.50         10.3783
   604.64         10.3826
   604.78         10.3815
   604.92         10.3769
   605.06         10.3708
   605.20         10.3632
   605.34         10.3534
   605.48         10.3410
   605.62         10.3268
   605.76         10.3125
   605.90         10.3001
   606.04         10.2921
   606.18         10.2897
   606.32         10.2926
   606.46         10.2991
   606.60         10.3069
   606.74         10.3144
   606.88         10.3203
   607.02         10.3243
   607.16         10.3263
   607.30         10.3265
   607.44         10.3247
   607.58         10.3206
   607.72         10.3134
   607.86         10.3031
   608.00         10.2906
   608.14         10.2774
   608.28         10.2643
   608.42         10.2514
   608.56         10.2379
   608.70         10.2222
   608.84         10.2017
   608.98         10.1742
   609.12         10.1393
   609.26         10.0986
   609.40         10.0549
   609.54         10.0117
   609.68         9.9724
   609.82         9.9401
   609.96         9.9172
   610.10         9.9047
   610.24         9.9024
   610.38         9.9097
   610.52         9.9254
   610.66         9.9474
   610.80         9.9722
   610.94         9.9961
   611.08         10.0158
   611.22         10.0287
   611.36         10.0338
   611.50         10.0312
   611.64         10.0228
   611.78         10.0110
   611.92         9.9984
   612.06         9.9873
   612.20         9.9792
   612.34         9.9732
   612.48         9.9669
   612.62         9.9580
   612.76         9.9451
   612.90         9.9271
   613.04         9.9036
   613.18         9.8752
   613.32         9.8433
   613.46         9.8103
   613.60         9.7791
   613.74         9.7530
   613.88         9.7348
   614.02         9.7260
   614.16         9.7267
   614.30         9.7354
   614.44         9.7497
   614.58         9.7668
   614.72         9.7843
   614.86         9.7988
   615.00         9.8071
   615.14         9.8079
   615.28         9.8018
   615.42         9.7898
   615.56         9.7728
   615.70         9.7517
   615.84         9.7283
   615.98         9.7049
   616.12         9.6843
   616.26         9.6684
   616.40         9.6585
   616.54         9.6556
   616.68         9.6600
   616.82         9.6712
   616.96         9.6882
   617.10         9.7104
   617.24         9.7370
   617.38         9.7665
   617.52         9.7962
   617.66         9.8239
   617.80         9.8477
   617.94         9.8657
   618.08         9.8772
   618.22         9.8826
   618.36         9.8837
   618.50         9.8826
   618.64         9.8818
   618.78         9.8828
   618.92         9.8865
   619.06         9.8936
   619.20         9.9048
   619.34         9.9200
   619.48         9.9387
   619.62         9.9606
   619.76         9.9849
   619.90         10.0105
   620.04         10.0353
   620.18         10.0569
   620.32         10.0726
   620.46         10.0805
   620.60         10.0798
   620.74         10.0707
   620.88         10.0543
   621.02         10.0311
   621.16         10.0024
   621.30         9.9703
   621.44         9.9373
   621.58         9.9060
   621.72         9.8780
   621.86         9.8537
   622.00         9.8319
   622.14         9.8118
   622.28         9.7932
   622.42         9.7757
   622.56         9.7587
   622.70         9.7412
   622.84         9.7232
   622.98         9.7056
   623.12         9.6902
   623.26         9.6786
   623.40         9.6714
   623.54         9.6685
   623.68         9.6703
   623.82         9.6771
   623.96         9.6884
   624.10         9.7023
   624.24         9.7159
   624.38         9.7260
   624.52         9.7306
   624.66         9.7298
   624.80         9.7251
   624.94         9.7177
   625.08         9.7072
   625.22         9.6919
   625.36         9.6708
   625.50         9.6453
   625.64         9.6178
   625.78         9.5909
   625.92         9.5671
   626.06         9.5490
   626.20         9.5388
   626.34         9.5381
   626.48         9.5462
   626.62         9.5604
   626.76         9.5766
   626.90         9.5911
   627.04         9.6012
   627.18         9.6060
   627.32         9.6051
   627.46         9.5991
   627.60         9.5890
   627.74         9.5769
   627.88         9.5661
   628.02         9.5605
   628.16         9.5633
   628.30         9.5750
   628.44         9.5941
   628.58         9.6177
   628.72         9.6420
   628.86         9.6627
   629.00         9.6757
   629.14         9.6783
   629.28         9.6700
   629.42         9.6526
   629.56         9.6293
   629.70         9.6040
   629.84         9.5807
   629.98         9.5626
   630.12         9.5518
   630.26         9.5483
   630.40         9.5503
   630.54         9.5552
   630.68         9.5602
   630.82         9.5632
   630.96         9.5626
   631.10         9.5580
   631.24         9.5498
   631.38         9.5392
   631.52         9.5288
   631.66         9.5216
   631.80         9.5208
   631.94         9.5282
   632.08         9.5439
   632.22         9.5664
   632.36         9.5934
   632.50         9.6215
   632.64         9.6470
   632.78         9.6663
   632.92         9.6768
   633.06         9.6773
   633.20         9.6677
   633.34         9.6490
   633.48         9.6227
   633.62         9.5914
   633.76         9.5576
   633.90         9.5242
   634.04         9.4945
   634.18         9.4711
   634.32         9.4552
   634.46         9.4468
   634.60         9.4451
   634.74         9.4491
   634.88         9.4581
   635.02         9.4712
   635.16         9.4874
   635.30         9.5053
   635.44         9.5236
   635.58         9.5411
   635.72         9.5564
   635.86         9.5678
   636.00         9.5745
   636.14         9.5765
   636.28         9.5748
   636.42         9.5709
   636.56         9.5661
   636.70         9.5614
   636.84         9.5566
   636.98         9.5510
   637.12         9.5448
   637.26         9.5389
   637.40         9.5341
   637.54         9.5309
   637.68         9.5286
   637.82         9.5266
   637.96         9.5244
   638.10         9.5212
   638.24         9.5163
   638.38         9.5091
   638.52         9.5002
   638.66         9.4908
   638.80         9.4817
   638.94         9.4734
   639.08         9.4662
   639.22         9.4604
   639.36         9.4559
   639.50         9.4528
   639.64         9.4519
   639.78         9.4538
   639.92         9.4584
   640.06         9.4646
   640.20         9.4707
   640.34         9.4754
   640.48         9.4776
   640.62         9.4763
   640.76         9.4709
   640.90         9.4612
   641.04         9.4481
   641.18         9.4328
   641.32         9.4163
   641.46         9.3996
   641.60         9.3843
   641.74         9.3717
   641.88         9.3620
   642.02         9.3551
   642.16         9.3510
   642.30         9.3499
   642.44         9.3517
   642.58         9.3553
   642.72         9.3598
   642.86         9.3643
   643.00         9.3688
   643.14         9.3737
   643.28         9.3793
   643.42         9.3854
   643.56         9.3911
   643.70         9.3957
   643.84         9.3982
   643.98         9.3984
   644.12         9.3958
   644.26         9.3906
   644.40         9.3826
   644.54         9.3718
   644.68         9.3592
   644.82         9.3457
   644.96         9.3314
   645.10         9.3153
   645.24         9.2973
   645.38         9.2788
   645.52         9.2617
   645.66         9.2472
   645.80         9.2356
   645.94         9.2265
   646.08         9.2194
   646.22         9.2144
   646.36         9.2119
   646.50         9.2127
   646.64         9.2173
   646.78         9.2251
   646.92         9.2347
   647.06         9.2448
   647.20         9.2548
   647.34         9.2647
   647.48         9.2747
   647.62         9.2845
   647.76         9.2936
   647.90         9.3021
   648.04         9.3094
   648.18         9.3135
   648.32         9.3124
   648.46         9.3046
   648.60         9.2901
   648.74         9.2699
   648.88         9.2461
   649.02         9.2218
   649.16         9.2002
   649.30         9.1842
   649.44         9.1755
   649.58         9.1756
   649.72         9.1856
   649.86         9.2056
   650.00         9.2345
   650.14         9.2697
   650.28         9.3071
   650.42         9.3425
   650.56         9.3728
   650.70         9.3963
   650.84         9.4123
   650.98         9.4216
   651.12         9.4257
   651.26         9.4265
   651.40         9.4261
   651.54         9.4260
   651.68         9.4277
   651.82         9.4317
   651.96         9.4381
   652.10         9.4464
   652.24         9.4560
   652.38         9.4661
   652.52         9.4756
   652.66         9.4837
   652.80         9.4897
   652.94         9.4926
   653.08         9.4924
   653.22         9.4893
   653.36         9.4826
   653.50         9.4710
   653.64         9.4527
   653.78         9.4270
   653.92         9.3937
   654.06         9.3534
   654.20         9.3065
   654.34         9.2530
   654.48         9.1926
   654.62         9.1232
   654.76         9.0411
   654.90         8.9396
   655.04         8.8116
   655.18         8.6536
   655.32         8.4687
   655.46         8.2659
   655.60         8.0582
   655.74         7.8604
   655.88         7.6880
   656.02         7.5556
   656.16         7.4748
   656.30         7.4532
   656.44         7.4933
   656.58         7.5919
   656.72         7.7399
   656.86         7.9239
   657.00         8.1276
   657.14         8.3337
   657.28         8.5257
   657.42         8.6902
   657.56         8.8201
   657.70         8.9161
   657.84         8.9845
   657.98         9.0327
   658.12         9.0661
   658.26         9.0884
   658.40         9.1029
   658.54         9.1128
   658.68         9.1202
   658.82         9.1276
   658.96         9.1367
   659.10         9.1488
   659.24         9.1646
   659.38         9.1835
   659.52         9.2046
   659.66         9.2269
   659.80         9.2491
   659.94         9.2705
   660.08         9.2899
   660.22         9.3065
   660.36         9.3196
   660.50         9.3286
   660.64         9.3330
   660.78         9.3330
   660.92         9.3296
   661.06         9.3235
   661.20         9.3152
   661.34         9.3049
   661.48         9.2930
   661.62         9.2803
   661.76         9.2677
   661.90         9.2552
   662.04         9.2425
   662.18         9.2295
   662.32         9.2168
   662.46         9.2052
   662.60         9.1954
   662.74         9.1876
   662.88         9.1817
   663.02         9.1771
   663.16         9.1728
   663.30         9.1681
   663.44         9.1629
   663.58         9.1579
   663.72         9.1537
   663.86         9.1504
   664.00         9.1479
   664.14         9.1465
   664.28         9.1454
   664.42         9.1434
   664.56         9.1397
   664.70         9.1337
   664.84         9.1255
   664.98         9.1146
   665.12         9.0999
   665.26         9.0811
   665.40         9.0587
   665.54         9.0338
   665.68         9.0085
   665.82         8.9852
   665.96         8.9660
   666.10         8.9518
   666.24         8.9426
   666.38         8.9375
   666.52         8.9351
   666.66         8.9346
   666.80         8.9354
   666.94         8.9371
   667.08         8.9394
   667.22         8.9418
   667.36         8.9438
   667.50         8.9455
   667.64         8.9471
   667.78         8.9497
   667.92         8.9541
   668.06         8.9602
   668.20         8.9674
   668.34         8.9744
   668.48         8.9799
   668.62         8.9829
   668.76         8.9833
   668.90         8.9820
   669.04         8.9797
   669.18         8.9767
   669.32         8.9733
   669.46         8.9694
   669.60         8.9647
   669.74         8.9588
   669.88         8.9513
   670.02         8.9421
   670.16         8.9310
   670.30         8.9181
   670.44         8.9033
   670.58         8.8867
   670.72         8.8685
   670.86         8.8494
   671.00         8.8302
   671.14         8.8121
   671.28         8.7958
   671.42         8.7821
   671.56         8.7712
   671.70         8.7633
   671.84         8.7591
   671.98         8.7596
   672.12         8.7654
   672.26         8.7761
   672.40         8.7909
   672.54         8.8089
   672.68         8.8289
   672.82         8.8493
   672.96         8.8686
   673.10         8.8853
   673.24         8.8985
   673.38         8.9080
   673.52         8.9137
   673.66         8.9152
   673.80         8.9120
   673.94         8.9042
   674.08         8.8928
   674.22         8.8789
   674.36         8.8639
   674.50         8.8489
   674.64         8.8348
   674.78         8.8225
   674.92         8.8124
   675.06         8.8053
   675.20         8.8017
   675.34         8.8006
   675.48         8.8011
   675.62         8.8023
   675.76         8.8037
   675.90         8.8044
   676.04         8.8032
   676.18         8.7993
   676.32         8.7926
   676.46         8.7838
   676.60         8.7747
   676.74         8.7669
   676.88         8.7610
   677.02         8.7569
   677.16         8.7543
   677.30         8.7528
   677.44         8.7521
   677.58         8.7524
   677.72         8.7540
   677.86         8.7567
   678.00         8.7604
   678.14         8.7650
   678.28         8.7705
   678.42         8.7761
   678.56         8.7806
   678.70         8.7835
   678.84         8.7848
   678.98         8.7851
   679.12         8.7846
   679.26         8.7839
   679.40         8.7829
   679.54         8.7817
   679.68         8.7805
   679.82         8.7800
   679.96         8.7809
   680.10         8.7837
   680.24         8.7881
   680.38         8.7928
   680.52         8.7962
   680.66         8.7968
   680.80         8.7937
   680.94         8.7867
   681.08         8.7771
   681.22         8.7666
   681.36         8.7570
   681.50         8.7489
   681.64         8.7421
   681.78         8.7361
   681.92         8.7310
   682.06         8.7272
   682.20         8.7250
   682.34         8.7246
   682.48         8.7258
   682.62         8.7278
   682.76         8.7293
   682.90         8.7286
   683.04         8.7242
   683.18         8.7156
   683.32         8.7027
   683.46         8.6862
   683.60         8.6673
   683.74         8.6474
   683.88         8.6277
   684.02         8.6095
   684.16         8.5938
   684.30         8.5816
   684.44         8.5736
   684.58         8.5696
   684.72         8.5684
   684.86         8.5680
   685.00         8.5660
   685.14         8.5608
   685.28         8.5506
   685.42         8.5326
   685.56         8.5018
   685.70         8.4511
   685.84         8.3740
   685.98         8.2667
   686.12         8.1289
   686.26         7.9642
   686.40         7.7794
   686.54         7.5843
   686.68         7.3906
   686.82         7.2106
   686.96         7.0569
   687.10         6.9414
   687.24         6.8722
   687.38         6.8521
   687.52         6.8783
   687.66         6.9436
   687.80         7.0365
   687.94         7.1433
   688.08         7.2499
   688.22         7.3444
   688.36         7.4200
   688.50         7.4755
   688.64         7.5135
   688.78         7.5383
   688.92         7.5549
   689.06         7.5686
   689.20         7.5841
   689.34         7.6046
   689.48         7.6319
   689.62         7.6661
   689.76         7.7051
   689.90         7.7454
   690.04         7.7838
   690.18         7.8182
   690.32         7.8476
   690.46         7.8724
   690.60         7.8937
   690.74         7.9129
   690.88         7.9313
   691.02         7.9505
   691.16         7.9709
   691.30         7.9926
   691.44         8.0156
   691.58         8.0400
   691.72         8.0657
   691.86         8.0918
   692.00         8.1172
   692.14         8.1410
   692.28         8.1623
   692.42         8.1806
   692.56         8.1963
   692.70         8.2101
   692.84         8.2222
   692.98         8.2330
   693.12         8.2426
   693.26         8.2505
   693.40         8.2562
   693.54         8.2594
   693.68         8.2598
   693.82         8.2575
   693.96         8.2532
   694.10         8.2485
   694.24         8.2446
   694.38         8.2423
   694.52         8.2414
   694.66         8.2420
   694.80         8.2438
   694.94         8.2464
   695.08         8.2494
   695.22         8.2522
   695.36         8.2545
   695.50         8.2564
   695.64         8.2588
   695.78         8.2627
   695.92         8.2695
   696.06         8.2801
   696.20         8.2951
   696.34         8.3145
   696.48         8.3369
   696.62         8.3599
   696.76         8.3804
   696.90         8.3956
   697.04         8.4036
   697.18         8.4043
   697.32         8.3984
   697.46         8.3872
   697.60         8.3719
   697.74         8.3544
   697.88         8.3369
   698.02         8.3211
   698.16         8.3078
   698.30         8.2970
   698.44         8.2885
   698.58         8.2822
   698.72         8.2780
   698.86         8.2756
   699.00         8.2740
   699.14         8.2720
   699.28         8.2684
   699.42         8.2631
   699.56         8.2566
   699.70         8.2500
   699.84         8.2438
   699.98         8.2382
   700.12         8.2332
   700.26         8.2288
   700.40         8.2247
   700.54         8.2201
   700.68         8.2144
   700.82         8.2081
   700.96         8.2022
   701.10         8.1976
   701.24         8.1941
   701.38         8.1909
   701.52         8.1865
   701.66         8.1801
   701.80         8.1719
   701.94         8.1629
   702.08         8.1535
   702.22         8.1441
   702.36         8.1353
   702.50         8.1272
   702.64         8.1196
   702.78         8.1126
   702.92         8.1061
   703.06         8.1009
   703.20         8.0984
   703.34         8.0999
   703.48         8.1063
   703.62         8.1172
   703.76         8.1311
   703.90         8.1463
   704.04         8.1606
   704.18         8.1724
   704.32         8.1803
   704.46         8.1840
   704.60         8.1832
   704.74         8.1786
   704.88         8.1719
   705.02         8.1649
   705.16         8.1593
   705.30         8.1559
   705.44         8.1554
   705.58         8.1579
   705.72         8.1627
   705.86         8.1688
   706.00         8.1751
   706.14         8.1800
   706.28         8.1821
   706.42         8.1803
   706.56         8.1739
   706.70         8.1629
   706.84         8.1483
   706.98         8.1317
   707.12         8.1149
   707.26         8.0990
   707.40         8.0845
   707.54         8.0714
   707.68         8.0600
   707.82         8.0503
   707.96         8.0426
   708.10         8.0373
   708.24         8.0346
   708.38         8.0348
   708.52         8.0375
   708.66         8.0417
   708.80         8.0466
   708.94         8.0518
   709.08         8.0569
   709.22         8.0618
   709.36         8.0672
   709.50         8.0740
   709.64         8.0821
   709.78         8.0906
   709.92         8.0984
   710.06         8.1044
   710.20         8.1085
   710.34         8.1106
   710.48         8.1112
   710.62         8.1112
   710.76         8.1117
   710.90         8.1135
   711.04         8.1160
   711.18         8.1187
   711.32         8.1219
   711.46         8.1269
   711.60         8.1349
   711.74         8.1466
   711.88         8.1609
   712.02         8.1765
   712.16         8.1915
   712.30         8.2040
   712.44         8.2132
   712.58         8.2195
   712.72         8.2237
   712.86         8.2263
   713.00         8.2273
   713.14         8.2267
   713.28         8.2241
   713.42         8.2185
   713.56         8.2090
   713.70         8.1951
   713.84         8.1780
   713.98         8.1600
   714.12         8.1436
   714.26         8.1302
   714.40         8.1207
   714.54         8.1157
   714.68         8.1159
   714.82         8.1214
   714.96         8.1312
   715.10         8.1434
   715.24         8.1551
   715.38         8.1623
   715.52         8.1618
   715.66         8.1515
   715.80         8.1302
   715.94         8.0979
   716.08         8.0556
   716.22         8.0055
   716.36         7.9508
   716.50         7.8950
   716.64         7.8415
   716.78         7.7932
   716.92         7.7514
   717.06         7.7163
   717.20         7.6864
   717.34         7.6590
   717.48         7.6315
   717.62         7.6024
   717.76         7.5714
   717.90         7.5387
   718.04         7.5043
   718.18         7.4693
   718.32         7.4356
   718.46         7.4055
   718.60         7.3810
   718.74         7.3630
   718.88         7.3519
   719.02         7.3475
   719.16         7.3496
   719.30         7.3574
   719.44         7.3691
   719.58         7.3832
   719.72         7.4003
   719.86         7.4217
   720.00         7.4496
   720.14         7.4858
   720.28         7.5318
   720.42         7.5869
   720.56         7.6489
   720.70         7.7151
   720.84         7.7831
   720.98         7.8499
   721.12         7.9117
   721.26         7.9652
   721.40         8.0075
   721.54         8.0372
   721.68         8.0542
   721.82         8.0597
   721.96         8.0547
   722.10         8.0407
   722.24         8.0187
   722.38         7.9902
   722.52         7.9561
   722.66         7.9171
   722.80         7.8735
   722.94         7.8264
   723.08         7.7773
   723.22         7.7281
   723.36         7.6816
   723.50         7.6404
   723.64         7.6075
   723.78         7.5849
   723.92         7.5731
   724.06         7.5709
   724.20         7.5766
   724.34         7.5886
   724.48         7.6050
   724.62         7.6233
   724.76         7.6415
   724.90         7.6583
   725.04         7.6728
   725.18         7.6839
   725.32         7.6900
   725.46         7.6904
   725.60         7.6864
   725.74         7.6803
   725.88         7.6739
   726.02         7.6684
   726.16         7.6637
   726.30         7.6587
   726.44         7.6515
   726.58         7.6407
   726.72         7.6262
   726.86         7.6097
   727.00         7.5935
   727.14         7.5796
   727.28         7.5701
   727.42         7.5663
   727.56         7.5678
   727.70         7.5725
   727.84         7.5778
   727.98         7.5814
   728.12         7.5813
   728.26         7.5763
   728.40         7.5652
   728.54         7.5480
   728.68         7.5255
   728.82         7.4995
   728.96         7.4724
   729.10         7.4477
   729.24         7.4290
   729.38         7.4194
   729.52         7.4202
   729.66         7.4305
   729.80         7.4470
   729.94         7.4658
   730.08         7.4831
   730.22         7.4959
   730.36         7.5032
   730.50         7.5054
   730.64         7.5040
   730.78         7.5007
   730.92         7.4978
   731.06         7.4978
   731.20         7.5019
   731.34         7.5104
   731.48         7.5228
   731.62         7.5381
   731.76         7.5545
   731.90         7.5696
   732.04         7.5811
   732.18         7.5875
   732.32         7.5887
   732.46         7.5854
   732.60         7.5791
   732.74         7.5716
   732.88         7.5642
   733.02         7.5575
   733.16         7.5516
   733.30         7.5470
   733.44         7.5441
   733.58         7.5432
   733.72         7.5443
   733.86         7.5469
   734.00         7.5500
   734.14         7.5529
   734.28         7.5543
   734.42         7.5527
   734.56         7.5475
   734.70         7.5396
   734.84         7.5302
   734.98         7.5200
   735.12         7.5094
   735.26         7.4988
   735.40         7.4890
   735.54         7.4804
   735.68         7.4733
   735.82         7.4671
   735.96         7.4615
   736.10         7.4559
   736.24         7.4502
   736.38         7.4444
   736.52         7.4379
   736.66         7.4307
   736.80         7.4229
   736.94         7.4146
   737.08         7.4066
   737.22         7.3997
   737.36         7.3940
   737.50         7.3885
   737.64         7.3813
   737.78         7.3703
   737.92         7.3544
   738.06         7.3331
   738.20         7.3068
   738.34         7.2764
   738.48         7.2425
   738.62         7.2067
   738.76         7.1713
   738.90         7.1383
   739.04         7.1088
   739.18         7.0837
   739.32         7.0636
   739.46         7.0480
   739.60         7.0362
   739.74         7.0267
   739.88         7.0181
   740.02         7.0089
   740.16         6.9982
   740.30         6.9862
   740.44         6.9736
   740.58         6.9614
   740.72         6.9502
   740.86         6.9401
   741.00         6.9309
   741.14         6.9220
   741.28         6.9135
   741.42         6.9053
   741.56         6.8978
   741.70         6.8911
   741.84         6.8859
   741.98         6.8822
   742.12         6.8797
   742.26         6.8780
   742.40         6.8768
   742.54         6.8761
   742.68         6.8757
   742.82         6.8755
   742.96         6.8755
   743.10         6.8757
   743.24         6.8761
   743.38         6.8768
   743.52         6.8780
   743.66         6.8797
   743.80         6.8822
   743.94         6.8859
   744.08         6.8911
   744.22         6.8978
