# File HD64191
# Wavelength [nm]    Normalized Amplitude
   349.70         5.3702
   349.84         5.3860
   349.98         5.4116
   350.12         5.4427
   350.26         5.4765
   350.40         5.5108
   350.54         5.5434
   350.68         5.5716
   350.82         5.5926
   350.96         5.6049
   351.10         5.6088
   351.24         5.6049
   351.38         5.5926
   351.52         5.5716
   351.66         5.5434
   351.80         5.5108
   351.94         5.4765
   352.08         5.4427
   352.22         5.4116
   352.36         5.3860
   352.50         5.3702
   352.64         5.3682
   352.78         5.3827
   352.92         5.4148
   353.06         5.4630
   353.20         5.5234
   353.34         5.5904
   353.48         5.6594
   353.62         5.7265
   353.76         5.7887
   353.90         5.8424
   354.04         5.8843
   354.18         5.9120
   354.32         5.9257
   354.46         5.9276
   354.60         5.9206
   354.74         5.9079
   354.88         5.8922
   355.02         5.8751
   355.16         5.8570
   355.30         5.8372
   355.44         5.8142
   355.58         5.7860
   355.72         5.7511
   355.86         5.7081
   356.00         5.6565
   356.14         5.5970
   356.28         5.5319
   356.42         5.4649
   356.56         5.3996
   356.70         5.3391
   356.84         5.2869
   356.98         5.2459
   357.12         5.2161
   357.26         5.1952
   357.40         5.1799
   357.54         5.1678
   357.68         5.1573
   357.82         5.1476
   357.96         5.1386
   358.10         5.1323
   358.24         5.1310
   358.38         5.1367
   358.52         5.1504
   358.66         5.1734
   358.80         5.2067
   358.94         5.2495
   359.08         5.2984
   359.22         5.3481
   359.36         5.3936
   359.50         5.4313
   359.64         5.4581
   359.78         5.4725
   359.92         5.4748
   360.06         5.4670
   360.20         5.4515
   360.34         5.4304
   360.48         5.4065
   360.62         5.3834
   360.76         5.3640
   360.90         5.3495
   361.04         5.3410
   361.18         5.3411
   361.32         5.3525
   361.46         5.3757
   361.60         5.4099
   361.74         5.4532
   361.88         5.5025
   362.02         5.5521
   362.16         5.5956
   362.30         5.6277
   362.44         5.6448
   362.58         5.6456
   362.72         5.6313
   362.86         5.6047
   363.00         5.5706
   363.14         5.5344
   363.28         5.5014
   363.42         5.4762
   363.56         5.4628
   363.70         5.4639
   363.84         5.4795
   363.98         5.5062
   364.12         5.5397
   364.26         5.5759
   364.40         5.6119
   364.54         5.6446
   364.68         5.6734
   364.82         5.6996
   364.96         5.7248
   365.10         5.7495
   365.24         5.7726
   365.38         5.7921
   365.52         5.8071
   365.66         5.8166
   365.80         5.8193
   365.94         5.8144
   366.08         5.8020
   366.22         5.7837
   366.36         5.7613
   366.50         5.7362
   366.64         5.7101
   366.78         5.6855
   366.92         5.6649
   367.06         5.6503
   367.20         5.6419
   367.34         5.6382
   367.48         5.6368
   367.62         5.6350
   367.76         5.6305
   367.90         5.6222
   368.04         5.6109
   368.18         5.5990
   368.32         5.5886
   368.46         5.5816
   368.60         5.5804
   368.74         5.5877
   368.88         5.6066
   369.02         5.6384
   369.16         5.6815
   369.30         5.7314
   369.44         5.7823
   369.58         5.8293
   369.72         5.8675
   369.86         5.8924
   370.00         5.9003
   370.14         5.8917
   370.28         5.8714
   370.42         5.8488
   370.56         5.8349
   370.70         5.8392
   370.84         5.8655
   370.98         5.9118
   371.12         5.9729
   371.26         6.0442
   371.40         6.1228
   371.54         6.2059
   371.68         6.2898
   371.82         6.3708
   371.96         6.4457
   372.10         6.5107
   372.24         6.5599
   372.38         6.5854
   372.52         6.5827
   372.66         6.5542
   372.80         6.5096
   372.94         6.4636
   373.08         6.4308
   373.22         6.4210
   373.36         6.4372
   373.50         6.4769
   373.64         6.5346
   373.78         6.6032
   373.92         6.6739
   374.06         6.7383
   374.20         6.7900
   374.34         6.8260
   374.48         6.8470
   374.62         6.8557
   374.76         6.8577
   374.90         6.8628
   375.04         6.8859
   375.18         6.9433
   375.32         7.0454
   375.46         7.1919
   375.60         7.3699
   375.74         7.5557
   375.88         7.7196
   376.02         7.8342
   376.16         7.8822
   376.30         7.8600
   376.44         7.7787
   376.58         7.6634
   376.72         7.5480
   376.86         7.4673
   377.00         7.4487
   377.14         7.5091
   377.28         7.6548
   377.42         7.8825
   377.56         8.1799
   377.70         8.5254
   377.84         8.8899
   377.98         9.2396
   378.12         9.5406
   378.26         9.7639
   378.40         9.8877
   378.54         9.8992
   378.68         9.7972
   378.82         9.5931
   378.96         9.3102
   379.10         8.9820
   379.24         8.6477
   379.38         8.3450
   379.52         8.1055
   379.66         7.9544
   379.80         7.9111
   379.94         7.9866
   380.08         8.1800
   380.22         8.4781
   380.36         8.8588
   380.50         9.2948
   380.64         9.7558
   380.78         10.2111
   380.92         10.6322
   381.06         10.9956
   381.20         11.2857
   381.34         11.4958
   381.48         11.6262
   381.62         11.6801
   381.76         11.6610
   381.90         11.5701
   382.04         11.4062
   382.18         11.1677
   382.32         10.8544
   382.46         10.4692
   382.60         10.0207
   382.74         9.5266
   382.88         9.0144
   383.02         8.5196
   383.16         8.0801
   383.30         7.7313
   383.44         7.5016
   383.58         7.4103
   383.72         7.4664
   383.86         7.6665
   384.00         7.9958
   384.14         8.4305
   384.28         8.9404
   384.42         9.4911
   384.56         10.0480
   384.70         10.5793
   384.84         11.0611
   384.98         11.4798
   385.12         11.8335
   385.26         12.1288
   385.40         12.3760
   385.54         12.5847
   385.68         12.7634
   385.82         12.9188
   385.96         13.0541
   386.10         13.1688
   386.24         13.2592
   386.38         13.3186
   386.52         13.3386
   386.66         13.3106
   386.80         13.2276
   386.94         13.0852
   387.08         12.8822
   387.22         12.6210
   387.36         12.3059
   387.50         11.9415
   387.64         11.5320
   387.78         11.0825
   387.92         10.6023
   388.06         10.1071
   388.20         9.6184
   388.34         9.1600
   388.48         8.7557
   388.62         8.4270
   388.76         8.1924
   388.90         8.0653
   389.04         8.0524
   389.18         8.1534
   389.32         8.3610
   389.46         8.6608
   389.60         9.0333
   389.74         9.4549
   389.88         9.9000
   390.02         10.3440
   390.16         10.7651
   390.30         11.1469
   390.44         11.4814
   390.58         11.7677
   390.72         12.0083
   390.86         12.2056
   391.00         12.3626
   391.14         12.4841
   391.28         12.5758
   391.42         12.6406
   391.56         12.6773
   391.70         12.6806
   391.84         12.6407
   391.98         12.5417
   392.12         12.3637
   392.26         12.0895
   392.40         11.7132
   392.54         11.2453
   392.68         10.7139
   392.82         10.1601
   392.96         9.6325
   393.10         9.1788
   393.24         8.8401
   393.38         8.6471
   393.52         8.6177
   393.66         8.7541
   393.80         9.0412
   393.94         9.4472
   394.08         9.9290
   394.22         10.4378
   394.36         10.9250
   394.50         11.3469
   394.64         11.6712
   394.78         11.8828
   394.92         11.9834
   395.06         11.9852
   395.20         11.9019
   395.34         11.7422
   395.48         11.5063
   395.62         11.1882
   395.76         10.7827
   395.90         10.2934
   396.04         9.7368
   396.18         9.1410
   396.32         8.5413
   396.46         7.9776
   396.60         7.4912
   396.74         7.1204
   396.88         6.8953
   397.02         6.8345
   397.16         6.9429
   397.30         7.2121
   397.44         7.6211
   397.58         8.1381
   397.72         8.7247
   397.86         9.3412
   398.00         9.9511
   398.14         10.5257
   398.28         11.0456
   398.42         11.5024
   398.56         11.8964
   398.70         12.2328
   398.84         12.5185
   398.98         12.7610
   399.12         12.9672
   399.26         13.1422
   399.40         13.2892
   399.54         13.4102
   399.68         13.5081
   399.82         13.5871
   399.96         13.6522
   400.10         13.7090
   400.24         13.7617
   400.38         13.8131
   400.52         13.8653
   400.66         13.9199
   400.80         13.9767
   400.94         14.0343
   401.08         14.0908
   401.22         14.1442
   401.36         14.1937
   401.50         14.2393
   401.64         14.2806
   401.78         14.3143
   401.92         14.3356
   402.06         14.3411
   402.20         14.3307
   402.34         14.3066
   402.48         14.2729
   402.62         14.2348
   402.76         14.1986
   402.90         14.1694
   403.04         14.1509
   403.18         14.1447
   403.32         14.1494
   403.46         14.1614
   403.60         14.1763
   403.74         14.1914
   403.88         14.2055
   404.02         14.2179
   404.16         14.2263
   404.30         14.2267
   404.44         14.2150
   404.58         14.1907
   404.72         14.1575
   404.86         14.1216
   405.00         14.0883
   405.14         14.0600
   405.28         14.0362
   405.42         14.0139
   405.56         13.9879
   405.70         13.9547
   405.84         13.9127
   405.98         13.8622
   406.12         13.8048
   406.26         13.7415
   406.40         13.6718
   406.54         13.5929
   406.68         13.5011
   406.82         13.3954
   406.96         13.2795
   407.10         13.1589
   407.24         13.0379
   407.38         12.9196
   407.52         12.8058
   407.66         12.6971
   407.80         12.5937
   407.94         12.4949
   408.08         12.3977
   408.22         12.2967
   408.36         12.1844
   408.50         12.0504
   408.64         11.8815
   408.78         11.6638
   408.92         11.3848
   409.06         11.0378
   409.20         10.6263
   409.34         10.1662
   409.48         9.6829
   409.62         9.2063
   409.76         8.7669
   409.90         8.3953
   410.04         8.1202
   410.18         7.9646
   410.32         7.9413
   410.46         8.0513
   410.60         8.2841
   410.74         8.6203
   410.88         9.0336
   411.02         9.4928
   411.16         9.9656
   411.30         10.4226
   411.44         10.8409
   411.58         11.2077
   411.72         11.5201
   411.86         11.7826
   412.00         12.0019
   412.14         12.1844
   412.28         12.3355
   412.42         12.4619
   412.56         12.5717
   412.70         12.6736
   412.84         12.7749
   412.98         12.8795
   413.12         12.9880
   413.26         13.0985
   413.40         13.2082
   413.54         13.3137
   413.68         13.4111
   413.82         13.4973
   413.96         13.5701
   414.10         13.6274
   414.24         13.6673
   414.38         13.6872
   414.52         13.6851
   414.66         13.6623
   414.80         13.6242
   414.94         13.5783
   415.08         13.5331
   415.22         13.4964
   415.36         13.4746
   415.50         13.4700
   415.64         13.4822
   415.78         13.5097
   415.92         13.5491
   416.06         13.5933
   416.20         13.6325
   416.34         13.6565
   416.48         13.6580
   416.62         13.6320
   416.76         13.5766
   416.90         13.4944
   417.04         13.3921
   417.18         13.2799
   417.32         13.1697
   417.46         13.0716
   417.60         12.9932
   417.74         12.9405
   417.88         12.9177
   418.02         12.9256
   418.16         12.9614
   418.30         13.0201
   418.44         13.0939
   418.58         13.1716
   418.72         13.2420
   418.86         13.2986
   419.00         13.3396
   419.14         13.3649
   419.28         13.3756
   419.42         13.3735
   419.56         13.3625
   419.70         13.3463
   419.84         13.3289
   419.98         13.3138
   420.12         13.3040
   420.26         13.3016
   420.40         13.3075
   420.54         13.3206
   420.68         13.3384
   420.82         13.3578
   420.96         13.3759
   421.10         13.3900
   421.24         13.3974
   421.38         13.3950
   421.52         13.3797
   421.66         13.3496
   421.80         13.3065
   421.94         13.2544
   422.08         13.1971
   422.22         13.1373
   422.36         13.0770
   422.50         13.0185
   422.64         12.9638
   422.78         12.9150
   422.92         12.8742
   423.06         12.8443
   423.20         12.8282
   423.34         12.8274
   423.48         12.8401
   423.62         12.8617
   423.76         12.8860
   423.90         12.9069
   424.04         12.9206
   424.18         12.9276
   424.32         12.9324
   424.46         12.9393
   424.60         12.9491
   424.74         12.9599
   424.88         12.9703
   425.02         12.9814
   425.16         12.9956
   425.30         13.0151
   425.44         13.0414
   425.58         13.0754
   425.72         13.1159
   425.86         13.1576
   426.00         13.1919
   426.14         13.2106
   426.28         13.2094
   426.42         13.1876
   426.56         13.1486
   426.70         13.0983
   426.84         13.0441
   426.98         12.9925
   427.12         12.9477
   427.26         12.9116
   427.40         12.8853
   427.54         12.8682
   427.68         12.8577
   427.82         12.8499
   427.96         12.8394
   428.10         12.8210
   428.24         12.7906
   428.38         12.7453
   428.52         12.6840
   428.66         12.6082
   428.80         12.5213
   428.94         12.4273
   429.08         12.3300
   429.22         12.2332
   429.36         12.1393
   429.50         12.0492
   429.64         11.9624
   429.78         11.8787
   429.92         11.7998
   430.06         11.7282
   430.20         11.6659
   430.34         11.6139
   430.48         11.5730
   430.62         11.5446
   430.76         11.5290
   430.90         11.5248
   431.04         11.5279
   431.18         11.5321
   431.32         11.5300
   431.46         11.5150
   431.60         11.4836
   431.74         11.4354
   431.88         11.3711
   432.02         11.2903
   432.16         11.1916
   432.30         11.0732
   432.44         10.9318
   432.58         10.7614
   432.72         10.5531
   432.86         10.2976
   433.00         9.9897
   433.14         9.6333
   433.28         9.2407
   433.42         8.8309
   433.56         8.4279
   433.70         8.0581
   433.84         7.7486
   433.98         7.5233
   434.12         7.4002
   434.26         7.3903
   434.40         7.4964
   434.54         7.7118
   434.68         8.0222
   434.82         8.4065
   434.96         8.8393
   435.10         9.2942
   435.24         9.7469
   435.38         10.1788
   435.52         10.5774
   435.66         10.9360
   435.80         11.2517
   435.94         11.5240
   436.08         11.7530
   436.22         11.9391
   436.36         12.0827
   436.50         12.1859
   436.64         12.2535
   436.78         12.2932
   436.92         12.3147
   437.06         12.3273
   437.20         12.3367
   437.34         12.3446
   437.48         12.3510
   437.62         12.3566
   437.76         12.3623
   437.90         12.3684
   438.04         12.3736
   438.18         12.3753
   438.32         12.3702
   438.46         12.3572
   438.60         12.3374
   438.74         12.3124
   438.88         12.2833
   439.02         12.2519
   439.16         12.2224
   439.30         12.1987
   439.44         12.1835
   439.58         12.1780
   439.72         12.1816
   439.86         12.1927
   440.00         12.2113
   440.14         12.2383
   440.28         12.2726
   440.42         12.3094
   440.56         12.3416
   440.70         12.3632
   440.84         12.3721
   440.98         12.3697
   441.12         12.3595
   441.26         12.3454
   441.40         12.3301
   441.54         12.3169
   441.68         12.3106
   441.82         12.3161
   441.96         12.3359
   442.10         12.3691
   442.24         12.4117
   442.38         12.4583
   442.52         12.5045
   442.66         12.5481
   442.80         12.5874
   442.94         12.6200
   443.08         12.6428
   443.22         12.6538
   443.36         12.6539
   443.50         12.6458
   443.64         12.6308
   443.78         12.6093
   443.92         12.5828
   444.06         12.5533
   444.20         12.5224
   444.34         12.4913
   444.48         12.4596
   444.62         12.4263
   444.76         12.3914
   444.90         12.3567
   445.04         12.3254
   445.18         12.3000
   445.32         12.2805
   445.46         12.2639
   445.60         12.2456
   445.74         12.2227
   445.88         12.1967
   446.02         12.1716
   446.16         12.1511
   446.30         12.1367
   446.44         12.1292
   446.58         12.1299
   446.72         12.1376
   446.86         12.1488
   447.00         12.1589
   447.14         12.1648
   447.28         12.1656
   447.42         12.1621
   447.56         12.1546
   447.70         12.1428
   447.84         12.1263
   447.98         12.1050
   448.12         12.0804
   448.26         12.0565
   448.40         12.0382
   448.54         12.0298
   448.68         12.0337
   448.82         12.0495
   448.96         12.0751
   449.10         12.1096
   449.24         12.1522
   449.38         12.2009
   449.52         12.2525
   449.66         12.3057
   449.80         12.3611
   449.94         12.4180
   450.08         12.4735
   450.22         12.5236
   450.36         12.5654
   450.50         12.5964
   450.64         12.6137
   450.78         12.6149
   450.92         12.5988
   451.06         12.5639
   451.20         12.5105
   451.34         12.4414
   451.48         12.3603
   451.62         12.2716
   451.76         12.1803
   451.90         12.0900
   452.04         12.0015
   452.18         11.9154
   452.32         11.8356
   452.46         11.7684
   452.60         11.7199
   452.74         11.6943
   452.88         11.6929
   453.02         11.7142
   453.16         11.7540
   453.30         11.8063
   453.44         11.8648
   453.58         11.9220
   453.72         11.9694
   453.86         11.9993
   454.00         12.0067
   454.14         11.9886
   454.28         11.9445
   454.42         11.8774
   454.56         11.7931
   454.70         11.7002
   454.84         11.6100
   454.98         11.5335
   455.12         11.4780
   455.26         11.4465
   455.40         11.4389
   455.54         11.4536
   455.68         11.4883
   455.82         11.5392
   455.96         11.6010
   456.10         11.6676
   456.24         11.7327
   456.38         11.7918
   456.52         11.8437
   456.66         11.8883
   456.80         11.9244
   456.94         11.9497
   457.08         11.9615
   457.22         11.9574
   457.36         11.9370
   457.50         11.9015
   457.64         11.8531
   457.78         11.7956
   457.92         11.7349
   458.06         11.6772
   458.20         11.6284
   458.34         11.5937
   458.48         11.5768
   458.62         11.5797
   458.76         11.6017
   458.90         11.6402
   459.04         11.6911
   459.18         11.7487
   459.32         11.8071
   459.46         11.8610
   459.60         11.9064
   459.74         11.9406
   459.88         11.9637
   460.02         11.9781
   460.16         11.9867
   460.30         11.9912
   460.44         11.9924
   460.58         11.9907
   460.72         11.9855
   460.86         11.9772
   461.00         11.9667
   461.14         11.9548
   461.28         11.9414
   461.42         11.9266
   461.56         11.9107
   461.70         11.8941
   461.84         11.8777
   461.98         11.8628
   462.12         11.8498
   462.26         11.8380
   462.40         11.8266
   462.54         11.8152
   462.68         11.8046
   462.82         11.7957
   462.96         11.7892
   463.10         11.7863
   463.24         11.7872
   463.38         11.7918
   463.52         11.7994
   463.66         11.8076
   463.80         11.8126
   463.94         11.8111
   464.08         11.8020
   464.22         11.7855
   464.36         11.7632
   464.50         11.7376
   464.64         11.7113
   464.78         11.6874
   464.92         11.6690
   465.06         11.6580
   465.20         11.6549
   465.34         11.6588
   465.48         11.6672
   465.62         11.6763
   465.76         11.6820
   465.90         11.6811
   466.04         11.6725
   466.18         11.6571
   466.32         11.6379
   466.46         11.6191
   466.60         11.6052
   466.74         11.5992
   466.88         11.6019
   467.02         11.6128
   467.16         11.6309
   467.30         11.6549
   467.44         11.6828
   467.58         11.7112
   467.72         11.7359
   467.86         11.7543
   468.00         11.7661
   468.14         11.7725
   468.28         11.7748
   468.42         11.7746
   468.56         11.7732
   468.70         11.7709
   468.84         11.7671
   468.98         11.7600
   469.12         11.7471
   469.26         11.7256
   469.40         11.6948
   469.54         11.6557
   469.68         11.6100
   469.82         11.5594
   469.96         11.5060
   470.10         11.4516
   470.24         11.3981
   470.38         11.3480
   470.52         11.3047
   470.66         11.2711
   470.80         11.2488
   470.94         11.2380
   471.08         11.2387
   471.22         11.2502
   471.36         11.2713
   471.50         11.3007
   471.64         11.3364
   471.78         11.3754
   471.92         11.4135
   472.06         11.4463
   472.20         11.4692
   472.34         11.4787
   472.48         11.4733
   472.62         11.4532
   472.76         11.4210
   472.90         11.3808
   473.04         11.3379
   473.18         11.2979
   473.32         11.2662
   473.46         11.2468
   473.60         11.2410
   473.74         11.2483
   473.88         11.2665
   474.02         11.2913
   474.16         11.3167
   474.30         11.3359
   474.44         11.3427
   474.58         11.3342
   474.72         11.3110
   474.86         11.2766
   475.00         11.2340
   475.14         11.1853
   475.28         11.1319
   475.42         11.0761
   475.56         11.0210
   475.70         10.9700
   475.84         10.9263
   475.98         10.8915
   476.12         10.8648
   476.26         10.8448
   476.40         10.8311
   476.54         10.8239
   476.68         10.8227
   476.82         10.8264
   476.96         10.8342
   477.10         10.8457
   477.24         10.8605
   477.38         10.8774
   477.52         10.8928
   477.66         10.9021
   477.80         10.9034
   477.94         10.8983
   478.08         10.8905
   478.22         10.8831
   478.36         10.8781
   478.50         10.8756
   478.64         10.8752
   478.78         10.8762
   478.92         10.8778
   479.06         10.8796
   479.20         10.8801
   479.34         10.8762
   479.48         10.8654
   479.62         10.8468
   479.76         10.8207
   479.90         10.7884
   480.04         10.7511
   480.18         10.7116
   480.32         10.6739
   480.46         10.6430
   480.60         10.6216
   480.74         10.6097
   480.88         10.6048
   481.02         10.6034
   481.16         10.6011
   481.30         10.5946
   481.44         10.5824
   481.58         10.5650
   481.72         10.5422
   481.86         10.5135
   482.00         10.4795
   482.14         10.4433
   482.28         10.4079
   482.42         10.3764
   482.56         10.3504
   482.70         10.3307
   482.84         10.3169
   482.98         10.3079
   483.12         10.3015
   483.26         10.2950
   483.40         10.2845
   483.54         10.2654
   483.68         10.2335
   483.82         10.1863
   483.96         10.1237
   484.10         10.0454
   484.24         9.9487
   484.38         9.8290
   484.52         9.6835
   484.66         9.5111
   484.80         9.3096
   484.94         9.0764
   485.08         8.8127
   485.22         8.5253
   485.36         8.2266
   485.50         7.9324
   485.64         7.6610
   485.78         7.4295
   485.92         7.2509
   486.06         7.1342
   486.20         7.0851
   486.34         7.1059
   486.48         7.1942
   486.62         7.3417
   486.76         7.5348
   486.90         7.7579
   487.04         7.9964
   487.18         8.2371
   487.32         8.4678
   487.46         8.6793
   487.60         8.8668
   487.74         9.0300
   487.88         9.1702
   488.02         9.2893
   488.16         9.3904
   488.30         9.4772
   488.44         9.5530
   488.58         9.6208
   488.72         9.6839
   488.86         9.7455
   489.00         9.8084
   489.14         9.8746
   489.28         9.9449
   489.42         10.0193
   489.56         10.0968
   489.70         10.1734
   489.84         10.2435
   489.98         10.3013
   490.12         10.3425
   490.26         10.3652
   490.40         10.3710
   490.54         10.3643
   490.68         10.3490
   490.82         10.3270
   490.96         10.2981
   491.10         10.2619
   491.24         10.2177
   491.38         10.1667
   491.52         10.1122
   491.66         10.0596
   491.80         10.0136
   491.94         9.9779
   492.08         9.9551
   492.22         9.9452
   492.36         9.9468
   492.50         9.9588
   492.64         9.9803
   492.78         10.0096
   492.92         10.0445
   493.06         10.0829
   493.20         10.1218
   493.34         10.1580
   493.48         10.1895
   493.62         10.2163
   493.76         10.2392
   493.90         10.2593
   494.04         10.2781
   494.18         10.2969
   494.32         10.3147
   494.46         10.3287
   494.60         10.3348
   494.74         10.3294
   494.88         10.3119
   495.02         10.2845
   495.16         10.2510
   495.30         10.2154
   495.44         10.1820
   495.58         10.1547
   495.72         10.1358
   495.86         10.1258
   496.00         10.1239
   496.14         10.1290
   496.28         10.1398
   496.42         10.1549
   496.56         10.1721
   496.70         10.1883
   496.84         10.2002
   496.98         10.2045
   497.12         10.1977
   497.26         10.1769
   497.40         10.1429
   497.54         10.0991
   497.68         10.0501
   497.82         10.0003
   497.96         9.9539
   498.10         9.9145
   498.24         9.8842
   498.38         9.8640
   498.52         9.8545
   498.66         9.8557
   498.80         9.8658
   498.94         9.8819
   499.08         9.9004
   499.22         9.9168
   499.36         9.9265
   499.50         9.9256
   499.64         9.9114
   499.78         9.8838
   499.92         9.8465
   500.06         9.8055
   500.20         9.7658
   500.34         9.7292
   500.48         9.6948
   500.62         9.6614
   500.76         9.6276
   500.90         9.5925
   501.04         9.5564
   501.18         9.5209
   501.32         9.4880
   501.46         9.4598
   501.60         9.4380
   501.74         9.4237
   501.88         9.4181
   502.02         9.4219
   502.16         9.4362
   502.30         9.4620
   502.44         9.4986
   502.58         9.5433
   502.72         9.5923
   502.86         9.6397
   503.00         9.6787
   503.14         9.7046
   503.28         9.7167
   503.42         9.7168
   503.56         9.7082
   503.70         9.6942
   503.84         9.6774
   503.98         9.6601
   504.12         9.6440
   504.26         9.6300
   504.40         9.6182
   504.54         9.6088
   504.68         9.6025
   504.82         9.6008
   504.96         9.6053
   505.10         9.6170
   505.24         9.6366
   505.38         9.6633
   505.52         9.6941
   505.66         9.7263
   505.80         9.7585
   505.94         9.7892
   506.08         9.8154
   506.22         9.8337
   506.36         9.8411
   506.50         9.8355
   506.64         9.8168
   506.78         9.7861
   506.92         9.7455
   507.06         9.6977
   507.20         9.6464
   507.34         9.5952
   507.48         9.5467
   507.62         9.5030
   507.76         9.4658
   507.90         9.4364
   508.04         9.4156
   508.18         9.4052
   508.32         9.4073
   508.46         9.4224
   508.60         9.4480
   508.74         9.4796
   508.88         9.5128
   509.02         9.5440
   509.16         9.5712
   509.30         9.5940
   509.44         9.6120
   509.58         9.6249
   509.72         9.6327
   509.86         9.6361
   510.00         9.6364
   510.14         9.6354
   510.28         9.6349
   510.42         9.6360
   510.56         9.6393
   510.70         9.6447
   510.84         9.6509
   510.98         9.6558
   511.12         9.6572
   511.26         9.6542
   511.40         9.6475
   511.54         9.6384
   511.68         9.6277
   511.82         9.6147
   511.96         9.5979
   512.10         9.5762
   512.24         9.5494
   512.38         9.5184
   512.52         9.4848
   512.66         9.4504
   512.80         9.4159
   512.94         9.3827
   513.08         9.3527
   513.22         9.3279
   513.36         9.3099
   513.50         9.3003
   513.64         9.3002
   513.78         9.3102
   513.92         9.3292
   514.06         9.3548
   514.20         9.3833
   514.34         9.4103
   514.48         9.4323
   514.62         9.4475
   514.76         9.4547
   514.90         9.4530
   515.04         9.4422
   515.18         9.4234
   515.32         9.3983
   515.46         9.3676
   515.60         9.3312
   515.74         9.2878
   515.88         9.2367
   516.02         9.1783
   516.16         9.1143
   516.30         9.0473
   516.44         8.9815
   516.58         8.9221
   516.72         8.8741
   516.86         8.8412
   517.00         8.8261
   517.14         8.8301
   517.28         8.8513
   517.42         8.8849
   517.56         8.9248
   517.70         8.9642
   517.84         8.9961
   517.98         9.0138
   518.12         9.0128
   518.26         8.9924
   518.40         8.9565
   518.54         8.9120
   518.68         8.8668
   518.82         8.8280
   518.96         8.8020
   519.10         8.7923
   519.24         8.7984
   519.38         8.8163
   519.52         8.8405
   519.66         8.8655
   519.80         8.8875
   519.94         8.9039
   520.08         8.9143
   520.22         8.9205
   520.36         8.9239
   520.50         8.9256
   520.64         8.9280
   520.78         8.9338
   520.92         8.9454
   521.06         8.9635
   521.20         8.9869
   521.34         9.0122
   521.48         9.0339
   521.62         9.0460
   521.76         9.0444
   521.90         9.0277
   522.04         8.9974
   522.18         8.9578
   522.32         8.9141
   522.46         8.8714
   522.60         8.8341
   522.74         8.8063
   522.88         8.7903
   523.02         8.7869
   523.16         8.7962
   523.30         8.8180
   523.44         8.8500
   523.58         8.8890
   523.72         8.9317
   523.86         8.9746
   524.00         9.0143
   524.14         9.0478
   524.28         9.0744
   524.42         9.0939
   524.56         9.1059
   524.70         9.1100
   524.84         9.1063
   524.98         9.0941
   525.12         9.0723
   525.26         9.0392
   525.40         8.9933
   525.54         8.9340
   525.68         8.8620
   525.82         8.7784
   525.96         8.6858
   526.10         8.5889
   526.24         8.4933
   526.38         8.4043
   526.52         8.3269
   526.66         8.2659
   526.80         8.2259
   526.94         8.2097
   527.08         8.2173
   527.22         8.2466
   527.36         8.2938
   527.50         8.3540
   527.64         8.4210
   527.78         8.4896
   527.92         8.5568
   528.06         8.6219
   528.20         8.6851
   528.34         8.7466
   528.48         8.8052
   528.62         8.8596
   528.76         8.9088
   528.90         8.9516
   529.04         8.9874
   529.18         9.0161
   529.32         9.0375
   529.46         9.0508
   529.60         9.0557
   529.74         9.0524
   529.88         9.0425
   530.02         9.0282
   530.16         9.0110
   530.30         8.9917
   530.44         8.9712
   530.58         8.9495
   530.72         8.9262
   530.86         8.9010
   531.00         8.8740
   531.14         8.8456
   531.28         8.8166
   531.42         8.7875
   531.56         8.7576
   531.70         8.7262
   531.84         8.6925
   531.98         8.6576
   532.12         8.6232
   532.26         8.5911
   532.40         8.5624
   532.54         8.5375
   532.68         8.5160
   532.82         8.4977
   532.96         8.4826
   533.10         8.4713
   533.24         8.4645
   533.38         8.4625
   533.52         8.4653
   533.66         8.4727
   533.80         8.4832
   533.94         8.4958
   534.08         8.5101
   534.22         8.5266
   534.36         8.5473
   534.50         8.5737
   534.64         8.6058
   534.78         8.6417
   534.92         8.6786
   535.06         8.7141
   535.20         8.7456
   535.34         8.7713
   535.48         8.7893
   535.62         8.7987
   535.76         8.7990
   535.90         8.7900
   536.04         8.7717
   536.18         8.7453
   536.32         8.7127
   536.46         8.6773
   536.60         8.6427
   536.74         8.6121
   536.88         8.5871
   537.02         8.5686
   537.16         8.5562
   537.30         8.5494
   537.44         8.5480
   537.58         8.5517
   537.72         8.5595
   537.86         8.5697
   538.00         8.5801
   538.14         8.5887
   538.28         8.5947
   538.42         8.5972
   538.56         8.5951
   538.70         8.5879
   538.84         8.5769
   538.98         8.5634
   539.12         8.5486
   539.26         8.5319
   539.40         8.5119
   539.54         8.4887
   539.68         8.4638
   539.82         8.4390
   539.96         8.4159
   540.10         8.3961
   540.24         8.3807
   540.38         8.3696
   540.52         8.3621
   540.66         8.3581
   540.80         8.3585
   540.94         8.3646
   541.08         8.3777
   541.22         8.3978
   541.36         8.4247
   541.50         8.4568
   541.64         8.4914
   541.78         8.5249
   541.92         8.5541
   542.06         8.5764
   542.20         8.5898
   542.34         8.5934
   542.48         8.5873
   542.62         8.5736
   542.76         8.5562
   542.90         8.5390
   543.04         8.5257
   543.18         8.5193
   543.32         8.5201
   543.46         8.5270
   543.60         8.5374
   543.74         8.5481
   543.88         8.5569
   544.02         8.5630
   544.16         8.5664
   544.30         8.5663
   544.44         8.5615
   544.58         8.5519
   544.72         8.5390
   544.86         8.5254
   545.00         8.5140
   545.14         8.5069
   545.28         8.5047
   545.42         8.5061
   545.56         8.5079
   545.70         8.5066
   545.84         8.4997
   545.98         8.4861
   546.12         8.4665
   546.26         8.4432
   546.40         8.4191
   546.54         8.3964
   546.68         8.3758
   546.82         8.3572
   546.96         8.3404
   547.10         8.3268
   547.24         8.3186
   547.38         8.3173
   547.52         8.3224
   547.66         8.3323
   547.80         8.3450
   547.94         8.3584
   548.08         8.3706
   548.22         8.3803
   548.36         8.3870
   548.50         8.3911
   548.64         8.3932
   548.78         8.3937
   548.92         8.3937
   549.06         8.3942
   549.20         8.3960
   549.34         8.3993
   549.48         8.4039
   549.62         8.4082
   549.76         8.4103
   549.90         8.4082
   550.04         8.3996
   550.18         8.3826
   550.32         8.3569
   550.46         8.3244
   550.60         8.2881
   550.74         8.2524
   550.88         8.2217
   551.02         8.2004
   551.16         8.1906
   551.30         8.1917
   551.44         8.2007
   551.58         8.2135
   551.72         8.2257
   551.86         8.2331
   552.00         8.2326
   552.14         8.2231
   552.28         8.2052
   552.42         8.1803
   552.56         8.1515
   552.70         8.1229
   552.84         8.0986
   552.98         8.0823
   553.12         8.0760
   553.26         8.0799
   553.40         8.0928
   553.54         8.1122
   553.68         8.1350
   553.82         8.1583
   553.96         8.1804
   554.10         8.2004
   554.24         8.2181
   554.38         8.2341
   554.52         8.2483
   554.66         8.2600
   554.80         8.2672
   554.94         8.2681
   555.08         8.2617
   555.22         8.2483
   555.36         8.2292
   555.50         8.2055
   555.64         8.1790
   555.78         8.1514
   555.92         8.1250
   556.06         8.1027
   556.20         8.0869
   556.34         8.0791
   556.48         8.0793
   556.62         8.0866
   556.76         8.0991
   556.90         8.1142
   557.04         8.1283
   557.18         8.1380
   557.32         8.1407
   557.46         8.1360
   557.60         8.1244
   557.74         8.1060
   557.88         8.0816
   558.02         8.0521
   558.16         8.0192
   558.30         7.9845
   558.44         7.9504
   558.58         7.9191
   558.72         7.8919
   558.86         7.8685
   559.00         7.8484
   559.14         7.8313
   559.28         7.8166
   559.42         7.8041
   559.56         7.7943
   559.70         7.7884
   559.84         7.7874
   559.98         7.7920
   560.12         7.8021
   560.26         7.8168
   560.40         7.8342
   560.54         7.8522
   560.68         7.8686
   560.82         7.8821
   560.96         7.8916
   561.10         7.8966
   561.24         7.8964
   561.38         7.8912
   561.52         7.8824
   561.66         7.8723
   561.80         7.8634
   561.94         7.8574
   562.08         7.8558
   562.22         7.8597
   562.36         7.8687
   562.50         7.8812
   562.64         7.8955
   562.78         7.9101
   562.92         7.9235
   563.06         7.9345
   563.20         7.9429
   563.34         7.9488
   563.48         7.9523
   563.62         7.9533
   563.76         7.9519
   563.90         7.9485
   564.04         7.9434
   564.18         7.9374
   564.32         7.9311
   564.46         7.9243
   564.60         7.9164
   564.74         7.9063
   564.88         7.8929
   565.02         7.8755
   565.16         7.8541
   565.30         7.8295
   565.44         7.8021
   565.58         7.7722
   565.72         7.7405
   565.86         7.7077
   566.00         7.6747
   566.14         7.6440
   566.28         7.6190
   566.42         7.6020
   566.56         7.5938
   566.70         7.5944
   566.84         7.6033
   566.98         7.6190
   567.12         7.6391
   567.26         7.6612
   567.40         7.6831
   567.54         7.7035
   567.68         7.7209
   567.82         7.7339
   567.96         7.7416
   568.10         7.7445
   568.24         7.7444
   568.38         7.7430
   568.52         7.7417
   568.66         7.7421
   568.80         7.7452
   568.94         7.7514
   569.08         7.7595
   569.22         7.7681
   569.36         7.7759
   569.50         7.7817
   569.64         7.7837
   569.78         7.7805
   569.92         7.7709
   570.06         7.7553
   570.20         7.7351
   570.34         7.7123
   570.48         7.6896
   570.62         7.6695
   570.76         7.6527
   570.90         7.6387
   571.04         7.6266
   571.18         7.6171
   571.32         7.6113
   571.46         7.6107
   571.60         7.6164
   571.74         7.6287
   571.88         7.6470
   572.02         7.6704
   572.16         7.6971
   572.30         7.7243
   572.44         7.7492
   572.58         7.7700
   572.72         7.7851
   572.86         7.7938
   573.00         7.7954
   573.14         7.7901
   573.28         7.7786
   573.42         7.7622
   573.56         7.7428
   573.70         7.7231
   573.84         7.7055
   573.98         7.6915
   574.12         7.6812
   574.26         7.6736
   574.40         7.6668
   574.54         7.6593
   574.68         7.6501
   574.82         7.6381
   574.96         7.6231
   575.10         7.6057
   575.24         7.5869
   575.38         7.5677
   575.52         7.5499
   575.66         7.5351
   575.80         7.5247
   575.94         7.5196
   576.08         7.5198
   576.22         7.5253
   576.36         7.5357
   576.50         7.5503
   576.64         7.5676
   576.78         7.5857
   576.92         7.6026
   577.06         7.6166
   577.20         7.6260
   577.34         7.6297
   577.48         7.6270
   577.62         7.6185
   577.76         7.6057
   577.90         7.5906
   578.04         7.5752
   578.18         7.5614
   578.32         7.5501
   578.46         7.5416
   578.60         7.5358
   578.74         7.5330
   578.88         7.5328
   579.02         7.5349
   579.16         7.5389
   579.30         7.5441
   579.44         7.5499
   579.58         7.5555
   579.72         7.5601
   579.86         7.5634
   580.00         7.5654
   580.14         7.5670
   580.28         7.5695
   580.42         7.5730
   580.56         7.5768
   580.70         7.5802
   580.84         7.5826
   580.98         7.5843
   581.12         7.5864
   581.26         7.5900
   581.40         7.5955
   581.54         7.6028
   581.68         7.6109
   581.82         7.6192
   581.96         7.6270
   582.10         7.6328
   582.24         7.6356
   582.38         7.6342
   582.52         7.6282
   582.66         7.6176
   582.80         7.6028
   582.94         7.5843
   583.08         7.5625
   583.22         7.5384
   583.36         7.5133
   583.50         7.4891
   583.64         7.4674
   583.78         7.4495
   583.92         7.4362
   584.06         7.4277
   584.20         7.4230
   584.34         7.4206
   584.48         7.4184
   584.62         7.4139
   584.76         7.4055
   584.90         7.3929
   585.04         7.3775
   585.18         7.3613
   585.32         7.3469
   585.46         7.3367
   585.60         7.3322
   585.74         7.3346
   585.88         7.3450
   586.02         7.3635
   586.16         7.3893
   586.30         7.4206
   586.44         7.4553
   586.58         7.4896
   586.72         7.5196
   586.86         7.5419
   587.00         7.5538
   587.14         7.5549
   587.28         7.5460
   587.42         7.5289
   587.56         7.5049
   587.70         7.4745
   587.84         7.4365
   587.98         7.3904
   588.12         7.3372
   588.26         7.2795
   588.40         7.2196
   588.54         7.1594
   588.68         7.1011
   588.82         7.0483
   588.96         7.0050
   589.10         6.9749
   589.24         6.9611
   589.38         6.9657
   589.52         6.9893
   589.66         7.0309
   589.80         7.0875
   589.94         7.1540
   590.08         7.2240
   590.22         7.2910
   590.36         7.3487
   590.50         7.3930
   590.64         7.4228
   590.78         7.4385
   590.92         7.4410
   591.06         7.4318
   591.20         7.4145
   591.34         7.3936
   591.48         7.3722
   591.62         7.3522
   591.76         7.3342
   591.90         7.3182
   592.04         7.3029
   592.18         7.2865
   592.32         7.2677
   592.46         7.2459
   592.60         7.2222
   592.74         7.1980
   592.88         7.1752
   593.02         7.1552
   593.16         7.1396
   593.30         7.1295
   593.44         7.1244
   593.58         7.1227
   593.72         7.1223
   593.86         7.1213
   594.00         7.1181
   594.14         7.1117
   594.28         7.1018
   594.42         7.0887
   594.56         7.0727
   594.70         7.0555
   594.84         7.0392
   594.98         7.0265
   595.12         7.0192
   595.26         7.0178
   595.40         7.0206
   595.54         7.0255
   595.68         7.0310
   595.82         7.0367
   595.96         7.0418
   596.10         7.0447
   596.24         7.0444
   596.38         7.0409
   596.52         7.0342
   596.66         7.0240
   596.80         7.0110
   596.94         6.9970
   597.08         6.9847
   597.22         6.9762
   597.36         6.9729
   597.50         6.9749
   597.64         6.9817
   597.78         6.9918
   597.92         7.0029
   598.06         7.0143
   598.20         7.0265
   598.34         7.0405
   598.48         7.0561
   598.62         7.0719
   598.76         7.0865
   598.90         7.0988
   599.04         7.1083
   599.18         7.1142
   599.32         7.1161
   599.46         7.1142
   599.60         7.1075
   599.74         7.0947
   599.88         7.0747
   600.02         7.0478
   600.16         7.0154
   600.30         6.9790
   600.44         6.9408
   600.58         6.9047
   600.72         6.8744
   600.86         6.8522
   601.00         6.8377
   601.14         6.8296
   601.28         6.8259
   601.42         6.8245
   601.56         6.8241
   601.70         6.8239
   601.84         6.8235
   601.98         6.8226
   602.12         6.8212
   602.26         6.8196
   602.40         6.8190
   602.54         6.8210
   602.68         6.8265
   602.82         6.8354
   602.96         6.8464
   603.10         6.8578
   603.24         6.8676
   603.38         6.8734
   603.52         6.8725
   603.66         6.8641
   603.80         6.8491
   603.94         6.8296
   604.08         6.8083
   604.22         6.7876
   604.36         6.7697
   604.50         6.7559
   604.64         6.7473
   604.78         6.7449
   604.92         6.7491
   605.06         6.7600
   605.20         6.7764
   605.34         6.7956
   605.48         6.8146
   605.62         6.8308
   605.76         6.8430
   605.90         6.8511
   606.04         6.8558
   606.18         6.8579
   606.32         6.8578
   606.46         6.8549
   606.60         6.8485
   606.74         6.8378
   606.88         6.8231
   607.02         6.8057
   607.16         6.7868
   607.30         6.7680
   607.44         6.7505
   607.58         6.7356
   607.72         6.7240
   607.86         6.7158
   608.00         6.7107
   608.14         6.7084
   608.28         6.7086
   608.42         6.7109
   608.56         6.7144
   608.70         6.7182
   608.84         6.7202
   608.98         6.7185
   609.12         6.7122
   609.26         6.7015
   609.40         6.6876
   609.54         6.6723
   609.68         6.6567
   609.82         6.6423
   609.96         6.6304
   610.10         6.6221
   610.24         6.6176
   610.38         6.6163
   610.52         6.6171
   610.66         6.6193
   610.80         6.6215
   610.94         6.6225
   611.08         6.6214
   611.22         6.6175
   611.36         6.6108
   611.50         6.6013
   611.64         6.5899
   611.78         6.5781
   611.92         6.5675
   612.06         6.5595
   612.20         6.5547
   612.34         6.5524
   612.48         6.5509
   612.62         6.5486
   612.76         6.5446
   612.90         6.5386
   613.04         6.5307
   613.18         6.5215
   613.32         6.5117
   613.46         6.5017
   613.60         6.4918
   613.74         6.4825
   613.88         6.4750
   614.02         6.4700
   614.16         6.4684
   614.30         6.4709
   614.44         6.4770
   614.58         6.4859
   614.72         6.4964
   614.86         6.5065
   615.00         6.5143
   615.14         6.5187
   615.28         6.5199
   615.42         6.5185
   615.56         6.5145
   615.70         6.5080
   615.84         6.4988
   615.98         6.4872
   616.12         6.4738
   616.26         6.4600
   616.40         6.4473
   616.54         6.4376
   616.68         6.4321
   616.82         6.4316
   616.96         6.4361
   617.10         6.4450
   617.24         6.4573
   617.38         6.4719
   617.52         6.4875
   617.66         6.5029
   617.80         6.5171
   617.94         6.5291
   618.08         6.5379
   618.22         6.5430
   618.36         6.5445
   618.50         6.5430
   618.64         6.5402
   618.78         6.5380
   618.92         6.5380
   619.06         6.5413
   619.20         6.5483
   619.34         6.5590
   619.48         6.5727
   619.62         6.5880
   619.76         6.6029
   619.90         6.6153
   620.04         6.6236
   620.18         6.6265
   620.32         6.6236
   620.46         6.6149
   620.60         6.6011
   620.74         6.5837
   620.88         6.5638
   621.02         6.5429
   621.16         6.5227
   621.30         6.5048
   621.44         6.4902
   621.58         6.4786
   621.72         6.4698
   621.86         6.4638
   622.00         6.4603
   622.14         6.4584
   622.28         6.4575
   622.42         6.4564
   622.56         6.4539
   622.70         6.4488
   622.84         6.4404
   622.98         6.4291
   623.12         6.4153
   623.26         6.3994
   623.40         6.3816
   623.54         6.3624
   623.68         6.3425
   623.82         6.3233
   623.96         6.3057
   624.10         6.2905
   624.24         6.2778
   624.38         6.2679
   624.52         6.2607
   624.66         6.2556
   624.80         6.2524
   624.94         6.2509
   625.08         6.2505
   625.22         6.2497
   625.36         6.2477
   625.50         6.2445
   625.64         6.2410
   625.78         6.2372
   625.92         6.2331
   626.06         6.2291
   626.20         6.2260
   626.34         6.2247
   626.48         6.2256
   626.62         6.2279
   626.76         6.2298
   626.90         6.2299
   627.04         6.2270
   627.18         6.2209
   627.32         6.2124
   627.46         6.2027
   627.60         6.1933
   627.74         6.1854
   627.88         6.1803
   628.02         6.1793
   628.16         6.1836
   628.30         6.1936
   628.44         6.2087
   628.58         6.2277
   628.72         6.2489
   628.86         6.2691
   629.00         6.2853
   629.14         6.2950
   629.28         6.2973
   629.42         6.2925
   629.56         6.2820
   629.70         6.2680
   629.84         6.2524
   629.98         6.2375
   630.12         6.2247
   630.26         6.2151
   630.40         6.2087
   630.54         6.2052
   630.68         6.2038
   630.82         6.2031
   630.96         6.2018
   631.10         6.1992
   631.24         6.1946
   631.38         6.1877
   631.52         6.1791
   631.66         6.1700
   631.80         6.1620
   631.94         6.1562
   632.08         6.1526
   632.22         6.1509
   632.36         6.1505
   632.50         6.1509
   632.64         6.1519
   632.78         6.1533
   632.92         6.1546
   633.06         6.1557
   633.20         6.1562
   633.34         6.1555
   633.48         6.1532
   633.62         6.1496
   633.76         6.1452
   633.90         6.1403
   634.04         6.1349
   634.18         6.1287
   634.32         6.1222
   634.46         6.1155
   634.60         6.1090
   634.74         6.1034
   634.88         6.0993
   635.02         6.0973
   635.16         6.0979
   635.30         6.1010
   635.44         6.1058
   635.58         6.1109
   635.72         6.1149
   635.86         6.1165
   636.00         6.1145
   636.14         6.1091
   636.28         6.1011
   636.42         6.0916
   636.56         6.0817
   636.70         6.0719
   636.84         6.0627
   636.98         6.0542
   637.12         6.0467
   637.26         6.0408
   637.40         6.0372
   637.54         6.0364
   637.68         6.0380
   637.82         6.0418
   637.96         6.0471
   638.10         6.0530
   638.24         6.0585
   638.38         6.0626
   638.52         6.0642
   638.66         6.0629
   638.80         6.0586
   638.94         6.0515
   639.08         6.0416
   639.22         6.0294
   639.36         6.0156
   639.50         6.0006
   639.64         5.9856
   639.78         5.9719
   639.92         5.9603
   640.06         5.9506
   640.20         5.9423
   640.34         5.9345
   640.48         5.9265
   640.62         5.9178
   640.76         5.9075
   640.90         5.8957
   641.04         5.8829
   641.18         5.8700
   641.32         5.8578
   641.46         5.8470
   641.60         5.8379
   641.74         5.8307
   641.88         5.8248
   642.02         5.8200
   642.16         5.8163
   642.30         5.8140
   642.44         5.8134
   642.58         5.8147
   642.72         5.8178
   642.86         5.8224
   643.00         5.8288
   643.14         5.8372
   643.28         5.8480
   643.42         5.8609
   643.56         5.8755
   643.70         5.8906
   643.84         5.9050
   643.98         5.9183
   644.12         5.9295
   644.26         5.9381
   644.40         5.9426
   644.54         5.9418
   644.68         5.9353
   644.82         5.9232
   644.96         5.9061
   645.10         5.8844
   645.24         5.8590
   645.38         5.8317
   645.52         5.8049
   645.66         5.7812
   645.80         5.7625
   645.94         5.7495
   646.08         5.7421
   646.22         5.7396
   646.36         5.7415
   646.50         5.7474
   646.64         5.7564
   646.78         5.7672
   646.92         5.7777
   647.06         5.7865
   647.20         5.7927
   647.34         5.7967
   647.48         5.7986
   647.62         5.7986
   647.76         5.7964
   647.90         5.7920
   648.04         5.7848
   648.18         5.7736
   648.32         5.7574
   648.46         5.7362
   648.60         5.7111
   648.74         5.6849
   648.88         5.6606
   649.02         5.6408
   649.16         5.6282
   649.30         5.6240
   649.44         5.6285
   649.58         5.6412
   649.72         5.6613
   649.86         5.6873
   650.00         5.7169
   650.14         5.7472
   650.28         5.7749
   650.42         5.7970
   650.56         5.8116
   650.70         5.8183
   650.84         5.8181
   650.98         5.8130
   651.12         5.8050
   651.26         5.7962
   651.40         5.7876
   651.54         5.7796
   651.68         5.7720
   651.82         5.7647
   651.96         5.7569
   652.10         5.7477
   652.24         5.7370
   652.38         5.7241
   652.52         5.7087
   652.66         5.6908
   652.80         5.6714
   652.94         5.6517
   653.08         5.6331
   653.22         5.6166
   653.36         5.6025
   653.50         5.5897
   653.64         5.5763
   653.78         5.5606
   653.92         5.5404
   654.06         5.5136
   654.20         5.4783
   654.34         5.4332
   654.48         5.3772
   654.62         5.3092
   654.76         5.2282
   654.90         5.1324
   655.04         5.0200
   655.18         4.8907
   655.32         4.7477
   655.46         4.5974
   655.60         4.4480
   655.74         4.3085
   655.88         4.1883
   656.02         4.0960
   656.16         4.0382
   656.30         4.0194
   656.44         4.0409
   656.58         4.1011
   656.72         4.1956
   656.86         4.3173
   657.00         4.4571
   657.14         4.6051
   657.28         4.7512
   657.42         4.8866
   657.56         5.0052
   657.70         5.1045
   657.84         5.1857
   657.98         5.2510
   658.12         5.3030
   658.26         5.3433
   658.40         5.3734
   658.54         5.3954
   658.68         5.4116
   658.82         5.4249
   658.96         5.4376
   659.10         5.4520
   659.24         5.4700
   659.38         5.4922
   659.52         5.5187
   659.66         5.5483
   659.80         5.5797
   659.94         5.6115
   660.08         5.6425
   660.22         5.6714
   660.36         5.6969
   660.50         5.7174
   660.64         5.7318
   660.78         5.7396
   660.92         5.7410
   661.06         5.7371
   661.20         5.7294
   661.34         5.7198
   661.48         5.7093
   661.62         5.6986
   661.76         5.6884
   661.90         5.6790
   662.04         5.6708
   662.18         5.6637
   662.32         5.6573
   662.46         5.6510
   662.60         5.6440
   662.74         5.6357
   662.88         5.6253
   663.02         5.6127
   663.16         5.5979
   663.30         5.5812
   663.44         5.5633
   663.58         5.5451
   663.72         5.5283
   663.86         5.5143
   664.00         5.5042
   664.14         5.4984
   664.28         5.4971
   664.42         5.5002
   664.56         5.5072
   664.70         5.5168
   664.84         5.5277
   664.98         5.5383
   665.12         5.5471
   665.26         5.5530
   665.40         5.5554
   665.54         5.5534
   665.68         5.5467
   665.82         5.5357
   665.96         5.5215
   666.10         5.5060
   666.24         5.4911
   666.38         5.4784
   666.52         5.4686
   666.66         5.4613
   666.80         5.4561
   666.94         5.4524
   667.08         5.4491
   667.22         5.4451
   667.36         5.4399
   667.50         5.4336
   667.64         5.4269
   667.78         5.4208
   667.92         5.4163
   668.06         5.4144
   668.20         5.4155
   668.34         5.4202
   668.48         5.4288
   668.62         5.4406
   668.76         5.4540
   668.90         5.4672
   669.04         5.4780
   669.18         5.4850
   669.32         5.4870
   669.46         5.4835
   669.60         5.4747
   669.74         5.4620
   669.88         5.4475
   670.02         5.4332
   670.16         5.4209
   670.30         5.4114
   670.44         5.4047
   670.58         5.4002
   670.72         5.3972
   670.86         5.3949
   671.00         5.3928
   671.14         5.3903
   671.28         5.3866
   671.42         5.3811
   671.56         5.3741
   671.70         5.3661
   671.84         5.3576
   671.98         5.3489
   672.12         5.3405
   672.26         5.3329
   672.40         5.3265
   672.54         5.3210
   672.68         5.3163
   672.82         5.3125
   672.96         5.3095
   673.10         5.3071
   673.24         5.3054
   673.38         5.3045
   673.52         5.3049
   673.66         5.3067
   673.80         5.3092
   673.94         5.3115
   674.08         5.3129
   674.22         5.3129
   674.36         5.3113
   674.50         5.3078
   674.64         5.3027
   674.78         5.2969
   674.92         5.2910
   675.06         5.2862
   675.20         5.2832
   675.34         5.2826
   675.48         5.2843
   675.62         5.2877
   675.76         5.2919
   675.90         5.2961
   676.04         5.2999
   676.18         5.3024
   676.32         5.3031
   676.46         5.3015
   676.60         5.2977
   676.74         5.2920
   676.88         5.2845
   677.02         5.2755
   677.16         5.2649
   677.30         5.2529
   677.44         5.2402
   677.58         5.2275
   677.72         5.2159
   677.86         5.2065
   678.00         5.1999
   678.14         5.1965
   678.28         5.1960
   678.42         5.1979
   678.56         5.2021
   678.70         5.2083
   678.84         5.2164
   678.98         5.2255
   679.12         5.2348
   679.26         5.2433
   679.40         5.2502
   679.54         5.2546
   679.68         5.2559
   679.82         5.2540
   679.96         5.2493
   680.10         5.2425
   680.24         5.2347
   680.38         5.2266
   680.52         5.2188
   680.66         5.2117
   680.80         5.2051
   680.94         5.1990
   681.08         5.1937
   681.22         5.1892
   681.36         5.1856
   681.50         5.1822
   681.64         5.1784
   681.78         5.1733
   681.92         5.1666
   682.06         5.1580
   682.20         5.1478
   682.34         5.1360
   682.48         5.1234
   682.62         5.1106
   682.76         5.0985
   682.90         5.0873
   683.04         5.0775
   683.18         5.0693
   683.32         5.0625
   683.46         5.0564
   683.60         5.0506
   683.74         5.0452
   683.88         5.0403
   684.02         5.0362
   684.16         5.0333
   684.30         5.0318
   684.44         5.0316
   684.58         5.0326
   684.72         5.0343
   684.86         5.0363
   685.00         5.0383
   685.14         5.0400
   685.28         5.0403
   685.42         5.0370
   685.56         5.0265
   685.70         5.0038
   685.84         4.9641
   685.98         4.9044
   686.12         4.8239
   686.26         4.7249
   686.40         4.6120
   686.54         4.4913
   686.68         4.3703
   686.82         4.2569
   686.96         4.1591
   687.10         4.0842
   687.24         4.0373
   687.38         4.0210
   687.52         4.0347
   687.66         4.0742
   687.80         4.1320
   687.94         4.1992
   688.08         4.2667
   688.22         4.3266
   688.36         4.3741
   688.50         4.4078
   688.64         4.4288
   688.78         4.4400
   688.92         4.4448
   689.06         4.4470
   689.20         4.4501
   689.34         4.4568
   689.48         4.4688
   689.62         4.4866
   689.76         4.5094
   689.90         4.5358
   690.04         4.5641
   690.18         4.5921
   690.32         4.6176
   690.46         4.6396
   690.60         4.6582
   690.74         4.6739
   690.88         4.6873
   691.02         4.6990
   691.16         4.7094
   691.30         4.7186
   691.44         4.7267
   691.58         4.7335
   691.72         4.7390
   691.86         4.7435
   692.00         4.7474
   692.14         4.7519
   692.28         4.7577
   692.42         4.7654
   692.56         4.7749
   692.70         4.7860
   692.84         4.7980
   692.98         4.8107
   693.12         4.8242
   693.26         4.8377
   693.40         4.8502
   693.54         4.8608
   693.68         4.8692
   693.82         4.8754
   693.96         4.8798
   694.10         4.8831
   694.24         4.8864
   694.38         4.8906
   694.52         4.8963
   694.66         4.9032
   694.80         4.9104
   694.94         4.9174
   695.08         4.9237
   695.22         4.9295
   695.36         4.9351
   695.50         4.9409
   695.64         4.9472
   695.78         4.9540
   695.92         4.9609
   696.06         4.9680
   696.20         4.9760
   696.34         4.9849
   696.48         4.9944
   696.62         5.0034
   696.76         5.0107
   696.90         5.0148
   697.04         5.0145
   697.18         5.0094
   697.32         4.9999
   697.46         4.9872
   697.60         4.9723
   697.74         4.9556
   697.88         4.9375
   698.02         4.9185
   698.16         4.8994
   698.30         4.8811
   698.44         4.8648
   698.58         4.8513
   698.72         4.8411
   698.86         4.8346
   699.00         4.8314
   699.14         4.8312
   699.28         4.8332
   699.42         4.8361
   699.56         4.8391
   699.70         4.8418
   699.84         4.8438
   699.98         4.8442
   700.12         4.8422
   700.26         4.8373
   700.40         4.8296
   700.54         4.8200
   700.68         4.8102
   700.82         4.8018
   700.96         4.7963
   701.10         4.7944
   701.24         4.7966
   701.38         4.8023
   701.52         4.8104
   701.66         4.8193
   701.80         4.8276
   701.94         4.8342
   702.08         4.8382
   702.22         4.8390
   702.36         4.8366
   702.50         4.8310
   702.64         4.8224
   702.78         4.8116
   702.92         4.7996
   703.06         4.7871
   703.20         4.7753
   703.34         4.7650
   703.48         4.7562
   703.62         4.7484
   703.76         4.7412
   703.90         4.7344
   704.04         4.7280
   704.18         4.7224
   704.32         4.7187
   704.46         4.7176
   704.60         4.7193
   704.74         4.7238
   704.88         4.7310
   705.02         4.7401
   705.16         4.7504
   705.30         4.7610
   705.44         4.7709
   705.58         4.7789
   705.72         4.7845
   705.86         4.7873
   706.00         4.7875
   706.14         4.7856
   706.28         4.7826
   706.42         4.7795
   706.56         4.7769
   706.70         4.7748
   706.84         4.7728
   706.98         4.7704
   707.12         4.7673
   707.26         4.7635
   707.40         4.7585
   707.54         4.7518
   707.68         4.7426
   707.82         4.7305
   707.96         4.7159
   708.10         4.6996
   708.24         4.6834
   708.38         4.6689
   708.52         4.6572
   708.66         4.6492
   708.80         4.6449
   708.94         4.6438
   709.08         4.6456
   709.22         4.6494
   709.36         4.6551
   709.50         4.6623
   709.64         4.6708
   709.78         4.6804
   709.92         4.6905
   710.06         4.7004
   710.20         4.7095
   710.34         4.7175
   710.48         4.7243
   710.62         4.7299
   710.76         4.7344
   710.90         4.7373
   711.04         4.7377
   711.18         4.7354
   711.32         4.7308
   711.46         4.7252
   711.60         4.7201
   711.74         4.7166
   711.88         4.7156
   712.02         4.7176
   712.16         4.7226
   712.30         4.7302
   712.44         4.7399
   712.58         4.7510
   712.72         4.7626
   712.86         4.7738
   713.00         4.7836
   713.14         4.7911
   713.28         4.7956
   713.42         4.7959
   713.56         4.7912
   713.70         4.7810
   713.84         4.7662
   713.98         4.7482
   714.12         4.7284
   714.26         4.7083
   714.40         4.6893
   714.54         4.6732
   714.68         4.6615
   714.82         4.6552
   714.96         4.6545
   715.10         4.6586
   715.24         4.6661
   715.38         4.6748
   715.52         4.6822
   715.66         4.6861
   715.80         4.6847
   715.94         4.6766
   716.08         4.6619
   716.22         4.6417
   716.36         4.6176
   716.50         4.5912
   716.64         4.5637
   716.78         4.5367
   716.92         4.5113
   717.06         4.4880
   717.20         4.4670
   717.34         4.4475
   717.48         4.4283
   717.62         4.4088
   717.76         4.3891
   717.90         4.3697
   718.04         4.3512
   718.18         4.3343
   718.32         4.3201
   718.46         4.3096
   718.60         4.3036
   718.74         4.3020
   718.88         4.3042
   719.02         4.3096
   719.16         4.3176
   719.30         4.3275
   719.44         4.3385
   719.58         4.3493
   719.72         4.3598
   719.86         4.3701
   720.00         4.3815
   720.14         4.3960
   720.28         4.4156
   720.42         4.4412
   720.56         4.4727
   720.70         4.5093
   720.84         4.5498
   720.98         4.5918
   721.12         4.6323
   721.26         4.6686
   721.40         4.6989
   721.54         4.7220
   721.68         4.7376
   721.82         4.7452
   721.96         4.7441
   722.10         4.7337
   722.24         4.7144
   722.38         4.6875
   722.52         4.6556
   722.66         4.6211
   722.80         4.5860
   722.94         4.5520
   723.08         4.5206
   723.22         4.4927
   723.36         4.4688
   723.50         4.4488
   723.64         4.4326
   723.78         4.4203
   723.92         4.4115
   724.06         4.4056
   724.20         4.4013
   724.34         4.3975
   724.48         4.3935
   724.62         4.3893
   724.76         4.3857
   724.90         4.3844
   725.04         4.3869
   725.18         4.3936
   725.32         4.4039
   725.46         4.4177
   725.60         4.4346
   725.74         4.4535
   725.88         4.4731
   726.02         4.4917
   726.16         4.5074
   726.30         4.5181
   726.44         4.5218
   726.58         4.5180
   726.72         4.5074
   726.86         4.4917
   727.00         4.4732
   727.14         4.4540
   727.28         4.4360
   727.42         4.4202
   727.56         4.4071
   727.70         4.3969
   727.84         4.3896
   727.98         4.3846
   728.12         4.3809
   728.26         4.3766
   728.40         4.3712
   728.54         4.3644
   728.68         4.3564
   728.82         4.3478
   728.96         4.3399
   729.10         4.3344
   729.24         4.3328
   729.38         4.3361
   729.52         4.3441
   729.66         4.3551
   729.80         4.3667
   729.94         4.3761
   730.08         4.3813
   730.22         4.3815
   730.36         4.3767
   730.50         4.3666
   730.64         4.3521
   730.78         4.3349
   730.92         4.3172
   731.06         4.3007
   731.20         4.2867
   731.34         4.2759
   731.48         4.2684
   731.62         4.2647
   731.76         4.2649
   731.90         4.2685
   732.04         4.2752
   732.18         4.2839
   732.32         4.2941
   732.46         4.3056
   732.60         4.3186
   732.74         4.3327
   732.88         4.3469
   733.02         4.3600
   733.16         4.3710
   733.30         4.3795
   733.44         4.3853
   733.58         4.3882
   733.72         4.3879
   733.86         4.3839
   734.00         4.3766
   734.14         4.3672
   734.28         4.3570
   734.42         4.3471
   734.56         4.3384
   734.70         4.3315
   734.84         4.3261
   734.98         4.3215
   735.12         4.3161
   735.26         4.3083
   735.40         4.2973
   735.54         4.2833
   735.68         4.2671
   735.82         4.2500
   735.96         4.2331
   736.10         4.2175
   736.24         4.2037
   736.38         4.1924
   736.52         4.1844
   736.66         4.1805
   736.80         4.1809
   736.94         4.1848
   737.08         4.1903
   737.22         4.1955
   737.36         4.1983
   737.50         4.1973
   737.64         4.1914
   737.78         4.1803
   737.92         4.1648
   738.06         4.1466
   738.20         4.1278
   738.34         4.1102
   738.48         4.0953
   738.62         4.0842
   738.76         4.0784
   738.90         4.0788
   739.04         4.0854
   739.18         4.0972
   739.32         4.1125
   739.46         4.1289
   739.60         4.1434
   739.74         4.1534
   739.88         4.1574
   740.02         4.1551
   740.16         4.1466
   740.30         4.1329
   740.44         4.1155
   740.58         4.0971
   740.72         4.0806
   740.86         4.0679
   741.00         4.0603
   741.14         4.0582
   741.28         4.0617
   741.42         4.0707
   741.56         4.0841
   741.70         4.1006
   741.84         4.1188
   741.98         4.1371
   742.12         4.1543
   742.26         4.1693
   742.40         4.1815
   742.54         4.1909
   742.68         4.1975
   742.82         4.2009
   742.96         4.2009
   743.10         4.1975
   743.24         4.1909
   743.38         4.1815
   743.52         4.1693
   743.66         4.1543
   743.80         4.1371
   743.94         4.1188
   744.08         4.1006
   744.22         4.0841
