# File HD66171
# Wavelength [nm]    Normalized Amplitude
   349.70         9.5651
   349.84         9.4954
   349.98         9.4801
   350.12         9.5110
   350.26         9.5743
   350.40         9.6556
   350.54         9.7433
   350.68         9.8275
   350.82         9.8978
   350.96         9.9444
   351.10         9.9606
   351.24         9.9444
   351.38         9.8978
   351.52         9.8275
   351.66         9.7433
   351.80         9.6556
   351.94         9.5743
   352.08         9.5110
   352.22         9.4801
   352.36         9.4954
   352.50         9.5651
   352.64         9.6897
   352.78         9.8608
   352.92         10.0642
   353.06         10.2838
   353.20         10.5028
   353.34         10.7059
   353.48         10.8809
   353.62         11.0223
   353.76         11.1302
   353.90         11.2081
   354.04         11.2608
   354.18         11.2942
   354.32         11.3117
   354.46         11.3144
   354.60         11.3027
   354.74         11.2773
   354.88         11.2403
   355.02         11.1933
   355.16         11.1342
   355.30         11.0576
   355.44         10.9586
   355.58         10.8364
   355.72         10.6934
   355.86         10.5325
   356.00         10.3585
   356.14         10.1782
   356.28         10.0008
   356.42         9.8365
   356.56         9.6904
   356.70         9.5621
   356.84         9.4491
   356.98         9.3474
   357.12         9.2531
   357.26         9.1630
   357.40         9.0717
   357.54         8.9733
   357.68         8.8658
   357.82         8.7519
   357.96         8.6411
   358.10         8.5498
   358.24         8.4976
   358.38         8.5019
   358.52         8.5768
   358.66         8.7302
   358.80         8.9592
   358.94         9.2497
   359.08         9.5767
   359.22         9.9083
   359.36         10.2147
   359.50         10.4731
   359.64         10.6664
   359.78         10.7840
   359.92         10.8236
   360.06         10.7925
   360.20         10.7081
   360.34         10.5924
   360.48         10.4619
   360.62         10.3262
   360.76         10.1927
   360.90         10.0681
   361.04         9.9605
   361.18         9.8800
   361.32         9.8372
   361.46         9.8408
   361.60         9.8953
   361.74         9.9982
   361.88         10.1388
   362.02         10.3006
   362.16         10.4646
   362.30         10.6132
   362.44         10.7341
   362.58         10.8217
   362.72         10.8756
   362.86         10.8991
   363.00         10.8964
   363.14         10.8712
   363.28         10.8290
   363.42         10.7786
   363.56         10.7292
   363.70         10.6892
   363.84         10.6640
   363.98         10.6556
   364.12         10.6643
   364.26         10.6892
   364.40         10.7289
   364.54         10.7843
   364.68         10.8615
   364.82         10.9692
   364.96         11.1143
   365.10         11.2986
   365.24         11.5176
   365.38         11.7610
   365.52         12.0136
   365.66         12.2568
   365.80         12.4728
   365.94         12.6491
   366.08         12.7794
   366.22         12.8647
   366.36         12.9130
   366.50         12.9336
   366.64         12.9325
   366.78         12.9116
   366.92         12.8703
   367.06         12.8090
   367.20         12.7309
   367.34         12.6385
   367.48         12.5318
   367.62         12.4097
   367.76         12.2740
   367.90         12.1316
   368.04         11.9943
   368.18         11.8750
   368.32         11.7851
   368.46         11.7336
   368.60         11.7285
   368.74         11.7757
   368.88         11.8760
   369.02         12.0229
   369.16         12.2003
   369.30         12.3856
   369.44         12.5548
   369.58         12.6876
   369.72         12.7686
   369.86         12.7882
   370.00         12.7470
   370.14         12.6585
   370.28         12.5471
   370.42         12.4408
   370.56         12.3637
   370.70         12.3273
   370.84         12.3272
   370.98         12.3494
   371.12         12.3789
   371.26         12.4050
   371.40         12.4202
   371.54         12.4176
   371.68         12.3908
   371.82         12.3354
   371.96         12.2485
   372.10         12.1308
   372.24         11.9856
   372.38         11.8156
   372.52         11.6258
   372.66         11.4259
   372.80         11.2281
   372.94         11.0445
   373.08         10.8856
   373.22         10.7566
   373.36         10.6555
   373.50         10.5781
   373.64         10.5223
   373.78         10.4877
   373.92         10.4732
   374.06         10.4783
   374.20         10.5047
   374.34         10.5557
   374.48         10.6327
   374.62         10.7308
   374.76         10.8417
   374.90         10.9617
   375.04         11.0947
   375.18         11.2496
   375.32         11.4319
   375.46         11.6369
   375.60         11.8499
   375.74         12.0507
   375.88         12.2197
   376.02         12.3460
   376.16         12.4340
   376.30         12.5011
   376.44         12.5710
   376.58         12.6705
   376.72         12.8236
   376.86         13.0436
   377.00         13.3288
   377.14         13.6646
   377.28         14.0316
   377.42         14.4108
   377.56         14.7825
   377.70         15.1234
   377.84         15.4091
   377.98         15.6187
   378.12         15.7381
   378.26         15.7609
   378.40         15.6873
   378.54         15.5221
   378.68         15.2756
   378.82         14.9674
   378.96         14.6258
   379.10         14.2859
   379.24         13.9868
   379.38         13.7641
   379.52         13.6424
   379.66         13.6342
   379.80         13.7425
   379.94         13.9589
   380.08         14.2602
   380.22         14.6101
   380.36         14.9660
   380.50         15.2853
   380.64         15.5292
   380.78         15.6644
   380.92         15.6662
   381.06         15.5251
   381.20         15.2490
   381.34         14.8605
   381.48         14.3900
   381.62         13.8695
   381.76         13.3288
   381.90         12.7921
   382.04         12.2753
   382.18         11.7879
   382.32         11.3372
   382.46         10.9279
   382.60         10.5590
   382.74         10.2269
   382.88         9.9321
   383.02         9.6850
   383.16         9.5044
   383.30         9.4114
   383.44         9.4243
   383.58         9.5566
   383.72         9.8143
   383.86         10.1904
   384.00         10.6645
   384.14         11.2078
   384.28         11.7882
   384.42         12.3693
   384.56         12.9121
   384.70         13.3790
   384.84         13.7397
   384.98         13.9795
   385.12         14.1018
   385.26         14.1255
   385.40         14.0791
   385.54         13.9958
   385.68         13.9088
   385.82         13.8440
   385.96         13.8152
   386.10         13.8241
   386.24         13.8661
   386.38         13.9324
   386.52         14.0097
   386.66         14.0820
   386.80         14.1333
   386.94         14.1504
   387.08         14.1252
   387.22         14.0556
   387.36         13.9453
   387.50         13.8020
   387.64         13.6359
   387.78         13.4572
   387.92         13.2748
   388.06         13.0969
   388.20         12.9337
   388.34         12.7965
   388.48         12.6954
   388.62         12.6387
   388.76         12.6331
   388.90         12.6816
   389.04         12.7795
   389.18         12.9138
   389.32         13.0686
   389.46         13.2310
   389.60         13.3932
   389.74         13.5513
   389.88         13.7041
   390.02         13.8526
   390.16         14.0013
   390.30         14.1576
   390.44         14.3293
   390.58         14.5187
   390.72         14.7182
   390.86         14.9116
   391.00         15.0781
   391.14         15.1985
   391.28         15.2555
   391.42         15.2327
   391.56         15.1153
   391.70         14.8896
   391.84         14.5455
   391.98         14.0791
   392.12         13.4948
   392.26         12.8054
   392.40         12.0332
   392.54         11.2105
   392.68         10.3793
   392.82         9.5874
   392.96         8.8838
   393.10         8.3128
   393.24         7.9111
   393.38         7.7062
   393.52         7.7150
   393.66         7.9409
   393.80         8.3709
   393.94         8.9736
   394.08         9.7029
   394.22         10.5040
   394.36         11.3205
   394.50         12.1016
   394.64         12.8067
   394.78         13.4069
   394.92         13.8820
   395.06         14.2176
   395.20         14.4026
   395.34         14.4276
   395.48         14.2849
   395.62         13.9717
   395.76         13.4956
   395.90         12.8801
   396.04         12.1660
   396.18         11.4061
   396.32         10.6613
   396.46         9.9954
   396.60         9.4697
   396.74         9.1367
   396.88         9.0336
   397.02         9.1768
   397.16         9.5602
   397.30         10.1561
   397.44         10.9177
   397.58         11.7859
   397.72         12.6987
   397.86         13.5994
   398.00         14.4414
   398.14         15.1912
   398.28         15.8303
   398.42         16.3553
   398.56         16.7750
   398.70         17.1059
   398.84         17.3676
   398.98         17.5798
   399.12         17.7586
   399.26         17.9127
   399.40         18.0425
   399.54         18.1454
   399.68         18.2200
   399.82         18.2698
   399.96         18.3033
   400.10         18.3321
   400.24         18.3670
   400.38         18.4151
   400.52         18.4785
   400.66         18.5561
   400.80         18.6453
   400.94         18.7423
   401.08         18.8434
   401.22         18.9457
   401.36         19.0470
   401.50         19.1459
   401.64         19.2397
   401.78         19.3223
   401.92         19.3859
   402.06         19.4253
   402.20         19.4406
   402.34         19.4351
   402.48         19.4151
   402.62         19.3881
   402.76         19.3615
   402.90         19.3415
   403.04         19.3305
   403.18         19.3255
   403.32         19.3188
   403.46         19.3016
   403.60         19.2689
   403.74         19.2240
   403.88         19.1747
   404.02         19.1292
   404.16         19.0917
   404.30         19.0598
   404.44         19.0280
   404.58         18.9936
   404.72         18.9594
   404.86         18.9313
   405.00         18.9131
   405.14         18.9032
   405.28         18.8946
   405.42         18.8795
   405.56         18.8498
   405.70         18.8009
   405.84         18.7330
   405.98         18.6525
   406.12         18.5743
   406.26         18.5154
   406.40         18.4848
   406.54         18.4801
   406.68         18.4940
   406.82         18.5205
   406.96         18.5582
   407.10         18.6083
   407.24         18.6714
   407.38         18.7479
   407.52         18.8375
   407.66         18.9404
   407.80         19.0570
   407.94         19.1891
   408.08         19.3355
   408.22         19.4894
   408.36         19.6392
   408.50         19.7700
   408.64         19.8659
   408.78         19.9098
   408.92         19.8823
   409.06         19.7683
   409.20         19.5668
   409.34         19.2940
   409.48         18.9772
   409.62         18.6471
   409.76         18.3345
   409.90         18.0696
   410.04         17.8805
   410.18         17.7903
   410.32         17.8115
   410.46         17.9426
   410.60         18.1695
   410.74         18.4692
   410.88         18.8142
   411.02         19.1754
   411.16         19.5232
   411.30         19.8315
   411.44         20.0813
   411.58         20.2645
   411.72         20.3856
   411.86         20.4553
   412.00         20.4826
   412.14         20.4725
   412.28         20.4291
   412.42         20.3594
   412.56         20.2742
   412.70         20.1890
   412.84         20.1197
   412.98         20.0751
   413.12         20.0537
   413.26         20.0501
   413.40         20.0607
   413.54         20.0839
   413.68         20.1174
   413.82         20.1571
   413.96         20.1987
   414.10         20.2357
   414.24         20.2592
   414.38         20.2606
   414.52         20.2350
   414.66         20.1835
   414.80         20.1141
   414.94         20.0403
   415.08         19.9775
   415.22         19.9393
   415.36         19.9335
   415.50         19.9596
   415.64         20.0114
   415.78         20.0838
   415.92         20.1728
   416.06         20.2706
   416.20         20.3631
   416.34         20.4327
   416.48         20.4639
   416.62         20.4467
   416.76         20.3777
   416.90         20.2607
   417.04         20.1060
   417.18         19.9290
   417.32         19.7475
   417.46         19.5771
   417.60         19.4289
   417.74         19.3101
   417.88         19.2250
   418.02         19.1746
   418.16         19.1573
   418.30         19.1693
   418.44         19.2027
   418.58         19.2444
   418.72         19.2811
   418.86         19.3050
   419.00         19.3132
   419.14         19.3061
   419.28         19.2863
   419.42         19.2588
   419.56         19.2297
   419.70         19.2052
   419.84         19.1932
   419.98         19.2015
   420.12         19.2355
   420.26         19.2982
   420.40         19.3896
   420.54         19.5046
   420.68         19.6331
   420.82         19.7627
   420.96         19.8802
   421.10         19.9715
   421.24         20.0212
   421.38         20.0137
   421.52         19.9365
   421.66         19.7863
   421.80         19.5744
   421.94         19.3239
   422.08         19.0614
   422.22         18.8112
   422.36         18.5924
   422.50         18.4192
   422.64         18.3007
   422.78         18.2412
   422.92         18.2410
   423.06         18.2959
   423.20         18.3991
   423.34         18.5420
   423.48         18.7108
   423.62         18.8846
   423.76         19.0388
   423.90         19.1521
   424.04         19.2144
   424.18         19.2297
   424.32         19.2107
   424.46         19.1718
   424.60         19.1220
   424.74         19.0637
   424.88         18.9951
   425.02         18.9174
   425.16         18.8401
   425.30         18.7775
   425.44         18.7420
   425.58         18.7391
   425.72         18.7650
   425.86         18.8069
   426.00         18.8451
   426.14         18.8579
   426.28         18.8294
   426.42         18.7554
   426.56         18.6439
   426.70         18.5093
   426.84         18.3660
   426.98         18.2273
   427.12         18.1057
   427.26         18.0101
   427.40         17.9430
   427.54         17.9039
   427.68         17.8912
   427.82         17.8992
   427.96         17.9156
   428.10         17.9248
   428.24         17.9124
   428.38         17.8679
   428.52         17.7842
   428.66         17.6577
   428.80         17.4880
   428.94         17.2778
   429.08         17.0310
   429.22         16.7516
   429.36         16.4429
   429.50         16.1090
   429.64         15.7555
   429.78         15.3892
   429.92         15.0198
   430.06         14.6637
   430.20         14.3464
   430.34         14.0999
   430.48         13.9588
   430.62         13.9542
   430.76         14.1059
   430.90         14.4168
   431.04         14.8694
   431.18         15.4260
   431.32         16.0351
   431.46         16.6451
   431.60         17.2145
   431.74         17.7155
   431.88         18.1320
   432.02         18.4578
   432.16         18.6947
   432.30         18.8538
   432.44         18.9531
   432.58         19.0119
   432.72         19.0439
   432.86         19.0533
   433.00         19.0371
   433.14         18.9916
   433.28         18.9149
   433.42         18.8082
   433.56         18.6770
   433.70         18.5328
   433.84         18.3929
   433.98         18.2787
   434.12         18.2121
   434.26         18.2120
   434.40         18.2888
   434.54         18.4403
   434.68         18.6542
   434.82         18.9117
   434.96         19.1908
   435.10         19.4693
   435.24         19.7292
   435.38         19.9606
   435.52         20.1630
   435.66         20.3438
   435.80         20.5134
   435.94         20.6774
   436.08         20.8340
   436.22         20.9732
   436.36         21.0809
   436.50         21.1440
   436.64         21.1556
   436.78         21.1181
   436.92         21.0395
   437.06         20.9251
   437.20         20.7741
   437.34         20.5844
   437.48         20.3598
   437.62         20.1113
   437.76         19.8552
   437.90         19.6093
   438.04         19.3901
   438.18         19.2113
   438.32         19.0850
   438.46         19.0216
   438.60         19.0287
   438.74         19.1066
   438.88         19.2476
   439.02         19.4371
   439.16         19.6562
   439.30         19.8809
   439.44         20.0846
   439.58         20.2439
   439.72         20.3458
   439.86         20.3927
   440.00         20.4008
   440.14         20.3933
   440.28         20.3895
   440.42         20.4010
   440.56         20.4357
   440.70         20.5007
   440.84         20.6017
   440.98         20.7401
   441.12         20.9098
   441.26         21.0976
   441.40         21.2866
   441.54         21.4621
   441.68         21.6146
   441.82         21.7400
   441.96         21.8377
   442.10         21.9101
   442.24         21.9603
   442.38         21.9897
   442.52         21.9987
   442.66         21.9886
   442.80         21.9619
   442.94         21.9221
   443.08         21.8741
   443.22         21.8249
   443.36         21.7814
   443.50         21.7472
   443.64         21.7232
   443.78         21.7091
   443.92         21.7069
   444.06         21.7190
   444.20         21.7421
   444.34         21.7660
   444.48         21.7776
   444.62         21.7652
   444.76         21.7218
   444.90         21.6457
   445.04         21.5421
   445.18         21.4217
   445.32         21.2973
   445.46         21.1806
   445.60         21.0820
   445.74         21.0120
   445.88         20.9809
   446.02         20.9969
   446.16         21.0643
   446.30         21.1822
   446.44         21.3449
   446.58         21.5410
   446.72         21.7529
   446.86         21.9599
   447.00         22.1436
   447.14         22.2925
   447.28         22.4005
   447.42         22.4668
   447.56         22.4955
   447.70         22.4923
   447.84         22.4621
   447.98         22.4112
   448.12         22.3469
   448.26         22.2762
   448.40         22.2067
   448.54         22.1460
   448.68         22.1007
   448.82         22.0739
   448.96         22.0660
   449.10         22.0766
   449.24         22.1070
   449.38         22.1586
   449.52         22.2316
   449.66         22.3235
   449.80         22.4302
   449.94         22.5459
   450.08         22.6633
   450.22         22.7719
   450.36         22.8587
   450.50         22.9134
   450.64         22.9325
   450.78         22.9170
   450.92         22.8707
   451.06         22.7996
   451.20         22.7098
   451.34         22.6054
   451.48         22.4890
   451.62         22.3626
   451.76         22.2291
   451.90         22.0908
   452.04         21.9469
   452.18         21.7951
   452.32         21.6365
   452.46         21.4788
   452.60         21.3349
   452.74         21.2189
   452.88         21.1429
   453.02         21.1147
   453.16         21.1381
   453.30         21.2111
   453.44         21.3248
   453.58         21.4631
   453.72         21.6062
   453.86         21.7357
   454.00         21.8381
   454.14         21.9048
   454.28         21.9338
   454.42         21.9310
   454.56         21.9079
   454.70         21.8787
   454.84         21.8591
   454.98         21.8642
   455.12         21.9033
   455.26         21.9769
   455.40         22.0793
   455.54         22.2021
   455.68         22.3365
   455.82         22.4742
   455.96         22.6077
   456.10         22.7312
   456.24         22.8397
   456.38         22.9307
   456.52         23.0051
   456.66         23.0642
   456.80         23.1072
   456.94         23.1330
   457.08         23.1408
   457.22         23.1286
   457.36         23.0928
   457.50         23.0314
   457.64         22.9453
   457.78         22.8392
   457.92         22.7221
   458.06         22.6055
   458.20         22.4992
   458.34         22.4096
   458.48         22.3391
   458.62         22.2879
   458.76         22.2561
   458.90         22.2423
   459.04         22.2436
   459.18         22.2554
   459.32         22.2726
   459.46         22.2902
   459.60         22.3064
   459.74         22.3227
   459.88         22.3413
   460.02         22.3635
   460.16         22.3897
   460.30         22.4186
   460.44         22.4456
   460.58         22.4652
   460.72         22.4749
   460.86         22.4766
   461.00         22.4744
   461.14         22.4716
   461.28         22.4720
   461.42         22.4796
   461.56         22.4958
   461.70         22.5200
   461.84         22.5505
   461.98         22.5840
   462.12         22.6153
   462.26         22.6403
   462.40         22.6556
   462.54         22.6567
   462.68         22.6391
   462.82         22.6014
   462.96         22.5472
   463.10         22.4835
   463.24         22.4176
   463.38         22.3562
   463.52         22.3035
   463.66         22.2595
   463.80         22.2217
   463.94         22.1885
   464.08         22.1580
   464.22         22.1277
   464.36         22.0954
   464.50         22.0616
   464.64         22.0312
   464.78         22.0137
   464.92         22.0197
   465.06         22.0540
   465.20         22.1145
   465.34         22.1944
   465.48         22.2842
   465.62         22.3719
   465.76         22.4454
   465.90         22.4951
   466.04         22.5166
   466.18         22.5087
   466.32         22.4736
   466.46         22.4179
   466.60         22.3525
   466.74         22.2884
   466.88         22.2348
   467.02         22.1995
   467.16         22.1881
   467.30         22.2027
   467.44         22.2407
   467.58         22.2936
   467.72         22.3490
   467.86         22.3960
   468.00         22.4272
   468.14         22.4397
   468.28         22.4370
   468.42         22.4262
   468.56         22.4118
   468.70         22.3950
   468.84         22.3749
   468.98         22.3493
   469.12         22.3150
   469.26         22.2689
   469.40         22.2084
   469.54         22.1329
   469.68         22.0451
   469.82         21.9509
   469.96         21.8581
   470.10         21.7741
   470.24         21.7036
   470.38         21.6498
   470.52         21.6173
   470.66         21.6115
   470.80         21.6367
   470.94         21.6939
   471.08         21.7784
   471.22         21.8816
   471.36         21.9949
   471.50         22.1091
   471.64         22.2150
   471.78         22.3053
   471.92         22.3736
   472.06         22.4152
   472.20         22.4277
   472.34         22.4121
   472.48         22.3720
   472.62         22.3126
   472.76         22.2395
   472.90         22.1600
   473.04         22.0851
   473.18         22.0266
   473.32         21.9930
   473.46         21.9890
   473.60         22.0159
   473.74         22.0716
   473.88         22.1519
   474.02         22.2498
   474.16         22.3554
   474.30         22.4568
   474.44         22.5423
   474.58         22.6037
   474.72         22.6392
   474.86         22.6519
   475.00         22.6446
   475.14         22.6190
   475.28         22.5762
   475.42         22.5183
   475.56         22.4499
   475.70         22.3779
   475.84         22.3090
   475.98         22.2484
   476.12         22.2007
   476.26         22.1695
   476.40         22.1572
   476.54         22.1657
   476.68         22.1949
   476.82         22.2419
   476.96         22.3029
   477.10         22.3742
   477.24         22.4506
   477.38         22.5240
   477.52         22.5836
   477.66         22.6187
   477.80         22.6213
   477.94         22.5900
   478.08         22.5301
   478.22         22.4527
   478.36         22.3704
   478.50         22.2923
   478.64         22.2243
   478.78         22.1720
   478.92         22.1415
   479.06         22.1357
   479.20         22.1521
   479.34         22.1837
   479.48         22.2221
   479.62         22.2591
   479.76         22.2869
   479.90         22.3005
   480.04         22.2993
   480.18         22.2876
   480.32         22.2728
   480.46         22.2647
   480.60         22.2736
   480.74         22.3068
   480.88         22.3645
   481.02         22.4387
   481.16         22.5171
   481.30         22.5897
   481.44         22.6488
   481.58         22.6873
   481.72         22.6978
   481.86         22.6763
   482.00         22.6261
   482.14         22.5559
   482.28         22.4749
   482.42         22.3933
   482.56         22.3214
   482.70         22.2667
   482.84         22.2323
   482.98         22.2177
   483.12         22.2204
   483.26         22.2353
   483.40         22.2546
   483.54         22.2705
   483.68         22.2777
   483.82         22.2744
   483.96         22.2613
   484.10         22.2390
   484.24         22.2043
   484.38         22.1524
   484.52         22.0788
   484.66         21.9770
   484.80         21.8334
   484.94         21.6315
   485.08         21.3617
   485.22         21.0263
   485.36         20.6402
   485.50         20.2279
   485.64         19.8193
   485.78         19.4447
   485.92         19.1296
   486.06         18.8922
   486.20         18.7457
   486.34         18.6991
   486.48         18.7538
   486.62         18.9009
   486.76         19.1220
   486.90         19.3937
   487.04         19.6926
   487.18         19.9956
   487.32         20.2789
   487.46         20.5234
   487.60         20.7212
   487.74         20.8742
   487.88         20.9870
   488.02         21.0625
   488.16         21.1035
   488.30         21.1160
   488.44         21.1099
   488.58         21.0992
   488.72         21.0986
   488.86         21.1203
   489.00         21.1719
   489.14         21.2548
   489.28         21.3658
   489.42         21.5019
   489.56         21.6601
   489.70         21.8322
   489.84         22.0037
   489.98         22.1578
   490.12         22.2811
   490.26         22.3663
   490.40         22.4115
   490.54         22.4184
   490.68         22.3890
   490.82         22.3254
   490.96         22.2283
   491.10         22.0973
   491.24         21.9337
   491.38         21.7431
   491.52         21.5381
   491.66         21.3377
   491.80         21.1625
   491.94         21.0324
   492.08         20.9629
   492.22         20.9593
   492.36         21.0159
   492.50         21.1198
   492.64         21.2565
   492.78         21.4097
   492.92         21.5610
   493.06         21.6931
   493.20         21.7911
   493.34         21.8467
   493.48         21.8603
   493.62         21.8412
   493.76         21.8046
   493.90         21.7692
   494.04         21.7540
   494.18         21.7706
   494.32         21.8205
   494.46         21.8958
   494.60         21.9784
   494.74         22.0447
   494.88         22.0749
   495.02         22.0580
   495.16         21.9946
   495.30         21.8943
   495.44         21.7728
   495.58         21.6475
   495.72         21.5348
   495.86         21.4456
   496.00         21.3859
   496.14         21.3590
   496.28         21.3649
   496.42         21.4010
   496.56         21.4624
   496.70         21.5389
   496.84         21.6149
   496.98         21.6743
   497.12         21.7026
   497.26         21.6888
   497.40         21.6309
   497.54         21.5384
   497.68         21.4262
   497.82         21.3092
   497.96         21.2000
   498.10         21.1072
   498.24         21.0361
   498.38         20.9920
   498.52         20.9792
   498.66         21.0001
   498.80         21.0529
   498.94         21.1310
   499.08         21.2250
   499.22         21.3228
   499.36         21.4080
   499.50         21.4631
   499.64         21.4746
   499.78         21.4368
   499.92         21.3550
   500.06         21.2425
   500.20         21.1129
   500.34         20.9752
   500.48         20.8351
   500.62         20.6960
   500.76         20.5596
   500.90         20.4288
   501.04         20.3079
   501.18         20.2010
   501.32         20.1116
   501.46         20.0442
   501.60         20.0021
   501.74         19.9868
   501.88         19.9968
   502.02         20.0297
   502.16         20.0849
   502.30         20.1635
   502.44         20.2657
   502.58         20.3867
   502.72         20.5155
   502.86         20.6374
   503.00         20.7380
   503.14         20.8075
   503.28         20.8425
   503.42         20.8451
   503.56         20.8229
   503.70         20.7859
   503.84         20.7421
   503.98         20.6979
   504.12         20.6593
   504.26         20.6300
   504.40         20.6136
   504.54         20.6144
   504.68         20.6355
   504.82         20.6792
   504.96         20.7464
   505.10         20.8348
   505.24         20.9384
   505.38         21.0491
   505.52         21.1570
   505.66         21.2544
   505.80         21.3388
   505.94         21.4115
   506.08         21.4716
   506.22         21.5151
   506.36         21.5371
   506.50         21.5347
   506.64         21.5093
   506.78         21.4642
   506.92         21.4010
   507.06         21.3221
   507.20         21.2320
   507.34         21.1377
   507.48         21.0479
   507.62         20.9709
   507.76         20.9134
   507.90         20.8795
   508.04         20.8722
   508.18         20.8925
   508.32         20.9402
   508.46         21.0131
   508.60         21.1036
   508.74         21.1980
   508.88         21.2817
   509.02         21.3435
   509.16         21.3770
   509.30         21.3797
   509.44         21.3518
   509.58         21.2977
   509.72         21.2262
   509.86         21.1474
   510.00         21.0712
   510.14         21.0065
   510.28         20.9593
   510.42         20.9323
   510.56         20.9263
   510.70         20.9414
   510.84         20.9763
   510.98         21.0276
   511.12         21.0900
   511.26         21.1563
   511.40         21.2179
   511.54         21.2668
   511.68         21.2972
   511.82         21.3056
   511.96         21.2899
   512.10         21.2513
   512.24         21.1946
   512.38         21.1264
   512.52         21.0546
   512.66         20.9866
   512.80         20.9263
   512.94         20.8730
   513.08         20.8257
   513.22         20.7841
   513.36         20.7473
   513.50         20.7135
   513.64         20.6809
   513.78         20.6497
   513.92         20.6217
   514.06         20.5992
   514.20         20.5845
   514.34         20.5808
   514.48         20.5915
   514.62         20.6191
   514.76         20.6633
   514.90         20.7193
   515.04         20.7776
   515.18         20.8263
   515.32         20.8535
   515.46         20.8451
   515.60         20.7866
   515.74         20.6674
   515.88         20.4824
   516.02         20.2314
   516.16         19.9200
   516.30         19.5624
   516.44         19.1843
   516.58         18.8185
   516.72         18.4976
   516.86         18.2494
   517.00         18.0916
   517.14         18.0259
   517.28         18.0385
   517.42         18.1083
   517.56         18.2147
   517.70         18.3392
   517.84         18.4650
   517.98         18.5776
   518.12         18.6663
   518.26         18.7274
   518.40         18.7666
   518.54         18.7972
   518.68         18.8346
   518.82         18.8959
   518.96         18.9966
   519.10         19.1437
   519.24         19.3304
   519.38         19.5376
   519.52         19.7400
   519.66         19.9129
   519.80         20.0401
   519.94         20.1200
   520.08         20.1639
   520.22         20.1866
   520.36         20.1969
   520.50         20.1979
   520.64         20.1937
   520.78         20.1906
   520.92         20.1958
   521.06         20.2157
   521.20         20.2527
   521.34         20.3037
   521.48         20.3592
   521.62         20.4052
   521.76         20.4288
   521.90         20.4222
   522.04         20.3842
   522.18         20.3201
   522.32         20.2396
   522.46         20.1559
   522.60         20.0832
   522.74         20.0336
   522.88         20.0147
   523.02         20.0297
   523.16         20.0810
   523.30         20.1688
   523.44         20.2879
   523.58         20.4265
   523.72         20.5695
   523.86         20.7015
   524.00         20.8095
   524.14         20.8841
   524.28         20.9224
   524.42         20.9275
   524.56         20.9064
   524.70         20.8680
   524.84         20.8211
   524.98         20.7717
   525.12         20.7218
   525.26         20.6683
   525.40         20.6033
   525.54         20.5167
   525.68         20.4012
   525.82         20.2519
   525.96         20.0676
   526.10         19.8535
   526.24         19.6206
   526.38         19.3856
   526.52         19.1690
   526.66         18.9916
   526.80         18.8711
   526.94         18.8192
   527.08         18.8393
   527.22         18.9266
   527.36         19.0693
   527.50         19.2502
   527.64         19.4504
   527.78         19.6530
   527.92         19.8461
   528.06         20.0243
   528.20         20.1867
   528.34         20.3340
   528.48         20.4655
   528.62         20.5793
   528.76         20.6733
   528.90         20.7463
   529.04         20.7985
   529.18         20.8304
   529.32         20.8430
   529.46         20.8386
   529.60         20.8213
   529.74         20.7970
   529.88         20.7732
   530.02         20.7583
   530.16         20.7597
   530.30         20.7808
   530.44         20.8210
   530.58         20.8747
   530.72         20.9328
   530.86         20.9853
   531.00         21.0233
   531.14         21.0395
   531.28         21.0283
   531.42         20.9875
   531.56         20.9169
   531.70         20.8157
   531.84         20.6860
   531.98         20.5357
   532.12         20.3765
   532.26         20.2201
   532.40         20.0782
   532.54         19.9609
   532.68         19.8743
   532.82         19.8201
   532.96         19.7965
   533.10         19.8000
   533.24         19.8255
   533.38         19.8679
   533.52         19.9213
   533.66         19.9790
   533.80         20.0337
   533.94         20.0796
   534.08         20.1137
   534.22         20.1377
   534.36         20.1586
   534.50         20.1871
   534.64         20.2318
   534.78         20.2950
   534.92         20.3749
   535.06         20.4664
   535.20         20.5608
   535.34         20.6472
   535.48         20.7162
   535.62         20.7609
   535.76         20.7777
   535.90         20.7646
   536.04         20.7221
   536.18         20.6533
   536.32         20.5656
   536.46         20.4702
   536.60         20.3799
   536.74         20.3059
   536.88         20.2572
   537.02         20.2389
   537.16         20.2503
   537.30         20.2857
   537.44         20.3380
   537.58         20.3992
   537.72         20.4597
   537.86         20.5102
   538.00         20.5432
   538.14         20.5542
   538.28         20.5429
   538.42         20.5102
   538.56         20.4574
   538.70         20.3877
   538.84         20.3078
   538.98         20.2258
   539.12         20.1471
   539.26         20.0724
   539.40         20.0006
   539.54         19.9318
   539.68         19.8680
   539.82         19.8118
   539.96         19.7662
   540.10         19.7349
   540.24         19.7211
   540.38         19.7251
   540.52         19.7459
   540.66         19.7833
   540.80         19.8383
   540.94         19.9111
   541.08         19.9986
   541.22         20.0947
   541.36         20.1930
   541.50         20.2875
   541.64         20.3720
   541.78         20.4390
   541.92         20.4835
   542.06         20.5049
   542.20         20.5056
   542.34         20.4887
   542.48         20.4583
   542.62         20.4206
   542.76         20.3841
   542.90         20.3577
   543.04         20.3487
   543.18         20.3617
   543.32         20.3959
   543.46         20.4445
   543.60         20.4956
   543.74         20.5371
   543.88         20.5626
   544.02         20.5730
   544.16         20.5709
   544.30         20.5560
   544.44         20.5268
   544.58         20.4852
   544.72         20.4369
   544.86         20.3900
   545.00         20.3526
   545.14         20.3312
   545.28         20.3282
   545.42         20.3410
   545.56         20.3620
   545.70         20.3821
   545.84         20.3937
   545.98         20.3924
   546.12         20.3778
   546.26         20.3541
   546.40         20.3269
   546.54         20.2990
   546.68         20.2684
   546.82         20.2312
   546.96         20.1857
   547.10         20.1352
   547.24         20.0870
   547.38         20.0473
   547.52         20.0189
   547.66         20.0011
   547.80         19.9913
   547.94         19.9873
   548.08         19.9888
   548.22         19.9974
   548.36         20.0160
   548.50         20.0473
   548.64         20.0910
   548.78         20.1436
   548.92         20.2000
   549.06         20.2558
   549.20         20.3069
   549.34         20.3503
   549.48         20.3838
   549.62         20.4052
   549.76         20.4135
   549.90         20.4089
   550.04         20.3906
   550.18         20.3573
   550.32         20.3100
   550.46         20.2527
   550.60         20.1916
   550.74         20.1351
   550.88         20.0920
   551.02         20.0688
   551.16         20.0665
   551.30         20.0811
   551.44         20.1060
   551.58         20.1353
   551.72         20.1623
   551.86         20.1797
   552.00         20.1825
   552.14         20.1701
   552.28         20.1440
   552.42         20.1063
   552.56         20.0592
   552.70         20.0056
   552.84         19.9498
   552.98         19.8982
   553.12         19.8581
   553.26         19.8354
   553.40         19.8332
   553.54         19.8512
   553.68         19.8864
   553.82         19.9358
   553.96         19.9985
   554.10         20.0729
   554.24         20.1557
   554.38         20.2420
   554.52         20.3262
   554.66         20.4020
   554.80         20.4621
   554.94         20.5005
   555.08         20.5141
   555.22         20.5030
   555.36         20.4694
   555.50         20.4177
   555.64         20.3540
   555.78         20.2840
   555.92         20.2128
   556.06         20.1450
   556.20         20.0837
   556.34         20.0308
   556.48         19.9877
   556.62         19.9549
   556.76         19.9317
   556.90         19.9168
   557.04         19.9091
   557.18         19.9073
   557.32         19.9098
   557.46         19.9148
   557.60         19.9183
   557.74         19.9139
   557.88         19.8954
   558.02         19.8592
   558.16         19.8059
   558.30         19.7383
   558.44         19.6617
   558.58         19.5822
   558.72         19.5052
   558.86         19.4351
   559.00         19.3757
   559.14         19.3293
   559.28         19.2952
   559.42         19.2716
   559.56         19.2582
   559.70         19.2563
   559.84         19.2667
   559.98         19.2881
   560.12         19.3191
   560.26         19.3577
   560.40         19.4011
   560.54         19.4458
   560.68         19.4878
   560.82         19.5237
   560.96         19.5502
   561.10         19.5650
   561.24         19.5660
   561.38         19.5523
   561.52         19.5241
   561.66         19.4838
   561.80         19.4373
   561.94         19.3939
   562.08         19.3638
   562.22         19.3543
   562.36         19.3663
   562.50         19.3965
   562.64         19.4407
   562.78         19.4944
   562.92         19.5515
   563.06         19.6066
   563.20         19.6560
   563.34         19.6990
   563.48         19.7366
   563.62         19.7697
   563.76         19.7974
   563.90         19.8169
   564.04         19.8267
   564.18         19.8265
   564.32         19.8182
   564.46         19.8036
   564.60         19.7827
   564.74         19.7533
   564.88         19.7123
   565.02         19.6586
   565.16         19.5945
   565.30         19.5236
   565.44         19.4484
   565.58         19.3726
   565.72         19.3013
   565.86         19.2394
   566.00         19.1915
   566.14         19.1622
   566.28         19.1544
   566.42         19.1680
   566.56         19.2005
   566.70         19.2492
   566.84         19.3106
   566.98         19.3799
   567.12         19.4504
   567.26         19.5150
   567.40         19.5668
   567.54         19.6004
   567.68         19.6126
   567.82         19.6027
   567.96         19.5725
   568.10         19.5275
   568.24         19.4755
   568.38         19.4247
   568.52         19.3811
   568.66         19.3501
   568.80         19.3350
   568.94         19.3362
   569.08         19.3499
   569.22         19.3706
   569.36         19.3936
   569.50         19.4147
   569.64         19.4289
   569.78         19.4302
   569.92         19.4134
   570.06         19.3758
   570.20         19.3191
   570.34         19.2495
   570.48         19.1753
   570.62         19.1051
   570.76         19.0447
   570.90         18.9967
   571.04         18.9631
   571.18         18.9474
   571.32         18.9527
   571.46         18.9803
   571.60         19.0294
   571.74         19.0977
   571.88         19.1818
   572.02         19.2778
   572.16         19.3796
   572.30         19.4800
   572.44         19.5719
   572.58         19.6502
   572.72         19.7126
   572.86         19.7585
   573.00         19.7881
   573.14         19.8019
   573.28         19.8010
   573.42         19.7864
   573.56         19.7612
   573.70         19.7305
   573.84         19.6996
   573.98         19.6711
   574.12         19.6464
   574.26         19.6249
   574.40         19.6046
   574.54         19.5838
   574.68         19.5612
   574.82         19.5358
   574.96         19.5073
   575.10         19.4755
   575.24         19.4399
   575.38         19.4013
   575.52         19.3627
   575.66         19.3275
   575.80         19.2996
   575.94         19.2824
   576.08         19.2781
   576.22         19.2867
   576.36         19.3066
   576.50         19.3349
   576.64         19.3678
   576.78         19.4008
   576.92         19.4292
   577.06         19.4494
   577.20         19.4589
   577.34         19.4560
   577.48         19.4399
   577.62         19.4114
   577.76         19.3719
   577.90         19.3244
   578.04         19.2747
   578.18         19.2294
   578.32         19.1938
   578.46         19.1711
   578.60         19.1627
   578.74         19.1678
   578.88         19.1852
   579.02         19.2144
   579.16         19.2553
   579.30         19.3075
   579.44         19.3672
   579.58         19.4282
   579.72         19.4848
   579.86         19.5331
   580.00         19.5710
   580.14         19.5984
   580.28         19.6168
   580.42         19.6274
   580.56         19.6311
   580.70         19.6289
   580.84         19.6215
   580.98         19.6111
   581.12         19.6003
   581.26         19.5913
   581.40         19.5846
   581.54         19.5809
   581.68         19.5813
   581.82         19.5869
   581.96         19.5972
   582.10         19.6098
   582.24         19.6230
   582.38         19.6371
   582.52         19.6529
   582.66         19.6710
   582.80         19.6914
   582.94         19.7135
   583.08         19.7362
   583.22         19.7586
   583.36         19.7801
   583.50         19.7994
   583.64         19.8142
   583.78         19.8206
   583.92         19.8146
   584.06         19.7948
   584.20         19.7616
   584.34         19.7147
   584.48         19.6537
   584.62         19.5789
   584.76         19.4928
   584.90         19.4003
   585.04         19.3082
   585.18         19.2239
   585.32         19.1541
   585.46         19.1047
   585.60         19.0798
   585.74         19.0822
   585.88         19.1123
   586.02         19.1668
   586.16         19.2399
   586.30         19.3253
   586.44         19.4160
   586.58         19.5031
   586.72         19.5789
   586.86         19.6375
   587.00         19.6739
   587.14         19.6861
   587.28         19.6748
   587.42         19.6428
   587.56         19.5929
   587.70         19.5239
   587.84         19.4304
   587.98         19.3088
   588.12         19.1611
   588.26         18.9930
   588.40         18.8096
   588.54         18.6155
   588.68         18.4186
   588.82         18.2324
   588.96         18.0726
   589.10         17.9521
   589.24         17.8806
   589.38         17.8651
   589.52         17.9083
   589.66         18.0060
   589.80         18.1491
   589.94         18.3252
   590.08         18.5183
   590.22         18.7098
   590.36         18.8816
   590.50         19.0225
   590.64         19.1297
   590.78         19.2038
   590.92         19.2452
   591.06         19.2566
   591.20         19.2459
   591.34         19.2227
   591.48         19.1944
   591.62         19.1652
   591.76         19.1374
   591.90         19.1112
   592.04         19.0849
   592.18         19.0556
   592.32         19.0212
   592.46         18.9813
   592.60         18.9381
   592.74         18.8942
   592.88         18.8527
   593.02         18.8169
   593.16         18.7894
   593.30         18.7718
   593.44         18.7643
   593.58         18.7654
   593.72         18.7710
   593.86         18.7758
   594.00         18.7752
   594.14         18.7665
   594.28         18.7499
   594.42         18.7268
   594.56         18.6989
   594.70         18.6695
   594.84         18.6432
   594.98         18.6262
   595.12         18.6232
   595.26         18.6344
   595.40         18.6558
   595.54         18.6815
   595.68         18.7056
   595.82         18.7247
   595.96         18.7381
   596.10         18.7447
   596.24         18.7424
   596.38         18.7309
   596.52         18.7110
   596.66         18.6836
   596.80         18.6507
   596.94         18.6177
   597.08         18.5906
   597.22         18.5708
   597.36         18.5562
   597.50         18.5437
   597.64         18.5306
   597.78         18.5139
   597.92         18.4922
   598.06         18.4675
   598.20         18.4449
   598.34         18.4297
   598.48         18.4264
   598.62         18.4365
   598.76         18.4589
   598.90         18.4910
   599.04         18.5302
   599.18         18.5724
   599.32         18.6138
   599.46         18.6508
   599.60         18.6773
   599.74         18.6848
   599.88         18.6660
   600.02         18.6214
   600.16         18.5571
   600.30         18.4805
   600.44         18.3993
   600.58         18.3213
   600.72         18.2520
   600.86         18.1933
   601.00         18.1447
   601.14         18.1059
   601.28         18.0758
   601.42         18.0521
   601.56         18.0322
   601.70         18.0130
   601.84         17.9926
   601.98         17.9716
   602.12         17.9515
   602.26         17.9353
   602.40         17.9282
   602.54         17.9333
   602.68         17.9510
   602.82         17.9786
   602.96         18.0128
   603.10         18.0518
   603.24         18.0944
   603.38         18.1394
   603.52         18.1847
   603.66         18.2296
   603.80         18.2736
   603.94         18.3157
   604.08         18.3549
   604.22         18.3899
   604.36         18.4198
   604.50         18.4447
   604.64         18.4656
   604.78         18.4833
   604.92         18.4977
   605.06         18.5074
   605.20         18.5096
   605.34         18.5028
   605.48         18.4871
   605.62         18.4637
   605.76         18.4341
   605.90         18.4015
   606.04         18.3697
   606.18         18.3434
   606.32         18.3272
   606.46         18.3239
   606.60         18.3338
   606.74         18.3542
   606.88         18.3809
   607.02         18.4097
   607.16         18.4373
   607.30         18.4602
   607.44         18.4737
   607.58         18.4742
   607.72         18.4593
   607.86         18.4290
   608.00         18.3856
   608.14         18.3344
   608.28         18.2811
   608.42         18.2307
   608.56         18.1867
   608.70         18.1498
   608.84         18.1181
   608.98         18.0867
   609.12         18.0500
   609.26         18.0048
   609.40         17.9518
   609.54         17.8946
   609.68         17.8393
   609.82         17.7920
   609.96         17.7573
   610.10         17.7386
   610.24         17.7371
   610.38         17.7513
   610.52         17.7785
   610.66         17.8151
   610.80         17.8567
   610.94         17.8972
   611.08         17.9307
   611.22         17.9534
   611.36         17.9649
   611.50         17.9674
   611.64         17.9640
   611.78         17.9591
   611.92         17.9567
   612.06         17.9601
   612.20         17.9705
   612.34         17.9862
   612.48         18.0010
   612.62         18.0070
   612.76         17.9989
   612.90         17.9749
   613.04         17.9362
   613.18         17.8869
   613.32         17.8316
   613.46         17.7752
   613.60         17.7232
   613.74         17.6816
   613.88         17.6561
   614.02         17.6499
   614.16         17.6629
   614.30         17.6921
   614.44         17.7323
   614.58         17.7779
   614.72         17.8237
   614.86         17.8638
   615.00         17.8914
   615.14         17.9010
   615.28         17.8920
   615.42         17.8669
   615.56         17.8289
   615.70         17.7803
   615.84         17.7237
   615.98         17.6630
   616.12         17.6046
   616.26         17.5546
   616.40         17.5178
   616.54         17.4975
   616.68         17.4944
   616.82         17.5067
   616.96         17.5313
   617.10         17.5644
   617.24         17.6028
   617.38         17.6430
   617.52         17.6817
   617.66         17.7164
   617.80         17.7461
   617.94         17.7701
   618.08         17.7875
   618.22         17.7979
   618.36         17.8020
   618.50         17.8027
   618.64         17.8043
   618.78         17.8110
   618.92         17.8244
   619.06         17.8447
   619.20         17.8718
   619.34         17.9047
   619.48         17.9414
   619.62         17.9805
   619.76         18.0210
   619.90         18.0608
   620.04         18.0963
   620.18         18.1221
   620.32         18.1325
   620.46         18.1228
   620.60         18.0916
   620.74         18.0409
   620.88         17.9749
   621.02         17.8995
   621.16         17.8217
   621.30         17.7479
   621.44         17.6826
   621.58         17.6286
   621.72         17.5871
   621.86         17.5572
   622.00         17.5358
   622.14         17.5196
   622.28         17.5067
   622.42         17.4958
   622.56         17.4846
   622.70         17.4711
   622.84         17.4550
   622.98         17.4392
   623.12         17.4286
   623.26         17.4267
   623.40         17.4341
   623.54         17.4491
   623.68         17.4700
   623.82         17.4955
   623.96         17.5228
   624.10         17.5488
   624.24         17.5694
   624.38         17.5807
   624.52         17.5801
   624.66         17.5685
   624.80         17.5491
   624.94         17.5247
   625.08         17.4953
   625.22         17.4583
   625.36         17.4114
   625.50         17.3563
   625.64         17.2978
   625.78         17.2416
   625.92         17.1918
   626.06         17.1525
   626.20         17.1280
   626.34         17.1217
   626.48         17.1339
   626.62         17.1599
   626.76         17.1922
   626.90         17.2234
   627.04         17.2480
   627.18         17.2637
   627.32         17.2707
   627.46         17.2706
   627.60         17.2655
   627.74         17.2593
   627.88         17.2572
   628.02         17.2652
   628.16         17.2870
   628.30         17.3230
   628.44         17.3711
   628.58         17.4271
   628.72         17.4846
   628.86         17.5358
   629.00         17.5733
   629.14         17.5908
   629.28         17.5859
   629.42         17.5615
   629.56         17.5245
   629.70         17.4825
   629.84         17.4414
   629.98         17.4052
   630.12         17.3753
   630.26         17.3507
   630.40         17.3293
   630.54         17.3091
   630.68         17.2890
   630.82         17.2694
   630.96         17.2522
   631.10         17.2388
   631.24         17.2283
   631.38         17.2192
   631.52         17.2127
   631.66         17.2119
   631.80         17.2208
   631.94         17.2415
   632.08         17.2741
   632.22         17.3164
   632.36         17.3640
   632.50         17.4112
   632.64         17.4527
   632.78         17.4842
   632.92         17.5033
   633.06         17.5103
   633.20         17.5072
   633.34         17.4960
   633.48         17.4796
   633.62         17.4611
   633.76         17.4442
   633.90         17.4328
   634.04         17.4306
   634.18         17.4392
   634.32         17.4571
   634.46         17.4795
   634.60         17.5004
   634.74         17.5157
   634.88         17.5224
   635.02         17.5172
   635.16         17.4972
   635.30         17.4618
   635.44         17.4127
   635.58         17.3546
   635.72         17.2931
   635.86         17.2338
   636.00         17.1821
   636.14         17.1431
   636.28         17.1197
   636.42         17.1131
   636.56         17.1226
   636.70         17.1452
   636.84         17.1768
   636.98         17.2124
   637.12         17.2477
   637.26         17.2788
   637.40         17.3028
   637.54         17.3174
   637.68         17.3220
   637.82         17.3177
   637.96         17.3064
   638.10         17.2902
   638.24         17.2701
   638.38         17.2465
   638.52         17.2199
   638.66         17.1912
   638.80         17.1609
   638.94         17.1287
   639.08         17.0948
   639.22         17.0607
   639.36         17.0286
   639.50         16.9998
   639.64         16.9744
   639.78         16.9527
   639.92         16.9355
   640.06         16.9236
   640.20         16.9170
   640.34         16.9148
   640.48         16.9153
   640.62         16.9167
   640.76         16.9178
   640.90         16.9174
   641.04         16.9145
   641.18         16.9092
   641.32         16.9021
   641.46         16.8940
   641.60         16.8867
   641.74         16.8822
   641.88         16.8810
   642.02         16.8818
   642.16         16.8828
   642.30         16.8834
   642.44         16.8852
   642.58         16.8891
   642.72         16.8949
   642.86         16.9024
   643.00         16.9129
   643.14         16.9281
   643.28         16.9493
   643.42         16.9763
   643.56         17.0086
   643.70         17.0456
   643.84         17.0860
   643.98         17.1275
   644.12         17.1669
   644.26         17.2010
   644.40         17.2259
   644.54         17.2389
   644.68         17.2398
   644.82         17.2309
   644.96         17.2142
   645.10         17.1895
   645.24         17.1562
   645.38         17.1157
   645.52         17.0714
   645.66         17.0279
   645.80         16.9876
   645.94         16.9506
   646.08         16.9168
   646.22         16.8859
   646.36         16.8582
   646.50         16.8350
   646.64         16.8187
   646.78         16.8107
   646.92         16.8114
   647.06         16.8201
   647.20         16.8357
   647.34         16.8571
   647.48         16.8834
   647.62         16.9132
   647.76         16.9459
   647.90         16.9802
   648.04         17.0134
   648.18         17.0402
   648.32         17.0545
   648.46         17.0510
   648.60         17.0280
   648.74         16.9881
   648.88         16.9363
   649.02         16.8791
   649.16         16.8242
   649.30         16.7788
   649.44         16.7486
   649.58         16.7381
   649.72         16.7505
   649.86         16.7868
   650.00         16.8457
   650.14         16.9229
   650.28         17.0108
   650.42         17.0990
   650.56         17.1765
   650.70         17.2348
   650.84         17.2708
   650.98         17.2855
   651.12         17.2826
   651.26         17.2671
   651.40         17.2437
   651.54         17.2167
   651.68         17.1905
   651.82         17.1700
   651.96         17.1588
   652.10         17.1581
   652.24         17.1674
   652.38         17.1849
   652.52         17.2079
   652.66         17.2336
   652.80         17.2587
   652.94         17.2803
   653.08         17.2963
   653.22         17.3061
   653.36         17.3092
   653.50         17.3049
   653.64         17.2928
   653.78         17.2731
   653.92         17.2466
   654.06         17.2144
   654.20         17.1761
   654.34         17.1303
   654.48         17.0744
   654.62         17.0049
   654.76         16.9171
   654.90         16.8026
   655.04         16.6500
   655.18         16.4483
   655.32         16.1950
   655.46         15.8997
   655.60         15.5810
   655.74         15.2627
   655.88         14.9703
   656.02         14.7279
   656.16         14.5562
   656.30         14.4706
   656.44         14.4784
   656.58         14.5784
   656.72         14.7615
   656.86         15.0109
   657.00         15.3058
   657.14         15.6230
   657.28         15.9381
   657.42         16.2277
   657.56         16.4737
   657.70         16.6683
   657.84         16.8146
   657.98         16.9233
   658.12         17.0032
   658.26         17.0583
   658.40         17.0902
   658.54         17.1009
   658.68         17.0938
   658.82         17.0737
   658.96         17.0463
   659.10         17.0171
   659.24         16.9913
   659.38         16.9722
   659.52         16.9611
   659.66         16.9576
   659.80         16.9602
   659.94         16.9666
   660.08         16.9744
   660.22         16.9817
   660.36         16.9863
   660.50         16.9861
   660.64         16.9796
   660.78         16.9670
   660.92         16.9504
   661.06         16.9339
   661.20         16.9214
   661.34         16.9148
   661.48         16.9139
   661.62         16.9174
   661.76         16.9234
   661.90         16.9294
   662.04         16.9320
   662.18         16.9283
   662.32         16.9167
   662.46         16.8986
   662.60         16.8760
   662.74         16.8511
   662.88         16.8261
   663.02         16.8027
   663.16         16.7816
   663.30         16.7631
   663.44         16.7465
   663.58         16.7306
   663.72         16.7143
   663.86         16.6965
   664.00         16.6768
   664.14         16.6558
   664.28         16.6347
   664.42         16.6149
   664.56         16.5972
   664.70         16.5828
   664.84         16.5726
   664.98         16.5666
   665.12         16.5639
   665.26         16.5620
   665.40         16.5591
   665.54         16.5538
   665.68         16.5450
   665.82         16.5319
   665.96         16.5154
   666.10         16.4980
   666.24         16.4826
   666.38         16.4719
   666.52         16.4669
   666.66         16.4667
   666.80         16.4692
   666.94         16.4724
   667.08         16.4741
   667.22         16.4714
   667.36         16.4624
   667.50         16.4463
   667.64         16.4231
   667.78         16.3945
   667.92         16.3629
   668.06         16.3313
   668.20         16.3018
   668.34         16.2762
   668.48         16.2564
   668.62         16.2435
   668.76         16.2372
   668.90         16.2369
   669.04         16.2417
   669.18         16.2504
   669.32         16.2614
   669.46         16.2724
   669.60         16.2818
   669.74         16.2876
   669.88         16.2889
   670.02         16.2855
   670.16         16.2775
   670.30         16.2649
   670.44         16.2478
   670.58         16.2262
   670.72         16.2000
   670.86         16.1706
   671.00         16.1406
   671.14         16.1131
   671.28         16.0901
   671.42         16.0726
   671.56         16.0611
   671.70         16.0554
   671.84         16.0538
   671.98         16.0553
   672.12         16.0597
   672.26         16.0675
   672.40         16.0792
   672.54         16.0947
   672.68         16.1130
   672.82         16.1327
   672.96         16.1516
   673.10         16.1680
   673.24         16.1814
   673.38         16.1925
   673.52         16.2025
   673.66         16.2113
   673.80         16.2168
   673.94         16.2168
   674.08         16.2100
   674.22         16.1971
   674.36         16.1794
   674.50         16.1581
   674.64         16.1355
   674.78         16.1137
   674.92         16.0952
   675.06         16.0821
   675.20         16.0757
   675.34         16.0757
   675.48         16.0799
   675.62         16.0852
   675.76         16.0891
   675.90         16.0894
   676.04         16.0836
   676.18         16.0698
   676.32         16.0472
   676.46         16.0171
   676.60         15.9824
   676.74         15.9466
   676.88         15.9129
   677.02         15.8842
   677.16         15.8627
   677.30         15.8502
   677.44         15.8469
   677.58         15.8516
   677.72         15.8622
   677.86         15.8758
   678.00         15.8900
   678.14         15.9024
   678.28         15.9114
   678.42         15.9166
   678.56         15.9190
   678.70         15.9201
   678.84         15.9222
   678.98         15.9270
   679.12         15.9344
   679.26         15.9429
   679.40         15.9510
   679.54         15.9579
   679.68         15.9628
   679.82         15.9647
   679.96         15.9628
   680.10         15.9579
   680.24         15.9516
   680.38         15.9454
   680.52         15.9410
   680.66         15.9389
   680.80         15.9380
   680.94         15.9369
   681.08         15.9355
   681.22         15.9344
   681.36         15.9350
   681.50         15.9380
   681.64         15.9431
   681.78         15.9488
   681.92         15.9534
   682.06         15.9560
   682.20         15.9562
   682.34         15.9533
   682.48         15.9470
   682.62         15.9376
   682.76         15.9255
   682.90         15.9103
   683.04         15.8908
   683.18         15.8659
   683.32         15.8351
   683.46         15.7986
   683.60         15.7583
   683.74         15.7175
   683.88         15.6796
   684.02         15.6472
   684.16         15.6219
   684.30         15.6039
   684.44         15.5921
   684.58         15.5859
   684.72         15.5852
   684.86         15.5895
   685.00         15.5975
   685.14         15.6078
   685.28         15.6185
   685.42         15.6243
   685.56         15.6151
   685.70         15.5750
   685.84         15.4863
   685.98         15.3348
   686.12         15.1141
   686.26         14.8269
   686.40         14.4850
   686.54         14.1068
   686.68         13.7163
   686.82         13.3399
   686.96         13.0053
   687.10         12.7389
   687.24         12.5613
   687.38         12.4836
   687.52         12.5056
   687.66         12.6159
   687.80         12.7930
   687.94         13.0085
   688.08         13.2319
   688.22         13.4349
   688.36         13.5975
   688.50         13.7114
   688.64         13.7794
   688.78         13.8114
   688.92         13.8194
   689.06         13.8161
   689.20         13.8129
   689.34         13.8192
   689.48         13.8418
   689.62         13.8836
   689.76         13.9425
   689.90         14.0131
   690.04         14.0907
   690.18         14.1709
   690.32         14.2495
   690.46         14.3229
   690.60         14.3892
   690.74         14.4468
   690.88         14.4954
   691.02         14.5365
   691.16         14.5723
   691.30         14.6047
   691.44         14.6358
   691.58         14.6667
   691.72         14.6989
   691.86         14.7333
   692.00         14.7714
   692.14         14.8144
   692.28         14.8626
   692.42         14.9148
   692.56         14.9695
   692.70         15.0244
   692.84         15.0759
   692.98         15.1209
   693.12         15.1584
   693.26         15.1885
   693.40         15.2120
   693.54         15.2303
   693.68         15.2443
   693.82         15.2539
   693.96         15.2598
   694.10         15.2639
   694.24         15.2687
   694.38         15.2755
   694.52         15.2843
   694.66         15.2936
   694.80         15.3009
   694.94         15.3046
   695.08         15.3054
   695.22         15.3057
   695.36         15.3082
   695.50         15.3154
   695.64         15.3292
   695.78         15.3505
   695.92         15.3778
   696.06         15.4090
   696.20         15.4418
   696.34         15.4745
   696.48         15.5050
   696.62         15.5310
   696.76         15.5495
   696.90         15.5582
   697.04         15.5565
   697.18         15.5461
   697.32         15.5310
   697.46         15.5156
   697.60         15.5028
   697.74         15.4945
   697.88         15.4912
   698.02         15.4917
   698.16         15.4945
   698.30         15.4980
   698.44         15.5002
   698.58         15.4994
   698.72         15.4940
   698.86         15.4830
   699.00         15.4660
   699.14         15.4432
   699.28         15.4149
   699.42         15.3821
   699.56         15.3473
   699.70         15.3141
   699.84         15.2856
   699.98         15.2630
   700.12         15.2458
   700.26         15.2335
   700.40         15.2257
   700.54         15.2211
   700.68         15.2182
   700.82         15.2163
   700.96         15.2147
   701.10         15.2121
   701.24         15.2069
   701.38         15.1979
   701.52         15.1854
   701.66         15.1710
   701.80         15.1575
   701.94         15.1478
   702.08         15.1448
   702.22         15.1507
   702.36         15.1653
   702.50         15.1861
   702.64         15.2090
   702.78         15.2302
   702.92         15.2469
   703.06         15.2578
   703.20         15.2631
   703.34         15.2639
   703.48         15.2607
   703.62         15.2527
   703.76         15.2391
   703.90         15.2202
   704.04         15.1964
   704.18         15.1680
   704.32         15.1360
   704.46         15.1017
   704.60         15.0655
   704.74         15.0281
   704.88         14.9905
   705.02         14.9539
   705.16         14.9193
   705.30         14.8883
   705.44         14.8633
   705.58         14.8465
   705.72         14.8385
   705.86         14.8387
   706.00         14.8460
   706.14         14.8594
   706.28         14.8775
   706.42         14.8989
   706.56         14.9221
   706.70         14.9460
   706.84         14.9701
   706.98         14.9937
   707.12         15.0164
   707.26         15.0366
   707.40         15.0522
   707.54         15.0625
   707.68         15.0675
   707.82         15.0679
   707.96         15.0653
   708.10         15.0611
   708.24         15.0554
   708.38         15.0489
   708.52         15.0426
   708.66         15.0371
   708.80         15.0318
   708.94         15.0254
   709.08         15.0182
   709.22         15.0115
   709.36         15.0070
   709.50         15.0048
   709.64         15.0039
   709.78         15.0030
   709.92         15.0013
   710.06         14.9985
   710.20         14.9955
   710.34         14.9929
   710.48         14.9906
   710.62         14.9884
   710.76         14.9868
   710.90         14.9870
   711.04         14.9897
   711.18         14.9945
   711.32         15.0010
   711.46         15.0092
   711.60         15.0193
   711.74         15.0318
   711.88         15.0459
   712.02         15.0599
   712.16         15.0721
   712.30         15.0823
   712.44         15.0914
   712.58         15.0999
   712.72         15.1079
   712.86         15.1160
   713.00         15.1248
   713.14         15.1333
   713.28         15.1395
   713.42         15.1413
   713.56         15.1363
   713.70         15.1216
   713.84         15.0956
   713.98         15.0591
   714.12         15.0155
   714.26         14.9688
   714.40         14.9233
   714.54         14.8840
   714.68         14.8556
   714.82         14.8413
   714.96         14.8410
   715.10         14.8519
   715.24         14.8680
   715.38         14.8832
   715.52         14.8920
   715.66         14.8904
   715.80         14.8755
   715.94         14.8459
   716.08         14.8020
   716.22         14.7458
   716.36         14.6802
   716.50         14.6099
   716.64         14.5415
   716.78         14.4801
   716.92         14.4272
   717.06         14.3817
   717.20         14.3410
   717.34         14.2994
   717.48         14.2498
   717.62         14.1877
   717.76         14.1127
   717.90         14.0268
   718.04         13.9341
   718.18         13.8407
   718.32         13.7541
   718.46         13.6803
   718.60         13.6236
   718.74         13.5861
   718.88         13.5688
   719.02         13.5721
   719.16         13.5959
   719.30         13.6376
   719.44         13.6920
   719.58         13.7530
   719.72         13.8173
   719.86         13.8847
   720.00         13.9566
   720.14         14.0365
   720.28         14.1273
   720.42         14.2282
   720.56         14.3360
   720.70         14.4478
   720.84         14.5604
   720.98         14.6682
   721.12         14.7633
   721.26         14.8388
   721.40         14.8908
   721.54         14.9198
   721.68         14.9289
   721.82         14.9207
   721.96         14.8974
   722.10         14.8610
   722.24         14.8146
   722.38         14.7623
   722.52         14.7081
   722.66         14.6540
   722.80         14.5993
   722.94         14.5428
   723.08         14.4850
   723.22         14.4282
   723.36         14.3755
   723.50         14.3299
   723.64         14.2950
   723.78         14.2742
   723.92         14.2679
   724.06         14.2737
   724.20         14.2884
   724.34         14.3085
   724.48         14.3303
   724.62         14.3514
   724.76         14.3706
   724.90         14.3878
   725.04         14.4020
   725.18         14.4110
   725.32         14.4118
   725.46         14.4030
   725.60         14.3863
   725.74         14.3643
   725.88         14.3389
   726.02         14.3117
   726.16         14.2820
   726.30         14.2478
   726.44         14.2057
   726.58         14.1557
   726.72         14.1028
   726.86         14.0540
   727.00         14.0146
   727.14         13.9876
   727.28         13.9737
   727.42         13.9718
   727.56         13.9799
   727.70         13.9953
   727.84         14.0139
   727.98         14.0313
   728.12         14.0437
   728.26         14.0485
   728.40         14.0447
   728.54         14.0337
   728.68         14.0191
   728.82         14.0040
   728.96         13.9908
   729.10         13.9816
   729.24         13.9787
   729.38         13.9827
   729.52         13.9919
   729.66         14.0023
   729.80         14.0098
   729.94         14.0102
   730.08         14.0010
   730.22         13.9838
   730.36         13.9612
   730.50         13.9371
   730.64         13.9178
   730.78         13.9103
   730.92         13.9189
   731.06         13.9443
   731.20         13.9836
   731.34         14.0316
   731.48         14.0826
   731.62         14.1317
   731.76         14.1752
   731.90         14.2103
   732.04         14.2344
   732.18         14.2457
   732.32         14.2452
   732.46         14.2361
   732.60         14.2226
   732.74         14.2096
   732.88         14.2020
   733.02         14.2021
   733.16         14.2098
   733.30         14.2245
   733.44         14.2448
   733.58         14.2686
   733.72         14.2931
   733.86         14.3147
   734.00         14.3298
   734.14         14.3350
   734.28         14.3273
   734.42         14.3050
   734.56         14.2685
   734.70         14.2207
   734.84         14.1665
   734.98         14.1116
   735.12         14.0606
   735.26         14.0171
   735.40         13.9840
   735.54         13.9626
   735.68         13.9525
   735.82         13.9519
   735.96         13.9591
   736.10         13.9720
   736.24         13.9881
   736.38         14.0042
   736.52         14.0179
   736.66         14.0283
   736.80         14.0361
   736.94         14.0427
   737.08         14.0494
   737.22         14.0565
   737.36         14.0629
   737.50         14.0660
   737.64         14.0631
   737.78         14.0497
   737.92         14.0217
   738.06         13.9778
   738.20         13.9202
   738.34         13.8525
   738.48         13.7793
   738.62         13.7051
   738.76         13.6345
   738.90         13.5719
   739.04         13.5214
   739.18         13.4866
   739.32         13.4704
   739.46         13.4728
   739.60         13.4910
   739.74         13.5188
   739.88         13.5483
   740.02         13.5729
   740.16         13.5884
   740.30         13.5926
   740.44         13.5842
   740.58         13.5642
   740.72         13.5362
   740.86         13.5038
   741.00         13.4702
   741.14         13.4384
   741.28         13.4107
   741.42         13.3895
   741.56         13.3771
   741.70         13.3748
   741.84         13.3815
   741.98         13.3944
   742.12         13.4102
   742.26         13.4268
   742.40         13.4427
   742.54         13.4568
   742.68         13.4679
   742.82         13.4743
   742.96         13.4743
   743.10         13.4679
   743.24         13.4568
   743.38         13.4427
   743.52         13.4268
   743.66         13.4102
   743.80         13.3944
   743.94         13.3815
   744.08         13.3748
   744.22         13.3771
