# File HD70178
# Wavelength [nm]    Normalized Amplitude
   349.70         11.8978
   349.84         11.9538
   349.98         12.0276
   350.12         12.1024
   350.26         12.1648
   350.40         12.2091
   350.54         12.2368
   350.68         12.2526
   350.82         12.2605
   350.96         12.2633
   351.10         12.2637
   351.24         12.2633
   351.38         12.2605
   351.52         12.2526
   351.66         12.2368
   351.80         12.2091
   351.94         12.1648
   352.08         12.1024
   352.22         12.0276
   352.36         11.9538
   352.50         11.8978
   352.64         11.8753
   352.78         11.8993
   352.92         11.9794
   353.06         12.1173
   353.20         12.3037
   353.34         12.5198
   353.48         12.7432
   353.62         12.9529
   353.76         13.1308
   353.90         13.2639
   354.04         13.3449
   354.18         13.3707
   354.32         13.3406
   354.46         13.2572
   354.60         13.1242
   354.74         12.9478
   354.88         12.7385
   355.02         12.5115
   355.16         12.2818
   355.30         12.0588
   355.44         11.8452
   355.58         11.6402
   355.72         11.4405
   355.86         11.2420
   356.00         11.0433
   356.14         10.8468
   356.28         10.6584
   356.42         10.4853
   356.56         10.3337
   356.70         10.2060
   356.84         10.0984
   356.98         10.0022
   357.12         9.9040
   357.26         9.7870
   357.40         9.6371
   357.54         9.4481
   357.68         9.2208
   357.82         8.9639
   357.96         8.6966
   358.10         8.4496
   358.24         8.2608
   358.38         8.1689
   358.52         8.2096
   358.66         8.4102
   358.80         8.7822
   358.94         9.3153
   359.08         9.9761
   359.22         10.7128
   359.36         11.4633
   359.50         12.1677
   359.64         12.7765
   359.78         13.2524
   359.92         13.5731
   360.06         13.7346
   360.20         13.7526
   360.34         13.6580
   360.48         13.4888
   360.62         13.2808
   360.76         13.0613
   360.90         12.8522
   361.04         12.6746
   361.18         12.5476
   361.32         12.4854
   361.46         12.4971
   361.60         12.5861
   361.74         12.7479
   361.88         12.9673
   362.02         13.2194
   362.16         13.4768
   362.30         13.7131
   362.44         13.9059
   362.58         14.0427
   362.72         14.1239
   362.86         14.1596
   363.00         14.1619
   363.14         14.1396
   363.28         14.0994
   363.42         14.0508
   363.56         14.0064
   363.70         13.9776
   363.84         13.9701
   363.98         13.9867
   364.12         14.0287
   364.26         14.0936
   364.40         14.1750
   364.54         14.2680
   364.68         14.3781
   364.82         14.5212
   364.96         14.7137
   365.10         14.9650
   365.24         15.2744
   365.38         15.6301
   365.52         16.0101
   365.66         16.3836
   365.80         16.7175
   365.94         16.9852
   366.08         17.1714
   366.22         17.2738
   366.36         17.3030
   366.50         17.2783
   366.64         17.2191
   366.78         17.1375
   366.92         17.0396
   367.06         16.9306
   367.20         16.8187
   367.34         16.7106
   367.48         16.6033
   367.62         16.4868
   367.76         16.3530
   367.90         16.2038
   368.04         16.0527
   368.18         15.9197
   368.32         15.8230
   368.46         15.7744
   368.60         15.7817
   368.74         15.8506
   368.88         15.9839
   369.02         16.1771
   369.16         16.4134
   369.30         16.6628
   369.44         16.8907
   369.58         17.0665
   369.72         17.1659
   369.86         17.1732
   370.00         17.0859
   370.14         16.9205
   370.28         16.7143
   370.42         16.5162
   370.56         16.3700
   370.70         16.2985
   370.84         16.2959
   370.98         16.3354
   371.12         16.3857
   371.26         16.4237
   371.40         16.4367
   371.54         16.4159
   371.68         16.3513
   371.82         16.2348
   371.96         16.0667
   372.10         15.8551
   372.24         15.6102
   372.38         15.3386
   372.52         15.0480
   372.66         14.7514
   372.80         14.4655
   372.94         14.2060
   373.08         13.9814
   373.22         13.7892
   373.36         13.6192
   373.50         13.4623
   373.64         13.3177
   373.78         13.1914
   373.92         13.0917
   374.06         13.0280
   374.20         13.0100
   374.34         13.0469
   374.48         13.1448
   374.62         13.2981
   374.76         13.4874
   374.90         13.6911
   375.04         13.8983
   375.18         14.1104
   375.32         14.3316
   375.46         14.5600
   375.60         14.7827
   375.74         14.9805
   375.88         15.1380
   376.02         15.2523
   376.16         15.3353
   376.30         15.4105
   376.44         15.5062
   376.58         15.6504
   376.72         15.8655
   376.86         16.1613
   377.00         16.5314
   377.14         16.9559
   377.28         17.4057
   377.42         17.8496
   377.56         18.2569
   377.70         18.5967
   377.84         18.8389
   377.98         18.9604
   378.12         18.9491
   378.26         18.8041
   378.40         18.5343
   378.54         18.1563
   378.68         17.6919
   378.82         17.1684
   378.96         16.6197
   379.10         16.0880
   379.24         15.6222
   379.38         15.2669
   379.52         15.0505
   379.66         14.9810
   379.80         15.0484
   379.94         15.2281
   380.08         15.4869
   380.22         15.7870
   380.36         16.0879
   380.50         16.3489
   380.64         16.5331
   380.78         16.6095
   380.92         16.5534
   381.06         16.3532
   381.20         16.0155
   381.34         15.5603
   381.48         15.0156
   381.62         14.4153
   381.76         13.7949
   381.90         13.1853
   382.04         12.6075
   382.18         12.0753
   382.32         11.6001
   382.46         11.1914
   382.60         10.8535
   382.74         10.5831
   382.88         10.3692
   383.02         10.2019
   383.16         10.0810
   383.30         10.0143
   383.44         10.0094
   383.58         10.0684
   383.72         10.1884
   383.86         10.3587
   384.00         10.5602
   384.14         10.7726
   384.28         10.9785
   384.42         11.1628
   384.56         11.3107
   384.70         11.4074
   384.84         11.4403
   384.98         11.4056
   385.12         11.3126
   385.26         11.1803
   385.40         11.0312
   385.54         10.8881
   385.68         10.7697
   385.82         10.6854
   385.96         10.6324
   386.10         10.6008
   386.24         10.5824
   386.38         10.5750
   386.52         10.5791
   386.66         10.5952
   386.80         10.6226
   386.94         10.6572
   387.08         10.6955
   387.22         10.7402
   387.36         10.8014
   387.50         10.8937
   387.64         11.0332
   387.78         11.2334
   387.92         11.5018
   388.06         11.8414
   388.20         12.2521
   388.34         12.7297
   388.48         13.2661
   388.62         13.8515
   388.76         14.4753
   388.90         15.1222
   389.04         15.7679
   389.18         16.3815
   389.32         16.9322
   389.46         17.3960
   389.60         17.7587
   389.74         18.0205
   389.88         18.1940
   390.02         18.2968
   390.16         18.3475
   390.30         18.3665
   390.44         18.3748
   390.58         18.3903
   390.72         18.4211
   390.86         18.4614
   391.00         18.4930
   391.14         18.4942
   391.28         18.4466
   391.42         18.3332
   391.56         18.1347
   391.70         17.8306
   391.84         17.4029
   391.98         16.8391
   392.12         16.1347
   392.26         15.2969
   392.40         14.3475
   392.54         13.3225
   392.68         12.2694
   392.82         11.2450
   392.96         10.3099
   393.10         9.5211
   393.24         8.9248
   393.38         8.5557
   393.52         8.4383
   393.66         8.5856
   393.80         8.9952
   393.94         9.6447
   394.08         10.4899
   394.22         11.4716
   394.36         12.5258
   394.50         13.5913
   394.64         14.6127
   394.78         15.5438
   394.92         16.3462
   395.06         16.9870
   395.20         17.4362
   395.34         17.6674
   395.48         17.6578
   395.62         17.3927
   395.76         16.8713
   395.90         16.1152
   396.04         15.1729
   396.18         14.1165
   396.32         13.0332
   396.46         12.0183
   396.60         11.1672
   396.74         10.5661
   396.88         10.2828
   397.02         10.3564
   397.16         10.7911
   397.30         11.5566
   397.44         12.5953
   397.58         13.8298
   397.72         15.1729
   397.86         16.5381
   398.00         17.8488
   398.14         19.0452
   398.28         20.0879
   398.42         20.9577
   398.56         21.6534
   398.70         22.1908
   398.84         22.6001
   398.98         22.9185
   399.12         23.1810
   399.26         23.4108
   399.40         23.6172
   399.54         23.8023
   399.68         23.9677
   399.82         24.1183
   399.96         24.2619
   400.10         24.4069
   400.24         24.5597
   400.38         24.7232
   400.52         24.8973
   400.66         25.0807
   400.80         25.2713
   400.94         25.4652
   401.08         25.6573
   401.22         25.8426
   401.36         26.0182
   401.50         26.1837
   401.64         26.3355
   401.78         26.4632
   401.92         26.5518
   402.06         26.5909
   402.20         26.5801
   402.34         26.5282
   402.48         26.4501
   402.62         26.3640
   402.76         26.2891
   402.90         26.2406
   403.04         26.2260
   403.18         26.2411
   403.32         26.2701
   403.46         26.2920
   403.60         26.2910
   403.74         26.2623
   403.88         26.2111
   404.02         26.1492
   404.16         26.0849
   404.30         26.0168
   404.44         25.9378
   404.58         25.8423
   404.72         25.7324
   404.86         25.6186
   405.00         25.5119
   405.14         25.4152
   405.28         25.3216
   405.42         25.2202
   405.56         25.1021
   405.70         24.9676
   405.84         24.8265
   405.98         24.6952
   406.12         24.5964
   406.26         24.5519
   406.40         24.5676
   406.54         24.6296
   406.68         24.7141
   406.82         24.8005
   406.96         24.8814
   407.10         24.9607
   407.24         25.0446
   407.38         25.1409
   407.52         25.2574
   407.66         25.4022
   407.80         25.5849
   407.94         25.8141
   408.08         26.0945
   408.22         26.4223
   408.36         26.7812
   408.50         27.1405
   408.64         27.4621
   408.78         27.7087
   408.92         27.8457
   409.06         27.8481
   409.20         27.7123
   409.34         27.4613
   409.48         27.1333
   409.62         26.7692
   409.76         26.4037
   409.90         26.0672
   410.04         25.7899
   410.18         25.6005
   410.32         25.5195
   410.46         25.5526
   410.60         25.6871
   410.74         25.8978
   410.88         26.1532
   411.02         26.4191
   411.16         26.6635
   411.30         26.8618
   411.44         26.9979
   411.58         27.0652
   411.72         27.0681
   411.86         27.0175
   412.00         26.9235
   412.14         26.7918
   412.28         26.6277
   412.42         26.4408
   412.56         26.2460
   412.70         26.0628
   412.84         25.9107
   412.98         25.7983
   413.12         25.7198
   413.26         25.6623
   413.40         25.6152
   413.54         25.5744
   413.68         25.5380
   413.82         25.5015
   413.96         25.4587
   414.10         25.4036
   414.24         25.3303
   414.38         25.2351
   414.52         25.1186
   414.66         24.9885
   414.80         24.8606
   414.94         24.7542
   415.08         24.6874
   415.22         24.6723
   415.36         24.7113
   415.50         24.7956
   415.64         24.9079
   415.78         25.0326
   415.92         25.1591
   416.06         25.2765
   416.20         25.3682
   416.34         25.4139
   416.48         25.3969
   416.62         25.3093
   416.76         25.1532
   416.90         24.9397
   417.04         24.6875
   417.18         24.4218
   417.32         24.1715
   417.46         23.9629
   417.60         23.8149
   417.74         23.7375
   417.88         23.7322
   418.02         23.7911
   418.16         23.9003
   418.30         24.0433
   418.44         24.2001
   418.58         24.3454
   418.72         24.4549
   418.86         24.5134
   419.00         24.5167
   419.14         24.4686
   419.28         24.3798
   419.42         24.2666
   419.56         24.1504
   419.70         24.0548
   419.84         24.0021
   419.98         24.0090
   420.12         24.0823
   420.26         24.2177
   420.40         24.4018
   420.54         24.6170
   420.68         24.8478
   420.82         25.0838
   420.96         25.3189
   421.10         25.5470
   421.24         25.7560
   421.38         25.9271
   421.52         26.0387
   421.66         26.0756
   421.80         26.0409
   421.94         25.9555
   422.08         25.8474
   422.22         25.7422
   422.36         25.6558
   422.50         25.5948
   422.64         25.5603
   422.78         25.5525
   422.92         25.5734
   423.06         25.6291
   423.20         25.7289
   423.34         25.8797
   423.48         26.0762
   423.62         26.2966
   423.76         26.5071
   423.90         26.6740
   424.04         26.7772
   424.18         26.8176
   424.32         26.8115
   424.46         26.7783
   424.60         26.7282
   424.74         26.6586
   424.88         26.5592
   425.02         26.4237
   425.16         26.2614
   425.30         26.0961
   425.44         25.9556
   425.58         25.8624
   425.72         25.8268
   425.86         25.8425
   426.00         25.8874
   426.14         25.9286
   426.28         25.9352
   426.42         25.8909
   426.56         25.7966
   426.70         25.6650
   426.84         25.5122
   426.98         25.3518
   427.12         25.1964
   427.26         25.0569
   427.40         24.9396
   427.54         24.8489
   427.68         24.7884
   427.82         24.7557
   427.96         24.7396
   428.10         24.7222
   428.24         24.6843
   428.38         24.6092
   428.52         24.4836
   428.66         24.2986
   428.80         24.0498
   428.94         23.7380
   429.08         23.3670
   429.22         22.9419
   429.36         22.4677
   429.50         21.9494
   429.64         21.3934
   429.78         20.8102
   429.92         20.2152
   430.06         19.6322
   430.20         19.0977
   430.34         18.6610
   430.48         18.3814
   430.62         18.3195
   430.76         18.5201
   430.90         18.9987
   431.04         19.7360
   431.18         20.6774
   431.32         21.7404
   431.46         22.8333
   431.60         23.8767
   431.74         24.8141
   431.88         25.6116
   432.02         26.2526
   432.16         26.7367
   432.30         27.0821
   432.44         27.3221
   432.58         27.4934
   432.72         27.6251
   432.86         27.7336
   433.00         27.8246
   433.14         27.8979
   433.28         27.9480
   433.42         27.9663
   433.56         27.9471
   433.70         27.8913
   433.84         27.8079
   433.98         27.7146
   434.12         27.6357
   434.26         27.5976
   434.40         27.6199
   434.54         27.7077
   434.68         27.8534
   434.82         28.0419
   434.96         28.2535
   435.10         28.4661
   435.24         28.6623
   435.38         28.8383
   435.52         29.0039
   435.66         29.1749
   435.80         29.3655
   435.94         29.5797
   436.08         29.8079
   436.22         30.0255
   436.36         30.1997
   436.50         30.3009
   436.64         30.3143
   436.78         30.2425
   436.92         30.1000
   437.06         29.9009
   437.20         29.6480
   437.34         29.3362
   437.48         28.9662
   437.62         28.5518
   437.76         28.1163
   437.90         27.6845
   438.04         27.2781
   438.18         26.9147
   438.32         26.6114
   438.46         26.3884
   438.60         26.2664
   438.74         26.2582
   438.88         26.3634
   439.02         26.5720
   439.16         26.8648
   439.30         27.2105
   439.44         27.5652
   439.58         27.8824
   439.72         28.1269
   439.86         28.2833
   440.00         28.3638
   440.14         28.4017
   440.28         28.4308
   440.42         28.4714
   440.56         28.5349
   440.70         28.6326
   440.84         28.7762
   440.98         28.9713
   441.12         29.2115
   441.26         29.4791
   441.40         29.7489
   441.54         29.9954
   441.68         30.2007
   441.82         30.3556
   441.96         30.4578
   442.10         30.5108
   442.24         30.5225
   442.38         30.5009
   442.52         30.4568
   442.66         30.4059
   442.80         30.3635
   442.94         30.3382
   443.08         30.3327
   443.22         30.3498
   443.36         30.3941
   443.50         30.4671
   443.64         30.5654
   443.78         30.6829
   443.92         30.8152
   444.06         30.9576
   444.20         31.0997
   444.34         31.2236
   444.48         31.3082
   444.62         31.3354
   444.76         31.2944
   444.90         31.1820
   445.04         31.0037
   445.18         30.7761
   445.32         30.5225
   445.46         30.2650
   445.60         30.0225
   445.74         29.8131
   445.88         29.6578
   446.02         29.5779
   446.16         29.5892
   446.30         29.6992
   446.44         29.9057
   446.58         30.1977
   446.72         30.5540
   446.86         30.9427
   447.00         31.3284
   447.14         31.6819
   447.28         31.9861
   447.42         32.2326
   447.56         32.4214
   447.70         32.5560
   447.84         32.6400
   447.98         32.6772
   448.12         32.6715
   448.26         32.6278
   448.40         32.5538
   448.54         32.4620
   448.68         32.3691
   448.82         32.2904
   448.96         32.2359
   449.10         32.2135
   449.24         32.2323
   449.38         32.3000
   449.52         32.4201
   449.66         32.5936
   449.80         32.8206
   449.94         33.0947
   450.08         33.3971
   450.22         33.6973
   450.36         33.9606
   450.50         34.1602
   450.64         34.2817
   450.78         34.3205
   450.92         34.2795
   451.06         34.1684
   451.20         34.0019
   451.34         33.7962
   451.48         33.5624
   451.62         33.3049
   451.76         33.0272
   451.90         32.7341
   452.04         32.4267
   452.18         32.1041
   452.32         31.7681
   452.46         31.4292
   452.60         31.1057
   452.74         30.8193
   452.88         30.5915
   453.02         30.4401
   453.16         30.3752
   453.30         30.3973
   453.44         30.4952
   453.58         30.6470
   453.72         30.8245
   453.86         30.9991
   454.00         31.1470
   454.14         31.2513
   454.28         31.3053
   454.42         31.3177
   454.56         31.3085
   454.70         31.3001
   454.84         31.3149
   454.98         31.3739
   455.12         31.4918
   455.26         31.6696
   455.40         31.8955
   455.54         32.1509
   455.68         32.4171
   455.82         32.6777
   455.96         32.9192
   456.10         33.1307
   456.24         33.3064
   456.38         33.4482
   456.52         33.5637
   456.66         33.6599
   456.80         33.7365
   456.94         33.7887
   457.08         33.8128
   457.22         33.8040
   457.36         33.7566
   457.50         33.6679
   457.64         33.5399
   457.78         33.3785
   457.92         33.1934
   458.06         32.9983
   458.20         32.8075
   458.34         32.6335
   458.48         32.4851
   458.62         32.3681
   458.76         32.2849
   458.90         32.2343
   459.04         32.2122
   459.18         32.2111
   459.32         32.2235
   459.46         32.2473
   459.60         32.2894
   459.74         32.3618
   459.88         32.4731
   460.02         32.6278
   460.16         32.8252
   460.30         33.0574
   460.44         33.3096
   460.58         33.5655
   460.72         33.8101
   460.86         34.0330
   461.00         34.2283
   461.14         34.3925
   461.28         34.5239
   461.42         34.6245
   461.56         34.6996
   461.70         34.7568
   461.84         34.8038
   461.98         34.8483
   462.12         34.8947
   462.26         34.9411
   462.40         34.9812
   462.54         35.0048
   462.68         35.0008
   462.82         34.9623
   462.96         34.8893
   463.10         34.7871
   463.24         34.6616
   463.38         34.5170
   463.52         34.3567
   463.66         34.1840
   463.80         34.0031
   463.94         33.8229
   464.08         33.6556
   464.22         33.5106
   464.36         33.3915
   464.50         33.3000
   464.64         33.2394
   464.78         33.2155
   464.92         33.2345
   465.06         33.2984
   465.20         33.4011
   465.34         33.5295
   465.48         33.6644
   465.62         33.7800
   465.76         33.8491
   465.90         33.8527
   466.04         33.7849
   466.18         33.6541
   466.32         33.4808
   466.46         33.2928
   466.60         33.1175
   466.74         32.9746
   466.88         32.8732
   467.02         32.8166
   467.16         32.8081
   467.30         32.8520
   467.44         32.9466
   467.58         33.0789
   467.72         33.2264
   467.86         33.3648
   468.00         33.4740
   468.14         33.5418
   468.28         33.5690
   468.42         33.5687
   468.56         33.5556
   468.70         33.5390
   468.84         33.5206
   468.98         33.4960
   469.12         33.4566
   469.26         33.3933
   469.40         33.3009
   469.54         33.1800
   469.68         33.0375
   469.82         32.8845
   469.96         32.7328
   470.10         32.5914
   470.24         32.4682
   470.38         32.3708
   470.52         32.3084
   470.66         32.2917
   470.80         32.3303
   470.94         32.4305
   471.08         32.5918
   471.22         32.8046
   471.36         33.0538
   471.50         33.3195
   471.64         33.5775
   471.78         33.8040
   471.92         33.9778
   472.06         34.0830
   472.20         34.1125
   472.34         34.0687
   472.48         33.9628
   472.62         33.8104
   472.76         33.6293
   472.90         33.4405
   473.04         33.2676
   473.18         33.1339
   473.32         33.0579
   473.46         33.0511
   473.60         33.1176
   473.74         33.2530
   473.88         33.4457
   474.02         33.6776
   474.16         33.9259
   474.30         34.1670
   474.44         34.3817
   474.58         34.5570
   474.72         34.6884
   474.86         34.7772
   475.00         34.8241
   475.14         34.8259
   475.28         34.7780
   475.42         34.6811
   475.56         34.5432
   475.70         34.3775
   475.84         34.1980
   475.98         34.0191
   476.12         33.8555
   476.26         33.7215
   476.40         33.6283
   476.54         33.5855
   476.68         33.6002
   476.82         33.6729
   476.96         33.7980
   477.10         33.9651
   477.24         34.1609
   477.38         34.3676
   477.52         34.5616
   477.66         34.7160
   477.80         34.8071
   477.94         34.8228
   478.08         34.7670
   478.22         34.6568
   478.36         34.5155
   478.50         34.3646
   478.64         34.2226
   478.78         34.1055
   478.92         34.0259
   479.06         33.9905
   479.20         34.0003
   479.34         34.0479
   479.48         34.1184
   479.62         34.1939
   479.76         34.2593
   479.90         34.3036
   480.04         34.3209
   480.18         34.3111
   480.32         34.2811
   480.46         34.2432
   480.60         34.2139
   480.74         34.2085
   480.88         34.2349
   481.02         34.2904
   481.16         34.3636
   481.30         34.4411
   481.44         34.5117
   481.58         34.5659
   481.72         34.5949
   481.86         34.5905
   482.00         34.5508
   482.14         34.4825
   482.28         34.3978
   482.42         34.3109
   482.56         34.2337
   482.70         34.1728
   482.84         34.1297
   482.98         34.1016
   483.12         34.0824
   483.26         34.0654
   483.40         34.0449
   483.54         34.0165
   483.68         33.9766
   483.82         33.9244
   483.96         33.8649
   484.10         33.8046
   484.24         33.7433
   484.38         33.6745
   484.52         33.5921
   484.66         33.4907
   484.80         33.3539
   484.94         33.1558
   485.08         32.8783
   485.22         32.5208
   485.36         32.0999
   485.50         31.6448
   485.64         31.1918
   485.78         30.7791
   485.92         30.4389
   486.06         30.1927
   486.20         30.0495
   486.34         30.0098
   486.48         30.0711
   486.62         30.2253
   486.76         30.4546
   486.90         30.7348
   487.04         31.0434
   487.18         31.3604
   487.32         31.6639
   487.46         31.9324
   487.60         32.1548
   487.74         32.3320
   487.88         32.4673
   488.02         32.5611
   488.16         32.6161
   488.30         32.6411
   488.44         32.6494
   488.58         32.6565
   488.72         32.6796
   488.86         32.7361
   489.00         32.8413
   489.14         33.0034
   489.28         33.2193
   489.42         33.4782
   489.56         33.7646
   489.70         34.0545
   489.84         34.3150
   489.98         34.5145
   490.12         34.6316
   490.26         34.6589
   490.40         34.6044
   490.54         34.4851
   490.68         34.3170
   490.82         34.1114
   490.96         33.8753
   491.10         33.6148
   491.24         33.3374
   491.38         33.0542
   491.52         32.7814
   491.66         32.5401
   491.80         32.3519
   491.94         32.2358
   492.08         32.2030
   492.22         32.2493
   492.36         32.3581
   492.50         32.5108
   492.64         32.6910
   492.78         32.8798
   492.92         33.0580
   493.06         33.2126
   493.20         33.3340
   493.34         33.4164
   493.48         33.4633
   493.62         33.4874
   493.76         33.5064
   493.90         33.5394
   494.04         33.6042
   494.18         33.7110
   494.32         33.8596
   494.46         34.0375
   494.60         34.2167
   494.74         34.3610
   494.88         34.4422
   495.02         34.4500
   495.16         34.3900
   495.30         34.2768
   495.44         34.1301
   495.58         33.9713
   495.72         33.8176
   495.86         33.6784
   496.00         33.5591
   496.14         33.4656
   496.28         33.4044
   496.42         33.3810
   496.56         33.3949
   496.70         33.4334
   496.84         33.4736
   496.98         33.4917
   497.12         33.4655
   497.26         33.3781
   497.40         33.2272
   497.54         33.0268
   497.68         32.7993
   497.82         32.5674
   497.96         32.3499
   498.10         32.1586
   498.24         32.0031
   498.38         31.8952
   498.52         31.8463
   498.66         31.8615
   498.80         31.9373
   498.94         32.0617
   499.08         32.2166
   499.22         32.3783
   499.36         32.5204
   499.50         32.6203
   499.64         32.6625
   499.78         32.6406
   499.92         32.5598
   500.06         32.4317
   500.20         32.2674
   500.34         32.0732
   500.48         31.8518
   500.62         31.6079
   500.76         31.3500
   500.90         31.0928
   501.04         30.8548
   501.18         30.6515
   501.32         30.4931
   501.46         30.3852
   501.60         30.3285
   501.74         30.3193
   501.88         30.3538
   502.02         30.4309
   502.16         30.5514
   502.30         30.7165
   502.44         30.9228
   502.58         31.1563
   502.72         31.3948
   502.86         31.6123
   503.00         31.7833
   503.14         31.8906
   503.28         31.9306
   503.42         31.9118
   503.56         31.8506
   503.70         31.7648
   503.84         31.6690
   503.98         31.5764
   504.12         31.5019
   504.26         31.4602
   504.40         31.4653
   504.54         31.5283
   504.68         31.6537
   504.82         31.8383
   504.96         32.0713
   505.10         32.3336
   505.24         32.5999
   505.38         32.8449
   505.52         33.0466
   505.66         33.1932
   505.80         33.2862
   505.94         33.3332
   506.08         33.3371
   506.22         33.2967
   506.36         33.2128
   506.50         33.0932
   506.64         32.9523
   506.78         32.8038
   506.92         32.6557
   507.06         32.5128
   507.20         32.3801
   507.34         32.2625
   507.48         32.1639
   507.62         32.0855
   507.76         32.0268
   507.90         31.9890
   508.04         31.9790
   508.18         32.0060
   508.32         32.0762
   508.46         32.1876
   508.60         32.3262
   508.74         32.4707
   508.88         32.6002
   509.02         32.6997
   509.16         32.7607
   509.30         32.7785
   509.44         32.7491
   509.58         32.6750
   509.72         32.5672
   509.86         32.4411
   510.00         32.3131
   510.14         32.1994
   510.28         32.1139
   510.42         32.0665
   510.56         32.0656
   510.70         32.1161
   510.84         32.2147
   510.98         32.3489
   511.12         32.5011
   511.26         32.6524
   511.40         32.7854
   511.54         32.8851
   511.68         32.9374
   511.82         32.9294
   511.96         32.8543
   512.10         32.7163
   512.24         32.5304
   512.38         32.3178
   512.52         32.1023
   512.66         31.9048
   512.80         31.7381
   512.94         31.6080
   513.08         31.5153
   513.22         31.4555
   513.36         31.4181
   513.50         31.3896
   513.64         31.3583
   513.78         31.3163
   513.92         31.2617
   514.06         31.1961
   514.20         31.1220
   514.34         31.0450
   514.48         30.9787
   514.62         30.9387
   514.76         30.9334
   514.90         30.9618
   515.04         31.0158
   515.18         31.0830
   515.32         31.1456
   515.46         31.1792
   515.60         31.1560
   515.74         31.0506
   515.88         30.8465
   516.02         30.5384
   516.16         30.1326
   516.30         29.6501
   516.44         29.1293
   516.58         28.6209
   516.72         28.1770
   516.86         27.8431
   517.00         27.6513
   517.14         27.6089
   517.28         27.6946
   517.42         27.8732
   517.56         28.1119
   517.70         28.3823
   517.84         28.6550
   517.98         28.8987
   518.12         29.0872
   518.26         29.2094
   518.40         29.2736
   518.54         29.3003
   518.68         29.3132
   518.82         29.3385
   518.96         29.4028
   519.10         29.5232
   519.24         29.6968
   519.38         29.9020
   519.52         30.1069
   519.66         30.2803
   519.80         30.4023
   519.94         30.4727
   520.08         30.5117
   520.22         30.5446
   520.36         30.5833
   520.50         30.6255
   520.64         30.6683
   520.78         30.7151
   520.92         30.7743
   521.06         30.8522
   521.20         30.9462
   521.34         31.0435
   521.48         31.1244
   521.62         31.1688
   521.76         31.1613
   521.90         31.0948
   522.04         30.9727
   522.18         30.8088
   522.32         30.6226
   522.46         30.4368
   522.60         30.2768
   522.74         30.1673
   522.88         30.1232
   523.02         30.1495
   523.16         30.2463
   523.30         30.4111
   523.44         30.6330
   523.58         30.8896
   523.72         31.1503
   523.86         31.3826
   524.00         31.5605
   524.14         31.6705
   524.28         31.7121
   524.42         31.6925
   524.56         31.6235
   524.70         31.5212
   524.84         31.4022
   524.98         31.2800
   525.12         31.1619
   525.26         31.0471
   525.40         30.9252
   525.54         30.7808
   525.68         30.6007
   525.82         30.3744
   525.96         30.0974
   526.10         29.7751
   526.24         29.4232
   526.38         29.0665
   526.52         28.7370
   526.66         28.4711
   526.80         28.3015
   526.94         28.2487
   527.08         28.3186
   527.22         28.5046
   527.36         28.7889
   527.50         29.1437
   527.64         29.5361
   527.78         29.9367
   527.92         30.3245
   528.06         30.6869
   528.20         31.0170
   528.34         31.3098
   528.48         31.5582
   528.62         31.7555
   528.76         31.8986
   528.90         31.9881
   529.04         32.0287
   529.18         32.0295
   529.32         32.0014
   529.46         31.9548
   529.60         31.9006
   529.74         31.8519
   529.88         31.8231
   530.02         31.8255
   530.16         31.8627
   530.30         31.9307
   530.44         32.0205
   530.58         32.1185
   530.72         32.2086
   530.86         32.2764
   531.00         32.3123
   531.14         32.3100
   531.28         32.2676
   531.42         32.1880
   531.56         32.0730
   531.70         31.9202
   531.84         31.7284
   531.98         31.5052
   532.12         31.2638
   532.26         31.0201
   532.40         30.7915
   532.54         30.5941
   532.68         30.4379
   532.82         30.3270
   532.96         30.2629
   533.10         30.2443
   533.24         30.2686
   533.38         30.3307
   533.52         30.4221
   533.66         30.5292
   533.80         30.6380
   533.94         30.7381
   534.08         30.8244
   534.22         30.8973
   534.36         30.9666
   534.50         31.0497
   534.64         31.1604
   534.78         31.3021
   534.92         31.4708
   535.06         31.6573
   535.20         31.8468
   535.34         32.0212
   535.48         32.1649
   535.62         32.2673
   535.76         32.3219
   535.90         32.3251
   536.04         32.2752
   536.18         32.1752
   536.32         32.0358
   536.46         31.8751
   536.60         31.7138
   536.74         31.5702
   536.88         31.4601
   537.02         31.3949
   537.16         31.3785
   537.30         31.4068
   537.44         31.4723
   537.58         31.5656
   537.72         31.6722
   537.86         31.7745
   538.00         31.8563
   538.14         31.9053
   538.28         31.9134
   538.42         31.8749
   538.56         31.7875
   538.70         31.6561
   538.84         31.4940
   538.98         31.3165
   539.12         31.1353
   539.26         30.9575
   539.40         30.7856
   539.54         30.6219
   539.68         30.4689
   539.82         30.3281
   539.96         30.2017
   540.10         30.0964
   540.24         30.0202
   540.38         29.9769
   540.52         29.9687
   540.66         29.9971
   540.80         30.0626
   540.94         30.1634
   541.08         30.2961
   541.22         30.4556
   541.36         30.6357
   541.50         30.8285
   541.64         31.0217
   541.78         31.1990
   541.92         31.3439
   542.06         31.4447
   542.20         31.4951
   542.34         31.4933
   542.48         31.4437
   542.62         31.3584
   542.76         31.2564
   542.90         31.1568
   543.04         31.0770
   543.18         31.0326
   543.32         31.0306
   543.46         31.0675
   543.60         31.1321
   543.74         31.2117
   543.88         31.2985
   544.02         31.3893
   544.16         31.4785
   544.30         31.5536
   544.44         31.5999
   544.58         31.6116
   544.72         31.5949
   544.86         31.5622
   545.00         31.5266
   545.14         31.5001
   545.28         31.4908
   545.42         31.4994
   545.56         31.5188
   545.70         31.5371
   545.84         31.5426
   545.98         31.5247
   546.12         31.4787
   546.26         31.4071
   546.40         31.3162
   546.54         31.2086
   546.68         31.0822
   546.82         30.9339
   546.96         30.7657
   547.10         30.5872
   547.24         30.4160
   547.38         30.2687
   547.52         30.1538
   547.66         30.0734
   547.80         30.0273
   547.94         30.0154
   548.08         30.0380
   548.22         30.0941
   548.36         30.1805
   548.50         30.2914
   548.64         30.4182
   548.78         30.5508
   548.92         30.6801
   549.06         30.7999
   549.20         30.9073
   549.34         31.0028
   549.48         31.0857
   549.62         31.1510
   549.76         31.1948
   549.90         31.2159
   550.04         31.2106
   550.18         31.1726
   550.32         31.0986
   550.46         30.9922
   550.60         30.8632
   550.74         30.7252
   550.88         30.5949
   551.02         30.4888
   551.16         30.4186
   551.30         30.3887
   551.44         30.3978
   551.58         30.4407
   551.72         30.5076
   551.86         30.5855
   552.00         30.6622
   552.14         30.7285
   552.28         30.7778
   552.42         30.8069
   552.56         30.8162
   552.70         30.8082
   552.84         30.7882
   552.98         30.7656
   553.12         30.7510
   553.26         30.7504
   553.40         30.7649
   553.54         30.7925
   553.68         30.8283
   553.82         30.8677
   553.96         30.9096
   554.10         30.9548
   554.24         31.0031
   554.38         31.0544
   554.52         31.1089
   554.66         31.1636
   554.80         31.2106
   554.94         31.2410
   555.08         31.2497
   555.22         31.2358
   555.36         31.1999
   555.50         31.1439
   555.64         31.0714
   555.78         30.9860
   555.92         30.8919
   556.06         30.7955
   556.20         30.7049
   556.34         30.6273
   556.48         30.5669
   556.62         30.5252
   556.76         30.5004
   556.90         30.4887
   557.04         30.4865
   557.18         30.4900
   557.32         30.4951
   557.46         30.4974
   557.60         30.4908
   557.74         30.4670
   557.88         30.4179
   558.02         30.3386
   558.16         30.2289
   558.30         30.0936
   558.44         29.9428
   558.58         29.7909
   558.72         29.6513
   558.86         29.5334
   559.00         29.4428
   559.14         29.3804
   559.28         29.3437
   559.42         29.3308
   559.56         29.3423
   559.70         29.3805
   559.84         29.4460
   559.98         29.5361
   560.12         29.6467
   560.26         29.7726
   560.40         29.9055
   560.54         30.0340
   560.68         30.1462
   560.82         30.2336
   560.96         30.2908
   561.10         30.3136
   561.24         30.2985
   561.38         30.2439
   561.52         30.1520
   561.66         30.0322
   561.80         29.9009
   561.94         29.7776
   562.08         29.6806
   562.22         29.6224
   562.36         29.6078
   562.50         29.6347
   562.64         29.6969
   562.78         29.7837
   562.92         29.8802
   563.06         29.9717
   563.20         30.0492
   563.34         30.1094
   563.48         30.1528
   563.62         30.1798
   563.76         30.1902
   563.90         30.1829
   564.04         30.1595
   564.18         30.1244
   564.32         30.0839
   564.46         30.0421
   564.60         29.9992
   564.74         29.9524
   564.88         29.8974
   565.02         29.8309
   565.16         29.7522
   565.30         29.6613
   565.44         29.5580
   565.58         29.4447
   565.72         29.3278
   565.86         29.2147
   566.00         29.1143
   566.14         29.0389
   566.28         29.0011
   566.42         29.0083
   566.56         29.0617
   566.70         29.1585
   566.84         29.2922
   566.98         29.4517
   567.12         29.6221
   567.26         29.7865
   567.40         29.9277
   567.54         30.0328
   567.68         30.0957
   567.82         30.1154
   567.96         30.0945
   568.10         30.0404
   568.24         29.9651
   568.38         29.8815
   568.52         29.8025
   568.66         29.7413
   568.80         29.7081
   568.94         29.7050
   569.08         29.7248
   569.22         29.7566
   569.36         29.7915
   569.50         29.8214
   569.64         29.8367
   569.78         29.8251
   569.92         29.7763
   570.06         29.6877
   570.20         29.5651
   570.34         29.4203
   570.48         29.2684
   570.62         29.1235
   570.76         28.9962
   570.90         28.8943
   571.04         28.8267
   571.18         28.8037
   571.32         28.8311
   571.46         28.9082
   571.60         29.0288
   571.74         29.1823
   571.88         29.3567
   572.02         29.5390
   572.16         29.7151
   572.30         29.8716
   572.44         30.0000
   572.58         30.0988
   572.72         30.1716
   572.86         30.2239
   573.00         30.2611
   573.14         30.2861
   573.28         30.2982
   573.42         30.2963
   573.56         30.2824
   573.70         30.2596
   573.84         30.2287
   573.98         30.1894
   574.12         30.1421
   574.26         30.0864
   574.40         30.0222
   574.54         29.9535
   574.68         29.8867
   574.82         29.8267
   574.96         29.7761
   575.10         29.7346
   575.24         29.6997
   575.38         29.6696
   575.52         29.6457
   575.66         29.6309
   575.80         29.6281
   575.94         29.6413
   576.08         29.6738
   576.22         29.7259
   576.36         29.7952
   576.50         29.8771
   576.64         29.9657
   576.78         30.0518
   576.92         30.1232
   577.06         30.1681
   577.20         30.1761
   577.34         30.1392
   577.48         30.0557
   577.62         29.9314
   577.76         29.7786
   577.90         29.6121
   578.04         29.4481
   578.18         29.3024
   578.32         29.1882
   578.46         29.1144
   578.60         29.0834
   578.74         29.0920
   578.88         29.1345
   579.02         29.2058
   579.16         29.3008
   579.30         29.4108
   579.44         29.5218
   579.58         29.6211
   579.72         29.7015
   579.86         29.7608
   580.00         29.7999
   580.14         29.8232
   580.28         29.8348
   580.42         29.8376
   580.56         29.8335
   580.70         29.8256
   580.84         29.8194
   580.98         29.8227
   581.12         29.8409
   581.26         29.8751
   581.40         29.9244
   581.54         29.9873
   581.68         30.0613
   581.82         30.1424
   581.96         30.2249
   582.10         30.3038
   582.24         30.3772
   582.38         30.4446
   582.52         30.5042
   582.66         30.5537
   582.80         30.5909
   582.94         30.6143
   583.08         30.6232
   583.22         30.6175
   583.36         30.5995
   583.50         30.5722
   583.64         30.5369
   583.78         30.4929
   583.92         30.4399
   584.06         30.3792
   584.20         30.3109
   584.34         30.2331
   584.48         30.1441
   584.62         30.0423
   584.76         29.9269
   584.90         29.8020
   585.04         29.6739
   585.18         29.5481
   585.32         29.4301
   585.46         29.3262
   585.60         29.2435
   585.74         29.1892
   585.88         29.1700
   586.02         29.1897
   586.16         29.2472
   586.30         29.3386
   586.44         29.4567
   586.58         29.5888
   586.72         29.7201
   586.86         29.8357
   587.00         29.9240
   587.14         29.9775
   587.28         29.9923
   587.42         29.9686
   587.56         29.9083
   587.70         29.8060
   587.84         29.6496
   587.98         29.4323
   588.12         29.1604
   588.26         28.8474
   588.40         28.5068
   588.54         28.1517
   588.68         27.7991
   588.82         27.4733
   588.96         27.2021
   589.10         27.0091
   589.24         26.9106
   589.38         26.9141
   589.52         27.0176
   589.66         27.2103
   589.80         27.4750
   589.94         27.7897
   590.08         28.1281
   590.22         28.4599
   590.36         28.7562
   590.50         28.9986
   590.64         29.1839
   590.78         29.3143
   590.92         29.3892
   591.06         29.4116
   591.20         29.3939
   591.34         29.3538
   591.48         29.3059
   591.62         29.2587
   591.76         29.2151
   591.90         29.1733
   592.04         29.1301
   592.18         29.0833
   592.32         29.0332
   592.46         28.9849
   592.60         28.9446
   592.74         28.9142
   592.88         28.8940
   593.02         28.8856
   593.16         28.8919
   593.30         28.9165
   593.44         28.9592
   593.58         29.0141
   593.72         29.0727
   593.86         29.1259
   594.00         29.1652
   594.14         29.1844
   594.28         29.1806
   594.42         29.1520
   594.56         29.0993
   594.70         29.0303
   594.84         28.9588
   594.98         28.9010
   595.12         28.8696
   595.26         28.8675
   595.40         28.8885
   595.54         28.9250
   595.68         28.9701
   595.82         29.0183
   595.96         29.0637
   596.10         29.0978
   596.24         29.1136
   596.38         29.1087
   596.52         29.0837
   596.66         29.0407
   596.80         28.9839
   596.94         28.9208
   597.08         28.8579
   597.22         28.7986
   597.36         28.7434
   597.50         28.6918
   597.64         28.6426
   597.78         28.5938
   597.92         28.5444
   598.06         28.4969
   598.20         28.4586
   598.34         28.4385
   598.48         28.4416
   598.62         28.4670
   598.76         28.5105
   598.90         28.5685
   599.04         28.6372
   599.18         28.7110
   599.32         28.7846
   599.46         28.8514
   599.60         28.9003
   599.74         28.9189
   599.88         28.9015
   600.02         28.8537
   600.16         28.7866
   600.30         28.7080
   600.44         28.6233
   600.58         28.5385
   600.72         28.4592
   600.86         28.3880
   601.00         28.3242
   601.14         28.2659
   601.28         28.2123
   601.42         28.1648
   601.56         28.1244
   601.70         28.0909
   601.84         28.0632
   601.98         28.0411
   602.12         28.0247
   602.26         28.0162
   602.40         28.0218
   602.54         28.0471
   602.68         28.0932
   602.82         28.1550
   602.96         28.2251
   603.10         28.2987
   603.24         28.3725
   603.38         28.4402
   603.52         28.4949
   603.66         28.5337
   603.80         28.5591
   603.94         28.5753
   604.08         28.5847
   604.22         28.5878
   604.36         28.5840
   604.50         28.5732
   604.64         28.5576
   604.78         28.5413
   604.92         28.5288
   605.06         28.5234
   605.20         28.5261
   605.34         28.5357
   605.48         28.5487
   605.62         28.5617
   605.76         28.5734
   605.90         28.5843
   606.04         28.5961
   606.18         28.6116
   606.32         28.6316
   606.46         28.6527
   606.60         28.6678
   606.74         28.6702
   606.88         28.6557
   607.02         28.6232
   607.16         28.5741
   607.30         28.5111
   607.44         28.4379
   607.58         28.3594
   607.72         28.2808
   607.86         28.2070
   608.00         28.1423
   608.14         28.0918
   608.28         28.0596
   608.42         28.0475
   608.56         28.0529
   608.70         28.0690
   608.84         28.0861
   608.98         28.0939
   609.12         28.0867
   609.26         28.0648
   609.40         28.0323
   609.54         27.9933
   609.68         27.9523
   609.82         27.9155
   609.96         27.8888
   610.10         27.8768
   610.24         27.8814
   610.38         27.9011
   610.52         27.9309
   610.66         27.9634
   610.80         27.9904
   610.94         28.0030
   611.08         27.9934
   611.22         27.9585
   611.36         27.8998
   611.50         27.8218
   611.64         27.7313
   611.78         27.6371
   611.92         27.5479
   612.06         27.4705
   612.20         27.4092
   612.34         27.3640
   612.48         27.3284
   612.62         27.2949
   612.76         27.2604
   612.90         27.2241
   613.04         27.1861
   613.18         27.1471
   613.32         27.1087
   613.46         27.0719
   613.60         27.0385
   613.74         27.0117
   613.88         26.9952
   614.02         26.9919
   614.16         27.0040
   614.30         27.0325
   614.44         27.0762
   614.58         27.1311
   614.72         27.1904
   614.86         27.2444
   615.00         27.2813
   615.14         27.2936
   615.28         27.2809
   615.42         27.2451
   615.56         27.1863
   615.70         27.1041
   615.84         27.0005
   615.98         26.8810
   616.12         26.7549
   616.26         26.6350
   616.40         26.5340
   616.54         26.4637
   616.68         26.4331
   616.82         26.4458
   616.96         26.4996
   617.10         26.5885
   617.24         26.7042
   617.38         26.8363
   617.52         26.9724
   617.66         27.1009
   617.80         27.2124
   617.94         27.2991
   618.08         27.3542
   618.22         27.3752
   618.36         27.3654
   618.50         27.3339
   618.64         27.2926
   618.78         27.2531
   618.92         27.2251
   619.06         27.2157
   619.20         27.2301
   619.34         27.2693
   619.48         27.3303
   619.62         27.4065
   619.76         27.4907
   619.90         27.5752
   620.04         27.6512
   620.18         27.7087
   620.32         27.7394
   620.46         27.7380
   620.60         27.7043
   620.74         27.6424
   620.88         27.5584
   621.02         27.4596
   621.16         27.3542
   621.30         27.2504
   621.44         27.1548
   621.58         27.0726
   621.72         27.0072
   621.86         26.9588
   622.00         26.9236
   622.14         26.8971
   622.28         26.8776
   622.42         26.8649
   622.56         26.8579
   622.70         26.8533
   622.84         26.8483
   622.98         26.8421
   623.12         26.8343
   623.26         26.8237
   623.40         26.8082
   623.54         26.7862
   623.68         26.7588
   623.82         26.7289
   623.96         26.6984
   624.10         26.6647
   624.24         26.6221
   624.38         26.5666
   624.52         26.4977
   624.66         26.4196
   624.80         26.3408
   624.94         26.2702
   625.08         26.2108
   625.22         26.1577
   625.36         26.1039
   625.50         26.0467
   625.64         25.9888
   625.78         25.9358
   625.92         25.8945
   626.06         25.8718
   626.20         25.8751
   626.34         25.9105
   626.48         25.9785
   626.62         26.0711
   626.76         26.1749
   626.90         26.2796
   627.04         26.3790
   627.18         26.4674
   627.32         26.5390
   627.46         26.5900
   627.60         26.6196
   627.74         26.6299
   627.88         26.6274
   628.02         26.6232
   628.16         26.6290
   628.30         26.6500
   628.44         26.6858
   628.58         26.7324
   628.72         26.7833
   628.86         26.8304
   629.00         26.8642
   629.14         26.8763
   629.28         26.8636
   629.42         26.8302
   629.56         26.7850
   629.70         26.7366
   629.84         26.6918
   629.98         26.6560
   630.12         26.6323
   630.26         26.6203
   630.40         26.6148
   630.54         26.6057
   630.68         26.5832
   630.82         26.5399
   630.96         26.4741
   631.10         26.3897
   631.24         26.2927
   631.38         26.1919
   631.52         26.0991
   631.66         26.0270
   631.80         25.9860
   631.94         25.9824
   632.08         26.0171
   632.22         26.0866
   632.36         26.1828
   632.50         26.2927
   632.64         26.4025
   632.78         26.5012
   632.92         26.5806
   633.06         26.6360
   633.20         26.6672
   633.34         26.6778
   633.48         26.6737
   633.62         26.6625
   633.76         26.6516
   633.90         26.6469
   634.04         26.6540
   634.18         26.6756
   634.32         26.7109
   634.46         26.7557
   634.60         26.8037
   634.74         26.8469
   634.88         26.8776
   635.02         26.8886
   635.16         26.8750
   635.30         26.8376
   635.44         26.7809
   635.58         26.7117
   635.72         26.6386
   635.86         26.5703
   636.00         26.5143
   636.14         26.4782
   636.28         26.4680
   636.42         26.4854
   636.56         26.5275
   636.70         26.5878
   636.84         26.6560
   636.98         26.7190
   637.12         26.7650
   637.26         26.7871
   637.40         26.7851
   637.54         26.7634
   637.68         26.7289
   637.82         26.6886
   637.96         26.6506
   638.10         26.6212
   638.24         26.6035
   638.38         26.5967
   638.52         26.5983
   638.66         26.6065
   638.80         26.6173
   638.94         26.6231
   639.08         26.6169
   639.22         26.5967
   639.36         26.5629
   639.50         26.5165
   639.64         26.4604
   639.78         26.4003
   639.92         26.3428
   640.06         26.2924
   640.20         26.2514
   640.34         26.2214
   640.48         26.2026
   640.62         26.1933
   640.76         26.1892
   640.90         26.1848
   641.04         26.1756
   641.18         26.1598
   641.32         26.1372
   641.46         26.1077
   641.60         26.0732
   641.74         26.0393
   641.88         26.0100
   642.02         25.9847
   642.16         25.9620
   642.30         25.9439
   642.44         25.9345
   642.58         25.9363
   642.72         25.9490
   642.86         25.9695
   643.00         25.9942
   643.14         26.0203
   643.28         26.0465
   643.42         26.0733
   643.56         26.1014
   643.70         26.1321
   643.84         26.1637
   643.98         26.1916
   644.12         26.2109
   644.26         26.2181
   644.40         26.2108
   644.54         26.1886
   644.68         26.1545
   644.82         26.1150
   644.96         26.0761
   645.10         26.0391
   645.24         26.0022
   645.38         25.9659
   645.52         25.9338
   645.66         25.9118
   645.80         25.9049
   645.94         25.9125
   646.08         25.9298
   646.22         25.9506
   646.36         25.9679
   646.50         25.9754
   646.64         25.9729
   646.78         25.9655
   646.92         25.9573
   647.06         25.9485
   647.20         25.9383
   647.34         25.9267
   647.48         25.9133
   647.62         25.8978
   647.76         25.8808
   647.90         25.8646
   648.04         25.8493
   648.18         25.8286
   648.32         25.7918
   648.46         25.7284
   648.60         25.6337
   648.74         25.5119
   648.88         25.3744
   649.02         25.2357
   649.16         25.1133
   649.30         25.0262
   649.44         24.9897
   649.58         25.0106
   649.72         25.0892
   649.86         25.2227
   650.00         25.4036
   650.14         25.6179
   650.28         25.8468
   650.42         26.0693
   650.56         26.2652
   650.70         26.4184
   650.84         26.5217
   650.98         26.5782
   651.12         26.5988
   651.26         26.5970
   651.40         26.5852
   651.54         26.5726
   651.68         26.5652
   651.82         26.5669
   651.96         26.5798
   652.10         26.6018
   652.24         26.6273
   652.38         26.6506
   652.52         26.6684
   652.66         26.6788
   652.80         26.6807
   652.94         26.6751
   653.08         26.6655
   653.22         26.6566
   653.36         26.6519
   653.50         26.6522
   653.64         26.6551
   653.78         26.6572
   653.92         26.6559
   654.06         26.6496
   654.20         26.6351
   654.34         26.6072
   654.48         26.5603
   654.62         26.4893
   654.76         26.3877
   654.90         26.2453
   655.04         26.0467
   655.18         25.7784
   655.32         25.4407
   655.46         25.0522
   655.60         24.6434
   655.74         24.2483
   655.88         23.8983
   656.02         23.6194
   656.16         23.4316
   656.30         23.3492
   656.44         23.3791
   656.58         23.5177
   656.72         23.7505
   656.86         24.0539
   657.00         24.3974
   657.14         24.7487
   657.28         25.0778
   657.42         25.3589
   657.56         25.5750
   657.70         25.7234
   657.84         25.8172
   657.98         25.8769
   658.12         25.9166
   658.26         25.9407
   658.40         25.9499
   658.54         25.9454
   658.68         25.9299
   658.82         25.9086
   658.96         25.8893
   659.10         25.8801
   659.24         25.8857
   659.38         25.9077
   659.52         25.9430
   659.66         25.9854
   659.80         26.0290
   659.94         26.0704
   660.08         26.1070
   660.22         26.1363
   660.36         26.1555
   660.50         26.1618
   660.64         26.1542
   660.78         26.1349
   660.92         26.1091
   661.06         26.0805
   661.20         26.0497
   661.34         26.0165
   661.48         25.9824
   661.62         25.9493
   661.76         25.9166
   661.90         25.8822
   662.04         25.8428
   662.18         25.7947
   662.32         25.7374
   662.46         25.6747
   662.60         25.6121
   662.74         25.5531
   662.88         25.4981
   663.02         25.4457
   663.16         25.3944
   663.30         25.3437
   663.44         25.2943
   663.58         25.2475
   663.72         25.2058
   663.86         25.1737
   664.00         25.1570
   664.14         25.1607
   664.28         25.1851
   664.42         25.2273
   664.56         25.2828
   664.70         25.3446
   664.84         25.4058
   664.98         25.4601
   665.12         25.5014
   665.26         25.5230
   665.40         25.5199
   665.54         25.4907
   665.68         25.4386
   665.82         25.3711
   665.96         25.2975
   666.10         25.2274
   666.24         25.1691
   666.38         25.1274
   666.52         25.1019
   666.66         25.0890
   666.80         25.0838
   666.94         25.0811
   667.08         25.0756
   667.22         25.0627
   667.36         25.0405
   667.50         25.0103
   667.64         24.9756
   667.78         24.9421
   667.92         24.9177
   668.06         24.9102
   668.20         24.9236
   668.34         24.9569
   668.48         25.0056
   668.62         25.0629
   668.76         25.1212
   668.90         25.1726
   669.04         25.2108
   669.18         25.2314
   669.32         25.2329
   669.46         25.2178
   669.60         25.1906
   669.74         25.1552
   669.88         25.1153
   670.02         25.0732
   670.16         25.0293
   670.30         24.9826
   670.44         24.9308
   670.58         24.8707
   670.72         24.7999
   670.86         24.7189
   671.00         24.6325
   671.14         24.5496
   671.28         24.4795
   671.42         24.4293
   671.56         24.4036
   671.70         24.4037
   671.84         24.4268
   671.98         24.4681
   672.12         24.5215
   672.26         24.5798
   672.40         24.6353
   672.54         24.6803
   672.68         24.7087
   672.82         24.7175
   672.96         24.7071
   673.10         24.6802
   673.24         24.6414
   673.38         24.5964
   673.52         24.5506
   673.66         24.5072
   673.80         24.4670
   673.94         24.4294
   674.08         24.3945
   674.22         24.3625
   674.36         24.3338
   674.50         24.3098
   674.64         24.2938
   674.78         24.2896
   674.92         24.3000
   675.06         24.3262
   675.20         24.3682
   675.34         24.4242
   675.48         24.4909
   675.62         24.5633
   675.76         24.6352
   675.90         24.6997
   676.04         24.7512
   676.18         24.7859
   676.32         24.8019
   676.46         24.7994
   676.60         24.7810
   676.74         24.7506
   676.88         24.7115
   677.02         24.6669
   677.16         24.6200
   677.30         24.5732
   677.44         24.5283
   677.58         24.4878
   677.72         24.4548
   677.86         24.4322
   678.00         24.4212
   678.14         24.4223
   678.28         24.4358
   678.42         24.4617
   678.56         24.4991
   678.70         24.5471
   678.84         24.6041
   678.98         24.6675
   679.12         24.7333
   679.26         24.7978
   679.40         24.8570
   679.54         24.9075
   679.68         24.9476
   679.82         24.9778
   679.96         25.0008
   680.10         25.0203
   680.24         25.0391
   680.38         25.0576
   680.52         25.0738
   680.66         25.0838
   680.80         25.0830
   680.94         25.0683
   681.08         25.0392
   681.22         24.9976
   681.36         24.9474
   681.50         24.8931
   681.64         24.8388
   681.78         24.7885
   681.92         24.7455
   682.06         24.7136
   682.20         24.6957
   682.34         24.6926
   682.48         24.7021
   682.62         24.7193
   682.76         24.7371
   682.90         24.7464
   683.04         24.7384
   683.18         24.7067
   683.32         24.6493
   683.46         24.5699
   683.60         24.4768
   683.74         24.3798
   683.88         24.2879
   684.02         24.2095
   684.16         24.1518
   684.30         24.1199
   684.44         24.1152
   684.58         24.1355
   684.72         24.1761
   684.86         24.2291
   685.00         24.2843
   685.14         24.3315
   685.28         24.3608
   685.42         24.3589
   685.56         24.3069
   685.70         24.1841
   685.84         23.9754
   685.98         23.6755
   686.12         23.2884
   686.26         22.8259
   686.40         22.3091
   686.54         21.7687
   686.68         21.2426
   686.82         20.7701
   686.96         20.3863
   687.10         20.1180
   687.24         19.9818
   687.38         19.9821
   687.52         20.1085
   687.66         20.3369
   687.80         20.6334
   687.94         20.9588
   688.08         21.2744
   688.22         21.5497
   688.36         21.7687
   688.50         21.9288
   688.64         22.0359
   688.78         22.1005
   688.92         22.1359
   689.06         22.1572
   689.20         22.1774
   689.34         22.2058
   689.48         22.2475
   689.62         22.3027
   689.76         22.3682
   689.90         22.4399
   690.04         22.5138
   690.18         22.5855
   690.32         22.6523
   690.46         22.7135
   690.60         22.7693
   690.74         22.8199
   690.88         22.8658
   691.02         22.9067
   691.16         22.9418
   691.30         22.9700
   691.44         22.9908
   691.58         23.0048
   691.72         23.0132
   691.86         23.0178
   692.00         23.0209
   692.14         23.0250
   692.28         23.0324
   692.42         23.0449
   692.56         23.0633
   692.70         23.0861
   692.84         23.1101
   692.98         23.1324
   693.12         23.1508
   693.26         23.1637
   693.40         23.1706
   693.54         23.1715
   693.68         23.1663
   693.82         23.1549
   693.96         23.1389
   694.10         23.1212
   694.24         23.1058
   694.38         23.0965
   694.52         23.0969
   694.66         23.1087
   694.80         23.1321
   694.94         23.1658
   695.08         23.2071
   695.22         23.2526
   695.36         23.2997
   695.50         23.3477
   695.64         23.3979
   695.78         23.4524
   695.92         23.5121
   696.06         23.5770
   696.20         23.6468
   696.34         23.7214
   696.48         23.7975
   696.62         23.8665
   696.76         23.9180
   696.90         23.9440
   697.04         23.9401
   697.18         23.9056
   697.32         23.8435
   697.46         23.7601
   697.60         23.6634
   697.74         23.5604
   697.88         23.4574
   698.02         23.3610
   698.16         23.2767
   698.30         23.2088
   698.44         23.1615
   698.58         23.1376
   698.72         23.1362
   698.86         23.1528
   699.00         23.1797
   699.14         23.2076
   699.28         23.2281
   699.42         23.2372
   699.56         23.2350
   699.70         23.2238
   699.84         23.2060
   699.98         23.1834
   700.12         23.1580
   700.26         23.1309
   700.40         23.1007
   700.54         23.0645
   700.68         23.0206
   700.82         22.9720
   700.96         22.9236
   701.10         22.8790
   701.24         22.8370
   701.38         22.7941
   701.52         22.7484
   701.66         22.6999
   701.80         22.6490
   701.94         22.5972
   702.08         22.5497
   702.22         22.5145
   702.36         22.4967
   702.50         22.4964
   702.64         22.5117
   702.78         22.5386
   702.92         22.5725
   703.06         22.6104
   703.20         22.6523
   703.34         22.6999
   703.48         22.7534
   703.62         22.8092
   703.76         22.8629
   703.90         22.9118
   704.04         22.9539
   704.18         22.9860
   704.32         23.0055
   704.46         23.0117
   704.60         23.0062
   704.74         22.9904
   704.88         22.9648
   705.02         22.9288
   705.16         22.8838
   705.30         22.8343
   705.44         22.7847
   705.58         22.7390
   705.72         22.6997
   705.86         22.6672
   706.00         22.6406
   706.14         22.6189
   706.28         22.6015
   706.42         22.5878
   706.56         22.5764
   706.70         22.5648
   706.84         22.5521
   706.98         22.5405
   707.12         22.5330
   707.26         22.5304
   707.40         22.5320
   707.54         22.5365
   707.68         22.5432
   707.82         22.5511
   707.96         22.5582
   708.10         22.5624
   708.24         22.5625
   708.38         22.5586
   708.52         22.5520
   708.66         22.5445
   708.80         22.5391
   708.94         22.5403
   709.08         22.5519
   709.22         22.5757
   709.36         22.6127
   709.50         22.6630
   709.64         22.7238
   709.78         22.7877
   709.92         22.8457
   710.06         22.8900
   710.20         22.9151
   710.34         22.9194
   710.48         22.9060
   710.62         22.8819
   710.76         22.8551
   710.90         22.8326
   711.04         22.8188
   711.18         22.8144
   711.32         22.8187
   711.46         22.8314
   711.60         22.8516
   711.74         22.8764
   711.88         22.9023
   712.02         22.9248
   712.16         22.9380
   712.30         22.9374
   712.44         22.9229
   712.58         22.8999
   712.72         22.8796
   712.86         22.8744
   713.00         22.8929
   713.14         22.9384
   713.28         23.0065
   713.42         23.0870
   713.56         23.1673
   713.70         23.2349
   713.84         23.2779
   713.98         23.2888
   714.12         23.2647
   714.26         23.2063
   714.40         23.1185
   714.54         23.0112
   714.68         22.8975
   714.82         22.7920
   714.96         22.7085
   715.10         22.6582
   715.24         22.6477
   715.38         22.6757
   715.52         22.7303
   715.66         22.7943
   715.80         22.8517
   715.94         22.8890
   716.08         22.8954
   716.22         22.8625
   716.36         22.7849
   716.50         22.6629
   716.64         22.5030
   716.78         22.3164
   716.92         22.1173
   717.06         21.9196
   717.20         21.7321
   717.34         21.5578
   717.48         21.3946
   717.62         21.2360
   717.76         21.0754
   717.90         20.9090
   718.04         20.7371
   718.18         20.5625
   718.32         20.3908
   718.46         20.2288
   718.60         20.0840
   718.74         19.9642
   718.88         19.8758
   719.02         19.8240
   719.16         19.8122
   719.30         19.8415
   719.44         19.9087
   719.58         20.0044
   719.72         20.1128
   719.86         20.2193
   720.00         20.3177
   720.14         20.4101
   720.28         20.5049
   720.42         20.6130
   720.56         20.7438
   720.70         20.9000
   720.84         21.0803
   720.98         21.2843
   721.12         21.5129
   721.26         21.7634
   721.40         22.0253
   721.54         22.2833
   721.68         22.5226
   721.82         22.7305
   721.96         22.8970
   722.10         23.0133
   722.24         23.0716
   722.38         23.0678
   722.52         23.0040
   722.66         22.8862
   722.80         22.7239
   722.94         22.5275
   723.08         22.3060
   723.22         22.0686
   723.36         21.8270
   723.50         21.5944
   723.64         21.3843
   723.78         21.2076
   723.92         21.0730
   724.06         20.9848
   724.20         20.9415
   724.34         20.9341
   724.48         20.9507
   724.62         20.9812
   724.76         21.0173
   724.90         21.0536
   725.04         21.0895
   725.18         21.1264
   725.32         21.1650
   725.46         21.2034
   725.60         21.2374
   725.74         21.2650
   725.88         21.2898
   726.02         21.3160
   726.16         21.3447
   726.30         21.3735
   726.44         21.3972
   726.58         21.4071
   726.72         21.3916
   726.86         21.3425
   727.00         21.2646
   727.14         21.1731
   727.28         21.0827
   727.42         21.0028
   727.56         20.9394
   727.70         20.8953
   727.84         20.8689
   727.98         20.8557
   728.12         20.8503
   728.26         20.8469
   728.40         20.8382
   728.54         20.8153
   728.68         20.7711
   728.82         20.7043
   728.96         20.6195
   729.10         20.5255
   729.24         20.4321
   729.38         20.3485
   729.52         20.2838
   729.66         20.2464
   729.80         20.2385
   729.94         20.2559
   730.08         20.2931
   730.22         20.3439
   730.36         20.3998
   730.50         20.4525
   730.64         20.4965
   730.78         20.5297
   730.92         20.5522
   731.06         20.5666
   731.20         20.5781
   731.34         20.5930
   731.48         20.6146
   731.62         20.6421
   731.76         20.6712
   731.90         20.6976
   732.04         20.7185
   732.18         20.7325
   732.32         20.7401
   732.46         20.7415
   732.60         20.7379
   732.74         20.7331
   732.88         20.7323
   733.02         20.7409
   733.16         20.7641
   733.30         20.8050
   733.44         20.8638
   733.58         20.9369
   733.72         21.0187
   733.86         21.1038
   734.00         21.1851
   734.14         21.2529
   734.28         21.2976
   734.42         21.3149
   734.56         21.3074
   734.70         21.2808
   734.84         21.2413
   734.98         21.1952
   735.12         21.1492
   735.26         21.1100
   735.40         21.0821
   735.54         21.0655
   735.68         21.0566
   735.82         21.0514
   735.96         21.0465
   736.10         21.0379
   736.24         21.0225
   736.38         21.0011
   736.52         20.9765
   736.66         20.9501
   736.80         20.9222
   736.94         20.8946
   737.08         20.8706
   737.22         20.8504
   737.36         20.8329
   737.50         20.8165
   737.64         20.8004
   737.78         20.7818
   737.92         20.7566
   738.06         20.7206
   738.20         20.6718
   738.34         20.6124
   738.48         20.5478
   738.62         20.4826
   738.76         20.4195
   738.90         20.3604
   739.04         20.3076
   739.18         20.2631
   739.32         20.2293
   739.46         20.2088
   739.60         20.2032
   739.74         20.2103
   739.88         20.2254
   740.02         20.2422
   740.16         20.2530
   740.30         20.2505
   740.44         20.2299
   740.58         20.1904
   740.72         20.1350
   740.86         20.0696
   741.00         20.0023
   741.14         19.9398
   741.28         19.8857
   741.42         19.8432
   741.56         19.8168
   741.70         19.8113
   741.84         19.8278
   741.98         19.8632
   742.12         19.9117
   742.26         19.9663
   742.40         20.0202
   742.54         20.0668
   742.68         20.1003
   742.82         20.1175
   742.96         20.1175
   743.10         20.1003
   743.24         20.0668
   743.38         20.0202
   743.52         19.9663
   743.66         19.9117
   743.80         19.8632
   743.94         19.8278
   744.08         19.8113
   744.22         19.8168
