# File HD78277
# Wavelength [nm]    Normalized Amplitude
   349.70         10.0185
   349.84         10.0448
   349.98         10.0998
   350.12         10.1738
   350.26         10.2568
   350.40         10.3418
   350.54         10.4238
   350.68         10.4982
   350.82         10.5588
   350.96         10.5990
   351.10         10.6131
   351.24         10.5990
   351.38         10.5588
   351.52         10.4982
   351.66         10.4238
   351.80         10.3418
   351.94         10.2568
   352.08         10.1738
   352.22         10.0998
   352.36         10.0448
   352.50         10.0185
   352.64         10.0288
   352.78         10.0807
   352.92         10.1757
   353.06         10.3092
   353.20         10.4716
   353.34         10.6491
   353.48         10.8275
   353.62         10.9945
   353.76         11.1425
   353.90         11.2677
   354.04         11.3679
   354.18         11.4412
   354.32         11.4865
   354.46         11.5039
   354.60         11.4931
   354.74         11.4558
   354.88         11.3965
   355.02         11.3207
   355.16         11.2312
   355.30         11.1263
   355.44         11.0017
   355.58         10.8533
   355.72         10.6781
   355.86         10.4754
   356.00         10.2478
   356.14         10.0022
   356.28         9.7494
   356.42         9.5014
   356.56         9.2682
   356.70         9.0563
   356.84         8.8682
   356.98         8.7036
   357.12         8.5586
   357.26         8.4252
   357.40         8.2953
   357.54         8.1630
   357.68         8.0258
   357.82         7.8883
   357.96         7.7646
   358.10         7.6781
   358.24         7.6545
   358.38         7.7149
   358.52         7.8736
   358.66         8.1370
   358.80         8.5000
   358.94         8.9434
   359.08         9.4347
   359.22         9.9339
   359.36         10.4005
   359.50         10.8001
   359.64         11.1060
   359.78         11.3014
   359.92         11.3823
   360.06         11.3584
   360.20         11.2509
   360.34         11.0861
   360.48         10.8903
   360.62         10.6843
   360.76         10.4829
   360.90         10.2970
   361.04         10.1374
   361.18         10.0178
   361.32         9.9514
   361.46         9.9480
   361.60         10.0120
   361.74         10.1393
   361.88         10.3155
   362.02         10.5189
   362.16         10.7252
   362.30         10.9138
   362.44         11.0724
   362.58         11.1977
   362.72         11.2933
   362.86         11.3658
   363.00         11.4209
   363.14         11.4627
   363.28         11.4954
   363.42         11.5233
   363.56         11.5505
   363.70         11.5792
   363.84         11.6094
   363.98         11.6395
   364.12         11.6677
   364.26         11.6924
   364.40         11.7140
   364.54         11.7390
   364.68         11.7830
   364.82         11.8671
   364.96         12.0086
   365.10         12.2142
   365.24         12.4784
   365.38         12.7844
   365.52         13.1057
   365.66         13.4097
   365.80         13.6665
   365.94         13.8562
   366.08         13.9717
   366.22         14.0182
   366.36         14.0093
   366.50         13.9622
   366.64         13.8923
   366.78         13.8100
   366.92         13.7219
   367.06         13.6341
   367.20         13.5525
   367.34         13.4786
   367.48         13.4072
   367.62         13.3297
   367.76         13.2418
   367.90         13.1475
   368.04         13.0580
   368.18         12.9851
   368.32         12.9372
   368.46         12.9216
   368.60         12.9462
   368.74         13.0168
   368.88         13.1338
   369.02         13.2886
   369.16         13.4644
   369.30         13.6391
   369.44         13.7904
   369.58         13.8999
   369.72         13.9535
   369.86         13.9440
   370.00         13.8745
   370.14         13.7619
   370.28         13.6353
   370.42         13.5264
   370.56         13.4595
   370.70         13.4421
   370.84         13.4629
   370.98         13.5024
   371.12         13.5424
   371.26         13.5713
   371.40         13.5815
   371.54         13.5639
   371.68         13.5102
   371.82         13.4165
   371.96         13.2828
   372.10         13.1131
   372.24         12.9127
   372.38         12.6884
   372.52         12.4508
   372.66         12.2147
   372.80         11.9956
   372.94         11.8055
   373.08         11.6490
   373.22         11.5223
   373.36         11.4157
   373.50         11.3211
   373.64         11.2355
   373.78         11.1578
   373.92         11.0903
   374.06         11.0377
   374.20         11.0069
   374.34         11.0061
   374.48         11.0392
   374.62         11.1015
   374.76         11.1842
   374.90         11.2828
   375.04         11.4003
   375.18         11.5439
   375.32         11.7180
   375.46         11.9180
   375.60         12.1282
   375.74         12.3263
   375.88         12.4917
   376.02         12.6153
   376.16         12.7013
   376.30         12.7642
   376.44         12.8251
   376.58         12.9086
   376.72         13.0344
   376.86         13.2105
   377.00         13.4320
   377.14         13.6862
   377.28         13.9591
   377.42         14.2376
   377.56         14.5060
   377.70         14.7435
   377.84         14.9274
   377.98         15.0379
   378.12         15.0607
   378.26         14.9883
   378.40         14.8224
   378.54         14.5732
   378.68         14.2577
   378.82         13.8989
   378.96         13.5259
   379.10         13.1729
   379.24         12.8750
   379.38         12.6603
   379.52         12.5443
   379.66         12.5304
   379.80         12.6132
   379.94         12.7776
   380.08         12.9966
   380.22         13.2356
   380.36         13.4604
   380.50         13.6413
   380.64         13.7539
   380.78         13.7789
   380.92         13.7045
   381.06         13.5304
   381.20         13.2662
   381.34         12.9283
   381.48         12.5368
   381.62         12.1132
   381.76         11.6780
   381.90         11.2469
   382.04         10.8292
   382.18         10.4304
   382.32         10.0575
   382.46         9.7170
   382.60         9.4102
   382.74         9.1335
   382.88         8.8856
   383.02         8.6737
   383.16         8.5120
   383.30         8.4164
   383.44         8.3988
   383.58         8.4644
   383.72         8.6100
   383.86         8.8234
   384.00         9.0867
   384.14         9.3815
   384.28         9.6903
   384.42         9.9941
   384.56         10.2718
   384.70         10.5014
   384.84         10.6656
   384.98         10.7589
   385.12         10.7878
   385.26         10.7675
   385.40         10.7185
   385.54         10.6627
   385.68         10.6176
   385.82         10.5907
   385.96         10.5804
   386.10         10.5820
   386.24         10.5931
   386.38         10.6135
   386.52         10.6436
   386.66         10.6815
   386.80         10.7221
   386.94         10.7578
   387.08         10.7831
   387.22         10.7975
   387.36         10.8055
   387.50         10.8157
   387.64         10.8387
   387.78         10.8831
   387.92         10.9549
   388.06         11.0590
   388.20         11.2004
   388.34         11.3838
   388.48         11.6142
   388.62         11.8971
   388.76         12.2356
   388.90         12.6246
   389.04         13.0467
   389.18         13.4754
   389.32         13.8828
   389.46         14.2468
   389.60         14.5558
   389.74         14.8092
   389.88         15.0131
   390.02         15.1785
   390.16         15.3191
   390.30         15.4498
   390.44         15.5839
   390.58         15.7280
   390.72         15.8791
   390.86         16.0235
   391.00         16.1418
   391.14         16.2150
   391.28         16.2266
   391.42         16.1601
   391.56         15.9975
   391.70         15.7207
   391.84         15.3169
   391.98         14.7815
   392.12         14.1195
   392.26         13.3463
   392.40         12.4884
   392.54         11.5830
   392.68         10.6784
   392.82         9.8284
   392.96         9.0860
   393.10         8.4971
   393.24         8.0977
   393.38         7.9131
   393.52         7.9565
   393.66         8.2270
   393.80         8.7077
   393.94         9.3645
   394.08         10.1495
   394.22         11.0065
   394.36         11.8788
   394.50         12.7154
   394.64         13.4757
   394.78         14.1311
   394.92         14.6608
   395.06         15.0481
   395.20         15.2779
   395.34         15.3354
   395.48         15.2072
   395.62         14.8845
   395.76         14.3709
   395.90         13.6903
   396.04         12.8886
   396.18         12.0281
   396.32         11.1811
   396.46         10.4228
   396.60         9.8262
   396.74         9.4532
   396.88         9.3461
   397.02         9.5233
   397.16         9.9767
   397.30         10.6738
   397.44         11.5621
   397.58         12.5756
   397.72         13.6454
   397.86         14.7077
   398.00         15.7097
   398.14         16.6130
   398.28         17.3948
   398.42         18.0469
   398.56         18.5752
   398.70         18.9968
   398.84         19.3353
   398.98         19.6151
   399.12         19.8567
   399.26         20.0722
   399.40         20.2636
   399.54         20.4274
   399.68         20.5618
   399.82         20.6700
   399.96         20.7610
   400.10         20.8463
   400.24         20.9372
   400.38         21.0405
   400.52         21.1572
   400.66         21.2845
   400.80         21.4169
   400.94         21.5487
   401.08         21.6753
   401.22         21.7942
   401.36         21.9051
   401.50         22.0070
   401.64         22.0952
   401.78         22.1587
   401.92         22.1837
   402.06         22.1606
   402.20         22.0896
   402.34         21.9810
   402.48         21.8515
   402.62         21.7198
   402.76         21.6028
   402.90         21.5131
   403.04         21.4561
   403.18         21.4277
   403.32         21.4171
   403.46         21.4129
   403.60         21.4088
   403.74         21.4045
   403.88         21.4024
   404.02         21.4032
   404.16         21.4013
   404.30         21.3843
   404.44         21.3379
   404.58         21.2552
   404.72         21.1410
   404.86         21.0082
   405.00         20.8685
   405.14         20.7256
   405.28         20.5771
   405.42         20.4199
   405.56         20.2541
   405.70         20.0857
   405.84         19.9247
   405.98         19.7859
   406.12         19.6880
   406.26         19.6452
   406.40         19.6574
   406.54         19.7103
   406.68         19.7848
   406.82         19.8685
   406.96         19.9590
   407.10         20.0594
   407.24         20.1737
   407.38         20.3044
   407.52         20.4534
   407.66         20.6223
   407.80         20.8132
   407.94         21.0279
   408.08         21.2630
   408.22         21.5065
   408.36         21.7372
   408.50         21.9269
   408.64         22.0471
   408.78         22.0718
   408.92         21.9795
   409.06         21.7599
   409.20         21.4243
   409.34         21.0055
   409.48         20.5479
   409.62         20.0956
   409.76         19.6869
   409.90         19.3565
   410.04         19.1351
   410.18         19.0455
   410.32         19.0978
   410.46         19.2847
   410.60         19.5830
   410.74         19.9596
   410.88         20.3763
   411.02         20.7941
   411.16         21.1780
   411.30         21.5012
   411.44         21.7468
   411.58         21.9108
   411.72         22.0020
   411.86         22.0352
   412.00         22.0230
   412.14         21.9733
   412.28         21.8937
   412.42         21.7958
   412.56         21.6953
   412.70         21.6102
   412.84         21.5561
   412.98         21.5385
   413.12         21.5516
   413.26         21.5853
   413.40         21.6321
   413.54         21.6866
   413.68         21.7426
   413.82         21.7929
   413.96         21.8300
   414.10         21.8468
   414.24         21.8364
   414.38         21.7937
   414.52         21.7174
   414.66         21.6136
   414.80         21.4971
   414.94         21.3887
   415.08         21.3094
   415.22         21.2744
   415.36         21.2892
   415.50         21.3476
   415.64         21.4379
   415.78         21.5504
   415.92         21.6751
   416.06         21.7963
   416.20         21.8913
   416.34         21.9381
   416.48         21.9227
   416.62         21.8402
   416.76         21.6948
   416.90         21.4986
   417.04         21.2697
   417.18         21.0316
   417.32         20.8098
   417.46         20.6255
   417.60         20.4929
   417.74         20.4187
   417.88         20.4040
   418.02         20.4456
   418.16         20.5366
   418.30         20.6650
   418.44         20.8112
   418.58         20.9487
   418.72         21.0550
   418.86         21.1186
   419.00         21.1370
   419.14         21.1133
   419.28         21.0557
   419.42         20.9781
   419.56         20.8980
   419.70         20.8327
   419.84         20.7981
   419.98         20.8064
   420.12         20.8633
   420.26         20.9674
   420.40         21.1111
   420.54         21.2828
   420.68         21.4691
   420.82         21.6556
   420.96         21.8299
   421.10         21.9812
   421.24         22.0986
   421.38         22.1688
   421.52         22.1775
   421.66         22.1194
   421.80         22.0046
   421.94         21.8542
   422.08         21.6903
   422.22         21.5289
   422.36         21.3802
   422.50         21.2516
   422.64         21.1486
   422.78         21.0755
   422.92         21.0361
   423.06         21.0354
   423.20         21.0791
   423.34         21.1684
   423.48         21.2948
   423.62         21.4396
   423.76         21.5784
   423.90         21.6906
   424.04         21.7674
   424.18         21.8140
   424.32         21.8437
   424.46         21.8664
   424.60         21.8815
   424.74         21.8786
   424.88         21.8453
   425.02         21.7785
   425.16         21.6882
   425.30         21.5921
   425.44         21.5094
   425.58         21.4539
   425.72         21.4299
   425.86         21.4292
   426.00         21.4327
   426.14         21.4192
   426.28         21.3736
   426.42         21.2917
   426.56         21.1798
   426.70         21.0488
   426.84         20.9098
   426.98         20.7739
   427.12         20.6526
   427.26         20.5556
   427.40         20.4882
   427.54         20.4527
   427.68         20.4487
   427.82         20.4687
   427.96         20.4967
   428.10         20.5140
   428.24         20.5038
   428.38         20.4530
   428.52         20.3525
   428.66         20.1977
   428.80         19.9895
   428.94         19.7321
   429.08         19.4315
   429.22         19.0943
   429.36         18.7255
   429.50         18.3289
   429.64         17.9091
   429.78         17.4722
   429.92         17.0298
   430.06         16.6032
   430.20         16.2261
   430.34         15.9416
   430.48         15.7972
   430.62         15.8341
   430.76         16.0768
   430.90         16.5247
   431.04         17.1483
   431.18         17.8931
   431.32         18.6905
   431.46         19.4739
   431.60         20.1918
   431.74         20.8108
   431.88         21.3110
   432.02         21.6834
   432.16         21.9333
   432.30         22.0806
   432.44         22.1523
   432.58         22.1729
   432.72         22.1560
   432.86         22.1037
   433.00         22.0131
   433.14         21.8812
   433.28         21.7066
   433.42         21.4918
   433.56         21.2462
   433.70         20.9873
   433.84         20.7401
   433.98         20.5334
   434.12         20.3967
   434.26         20.3554
   434.40         20.4217
   434.54         20.5918
   434.68         20.8506
   434.82         21.1753
   434.96         21.5388
   435.10         21.9139
   435.24         22.2796
   435.38         22.6264
   435.52         22.9557
   435.66         23.2738
   435.80         23.5837
   435.94         23.8808
   436.08         24.1513
   436.22         24.3738
   436.36         24.5247
   436.50         24.5873
   436.64         24.5579
   436.78         24.4479
   436.92         24.2766
   437.06         24.0588
   437.20         23.7995
   437.34         23.5010
   437.48         23.1723
   437.62         22.8294
   437.76         22.4894
   437.90         22.1660
   438.04         21.8705
   438.18         21.6114
   438.32         21.3981
   438.46         21.2435
   438.60         21.1613
   438.74         21.1587
   438.88         21.2348
   439.02         21.3828
   439.16         21.5894
   439.30         21.8329
   439.44         22.0839
   439.58         22.3125
   439.72         22.4976
   439.86         22.6339
   440.00         22.7346
   440.14         22.8205
   440.28         22.9061
   440.42         22.9976
   440.56         23.0995
   440.70         23.2176
   440.84         23.3588
   440.98         23.5246
   441.12         23.7089
   441.26         23.8983
   441.40         24.0769
   441.54         24.2349
   441.68         24.3686
   441.82         24.4779
   441.96         24.5637
   442.10         24.6287
   442.24         24.6759
   442.38         24.7079
   442.52         24.7281
   442.66         24.7412
   442.80         24.7510
   442.94         24.7581
   443.08         24.7634
   443.22         24.7722
   443.36         24.7913
   443.50         24.8248
   443.64         24.8712
   443.78         24.9296
   443.92         25.0020
   444.06         25.0879
   444.20         25.1784
   444.34         25.2551
   444.48         25.2971
   444.62         25.2865
   444.76         25.2123
   444.90         25.0733
   445.04         24.8778
   445.18         24.6424
   445.32         24.3866
   445.46         24.1285
   445.60         23.8849
   445.74         23.6733
   445.88         23.5133
   446.02         23.4234
   446.16         23.4164
   446.30         23.4966
   446.44         23.6613
   446.58         23.9004
   446.72         24.1917
   446.86         24.5032
   447.00         24.8048
   447.14         25.0761
   447.28         25.3069
   447.42         25.4948
   447.56         25.6401
   447.70         25.7422
   447.84         25.8017
   447.98         25.8202
   448.12         25.8022
   448.26         25.7546
   448.40         25.6870
   448.54         25.6134
   448.68         25.5490
   448.82         25.5041
   448.96         25.4837
   449.10         25.4919
   449.24         25.5330
   449.38         25.6091
   449.52         25.7205
   449.66         25.8697
   449.80         26.0570
   449.94         26.2736
   450.08         26.5004
   450.22         26.7143
   450.36         26.8971
   450.50         27.0377
   450.64         27.1293
   450.78         27.1702
   450.92         27.1643
   451.06         27.1179
   451.20         27.0379
   451.34         26.9292
   451.48         26.7924
   451.62         26.6268
   451.76         26.4334
   451.90         26.2126
   452.04         25.9629
   452.18         25.6853
   452.32         25.3880
   452.46         25.0881
   452.60         24.8080
   452.74         24.5700
   452.88         24.3927
   453.02         24.2890
   453.16         24.2640
   453.30         24.3135
   453.44         24.4245
   453.58         24.5761
   453.72         24.7421
   453.86         24.8975
   454.00         25.0233
   454.14         25.1082
   454.28         25.1495
   454.42         25.1530
   454.56         25.1315
   454.70         25.1025
   454.84         25.0859
   454.98         25.0987
   455.12         25.1485
   455.26         25.2309
   455.40         25.3338
   455.54         25.4450
   455.68         25.5564
   455.82         25.6614
   455.96         25.7544
   456.10         25.8331
   456.24         25.8999
   456.38         25.9611
   456.52         26.0237
   456.66         26.0893
   456.80         26.1518
   456.94         26.2022
   457.08         26.2310
   457.22         26.2286
   457.36         26.1873
   457.50         26.1046
   457.64         25.9836
   457.78         25.8333
   457.92         25.6677
   458.06         25.5022
   458.20         25.3501
   458.34         25.2202
   458.48         25.1164
   458.62         25.0409
   458.76         24.9930
   458.90         24.9685
   459.04         24.9600
   459.18         24.9578
   459.32         24.9542
   459.46         24.9504
   459.60         24.9556
   459.74         24.9805
   459.88         25.0337
   460.02         25.1218
   460.16         25.2465
   460.30         25.4006
   460.44         25.5708
   460.58         25.7414
   460.72         25.8991
   460.86         26.0364
   461.00         26.1510
   461.14         26.2436
   461.28         26.3175
   461.42         26.3764
   461.56         26.4242
   461.70         26.4643
   461.84         26.4995
   461.98         26.5331
   462.12         26.5655
   462.26         26.5926
   462.40         26.6067
   462.54         26.5983
   462.68         26.5609
   462.82         26.4930
   462.96         26.3967
   463.10         26.2774
   463.24         26.1399
   463.38         25.9878
   463.52         25.8231
   463.66         25.6484
   463.80         25.4694
   463.94         25.2955
   464.08         25.1379
   464.22         25.0051
   464.36         24.9013
   464.50         24.8297
   464.64         24.7944
   464.78         24.7979
   464.92         24.8390
   465.06         24.9101
   465.20         24.9986
   465.34         25.0870
   465.48         25.1525
   465.62         25.1723
   465.76         25.1326
   465.90         25.0321
   466.04         24.8813
   466.18         24.7015
   466.32         24.5216
   466.46         24.3703
   466.60         24.2671
   466.74         24.2189
   466.88         24.2226
   467.02         24.2723
   467.16         24.3624
   467.30         24.4837
   467.44         24.6210
   467.58         24.7546
   467.72         24.8646
   467.86         24.9374
   468.00         24.9697
   468.14         24.9692
   468.28         24.9521
   468.42         24.9360
   468.56         24.9310
   468.70         24.9381
   468.84         24.9511
   468.98         24.9595
   469.12         24.9499
   469.26         24.9113
   469.40         24.8402
   469.54         24.7421
   469.68         24.6276
   469.82         24.5070
   469.96         24.3874
   470.10         24.2735
   470.24         24.1706
   470.38         24.0865
   470.52         24.0334
   470.66         24.0238
   470.80         24.0640
   470.94         24.1553
   471.08         24.2953
   471.22         24.4771
   471.36         24.6895
   471.50         24.9176
   471.64         25.1435
   471.78         25.3485
   471.92         25.5153
   472.06         25.6310
   472.20         25.6878
   472.34         25.6833
   472.48         25.6190
   472.62         25.5021
   472.76         25.3480
   472.90         25.1802
   473.04         25.0254
   473.18         24.9091
   473.32         24.8500
   473.46         24.8579
   473.60         24.9333
   473.74         25.0684
   473.88         25.2472
   474.02         25.4463
   474.16         25.6407
   474.30         25.8088
   474.44         25.9351
   474.58         26.0134
   474.72         26.0465
   474.86         26.0403
   475.00         25.9990
   475.14         25.9244
   475.28         25.8216
   475.42         25.6992
   475.56         25.5666
   475.70         25.4348
   475.84         25.3142
   475.98         25.2125
   476.12         25.1337
   476.26         25.0800
   476.40         25.0538
   476.54         25.0583
   476.68         25.0955
   476.82         25.1666
   476.96         25.2717
   477.10         25.4068
   477.24         25.5624
   477.38         25.7232
   477.52         25.8682
   477.66         25.9771
   477.80         26.0378
   477.94         26.0490
   478.08         26.0189
   478.22         25.9624
   478.36         25.8980
   478.50         25.8424
   478.64         25.8077
   478.78         25.8015
   478.92         25.8274
   479.06         25.8851
   479.20         25.9688
   479.34         26.0664
   479.48         26.1621
   479.62         26.2405
   479.76         26.2878
   479.90         26.2959
   480.04         26.2660
   480.18         26.2071
   480.32         26.1343
   480.46         26.0648
   480.60         26.0142
   480.74         25.9936
   480.88         26.0071
   481.02         26.0498
   481.16         26.1100
   481.30         26.1743
   481.44         26.2318
   481.58         26.2731
   481.72         26.2896
   481.86         26.2741
   482.00         26.2268
   482.14         26.1559
   482.28         26.0722
   482.42         25.9867
   482.56         25.9088
   482.70         25.8441
   482.84         25.7935
   482.98         25.7551
   483.12         25.7257
   483.26         25.7023
   483.40         25.6815
   483.54         25.6588
   483.68         25.6289
   483.82         25.5882
   483.96         25.5358
   484.10         25.4684
   484.24         25.3770
   484.38         25.2499
   484.52         25.0779
   484.66         24.8523
   484.80         24.5585
   484.94         24.1811
   485.08         23.7184
   485.22         23.1862
   485.36         22.6147
   485.50         22.0441
   485.64         21.5180
   485.78         21.0750
   485.92         20.7431
   486.06         20.5379
   486.20         20.4644
   486.34         20.5205
   486.48         20.6967
   486.62         20.9743
   486.76         21.3277
   486.90         21.7285
   487.04         22.1495
   487.18         22.5645
   487.32         22.9492
   487.46         23.2872
   487.60         23.5738
   487.74         23.8127
   487.88         24.0077
   488.02         24.1623
   488.16         24.2822
   488.30         24.3762
   488.44         24.4539
   488.58         24.5269
   488.72         24.6079
   488.86         24.7071
   489.00         24.8306
   489.14         24.9790
   489.28         25.1484
   489.42         25.3336
   489.56         25.5251
   489.70         25.7054
   489.84         25.8536
   489.98         25.9533
   490.12         25.9972
   490.26         25.9868
   490.40         25.9304
   490.54         25.8378
   490.68         25.7142
   490.82         25.5594
   490.96         25.3724
   491.10         25.1555
   491.24         24.9165
   491.38         24.6686
   491.52         24.4303
   491.66         24.2237
   491.80         24.0690
   491.94         23.9802
   492.08         23.9616
   492.22         24.0065
   492.36         24.1016
   492.50         24.2320
   492.64         24.3817
   492.78         24.5333
   492.92         24.6714
   493.06         24.7853
   493.20         24.8686
   493.34         24.9201
   493.48         24.9473
   493.62         24.9665
   493.76         24.9946
   493.90         25.0459
   494.04         25.1310
   494.18         25.2529
   494.32         25.4034
   494.46         25.5631
   494.60         25.7060
   494.74         25.8077
   494.88         25.8551
   495.02         25.8460
   495.16         25.7866
   495.30         25.6895
   495.44         25.5724
   495.58         25.4523
   495.72         25.3405
   495.86         25.2418
   496.00         25.1587
   496.14         25.0960
   496.28         25.0601
   496.42         25.0554
   496.56         25.0793
   496.70         25.1206
   496.84         25.1620
   496.98         25.1842
   497.12         25.1690
   497.26         25.1043
   497.40         24.9903
   497.54         24.8378
   497.68         24.6621
   497.82         24.4796
   497.96         24.3071
   498.10         24.1595
   498.24         24.0495
   498.38         23.9883
   498.52         23.9835
   498.66         24.0366
   498.80         24.1414
   498.94         24.2825
   499.08         24.4377
   499.22         24.5812
   499.36         24.6872
   499.50         24.7350
   499.64         24.7130
   499.78         24.6230
   499.92         24.4801
   500.06         24.3043
   500.20         24.1117
   500.34         23.9127
   500.48         23.7146
   500.62         23.5232
   500.76         23.3418
   500.90         23.1743
   501.04         23.0254
   501.18         22.8991
   501.32         22.7982
   501.46         22.7240
   501.60         22.6764
   501.74         22.6559
   501.88         22.6654
   502.02         22.7076
   502.16         22.7859
   502.30         22.9028
   502.44         23.0539
   502.58         23.2254
   502.72         23.3975
   502.86         23.5492
   503.00         23.6629
   503.14         23.7298
   503.28         23.7519
   503.42         23.7394
   503.56         23.7055
   503.70         23.6615
   503.84         23.6154
   503.98         23.5751
   504.12         23.5478
   504.26         23.5382
   504.40         23.5496
   504.54         23.5827
   504.68         23.6358
   504.82         23.7073
   504.96         23.7943
   505.10         23.8927
   505.24         23.9968
   505.38         24.0991
   505.52         24.1929
   505.66         24.2767
   505.80         24.3541
   505.94         24.4249
   506.08         24.4814
   506.22         24.5134
   506.36         24.5151
   506.50         24.4868
   506.64         24.4328
   506.78         24.3546
   506.92         24.2526
   507.06         24.1299
   507.20         23.9930
   507.34         23.8515
   507.48         23.7154
   507.62         23.5940
   507.76         23.4955
   507.90         23.4272
   508.04         23.3966
   508.18         23.4114
   508.32         23.4757
   508.46         23.5847
   508.60         23.7227
   508.74         23.8677
   508.88         24.0005
   509.02         24.1079
   509.16         24.1811
   509.30         24.2136
   509.44         24.2033
   509.58         24.1561
   509.72         24.0838
   509.86         24.0014
   510.00         23.9257
   510.14         23.8717
   510.28         23.8494
   510.42         23.8621
   510.56         23.9088
   510.70         23.9855
   510.84         24.0833
   510.98         24.1867
   511.12         24.2772
   511.26         24.3401
   511.40         24.3681
   511.54         24.3594
   511.68         24.3133
   511.82         24.2290
   511.96         24.1097
   512.10         23.9653
   512.24         23.8111
   512.38         23.6624
   512.52         23.5330
   512.66         23.4302
   512.80         23.3534
   512.94         23.2984
   513.08         23.2617
   513.22         23.2400
   513.36         23.2271
   513.50         23.2137
   513.64         23.1919
   513.78         23.1596
   513.92         23.1205
   514.06         23.0793
   514.20         23.0407
   514.34         23.0102
   514.48         22.9956
   514.62         23.0031
   514.76         23.0325
   514.90         23.0761
   515.04         23.1212
   515.18         23.1524
   515.32         23.1516
   515.46         23.0998
   515.60         22.9823
   515.74         22.7921
   515.88         22.5281
   516.02         22.1938
   516.16         21.8022
   516.30         21.3818
   516.44         20.9726
   516.58         20.6170
   516.72         20.3526
   516.86         20.2054
   517.00         20.1829
   517.14         20.2713
   517.28         20.4422
   517.42         20.6648
   517.56         20.9112
   517.70         21.1571
   517.84         21.3804
   517.98         21.5648
   518.12         21.7034
   518.26         21.8013
   518.40         21.8720
   518.54         21.9312
   518.68         21.9950
   518.82         22.0815
   518.96         22.2057
   519.10         22.3696
   519.24         22.5589
   519.38         22.7489
   519.52         22.9127
   519.66         23.0316
   519.80         23.1042
   519.94         23.1453
   520.08         23.1752
   520.22         23.2068
   520.36         23.2407
   520.50         23.2723
   520.64         23.3012
   520.78         23.3306
   520.92         23.3647
   521.06         23.4051
   521.20         23.4472
   521.34         23.4791
   521.48         23.4853
   521.62         23.4531
   521.76         23.3761
   521.90         23.2550
   522.04         23.0989
   522.18         22.9236
   522.32         22.7483
   522.46         22.5922
   522.60         22.4723
   522.74         22.4005
   522.88         22.3817
   523.02         22.4177
   523.16         22.5099
   523.30         22.6565
   523.44         22.8458
   523.58         23.0572
   523.72         23.2657
   523.86         23.4478
   524.00         23.5868
   524.14         23.6754
   524.28         23.7149
   524.42         23.7119
   524.56         23.6763
   524.70         23.6221
   524.84         23.5624
   524.98         23.5022
   525.12         23.4377
   525.26         23.3587
   525.40         23.2521
   525.54         23.1066
   525.68         22.9156
   525.82         22.6780
   525.96         22.3988
   526.10         22.0897
   526.24         21.7678
   526.38         21.4561
   526.52         21.1817
   526.66         20.9725
   526.80         20.8514
   526.94         20.8307
   527.08         20.9107
   527.22         21.0809
   527.36         21.3214
   527.50         21.6047
   527.64         21.9031
   527.78         22.1978
   527.92         22.4799
   528.06         22.7463
   528.20         22.9940
   528.34         23.2171
   528.48         23.4075
   528.62         23.5567
   528.76         23.6600
   528.90         23.7187
   529.04         23.7402
   529.18         23.7364
   529.32         23.7187
   529.46         23.6958
   529.60         23.6757
   529.74         23.6669
   529.88         23.6785
   530.02         23.7176
   530.16         23.7855
   530.30         23.8770
   530.44         23.9825
   530.58         24.0892
   530.72         24.1814
   530.86         24.2435
   531.00         24.2633
   531.14         24.2354
   531.28         24.1615
   531.42         24.0482
   531.56         23.9013
   531.70         23.7245
   531.84         23.5245
   531.98         23.3124
   532.12         23.1014
   532.26         22.9054
   532.40         22.7380
   532.54         22.6109
   532.68         22.5291
   532.82         22.4905
   532.96         22.4910
   533.10         22.5263
   533.24         22.5904
   533.38         22.6730
   533.52         22.7618
   533.66         22.8458
   533.80         22.9176
   533.94         22.9746
   534.08         23.0189
   534.22         23.0571
   534.36         23.1021
   534.50         23.1691
   534.64         23.2667
   534.78         23.3930
   534.92         23.5400
   535.06         23.6965
   535.20         23.8481
   535.34         23.9804
   535.48         24.0816
   535.62         24.1431
   535.76         24.1574
   535.90         24.1177
   536.04         24.0232
   536.18         23.8816
   536.32         23.7084
   536.46         23.5235
   536.60         23.3469
   536.74         23.1952
   536.88         23.0801
   537.02         23.0086
   537.16         22.9817
   537.30         22.9945
   537.44         23.0386
   537.58         23.1040
   537.72         23.1791
   537.86         23.2506
   538.00         23.3056
   538.14         23.3346
   538.28         23.3326
   538.42         23.2982
   538.56         23.2333
   538.70         23.1438
   538.84         23.0384
   538.98         22.9252
   539.12         22.8089
   539.26         22.6903
   539.40         22.5696
   539.54         22.4505
   539.68         22.3384
   539.82         22.2389
   539.96         22.1568
   540.10         22.0971
   540.24         22.0650
   540.38         22.0635
   540.52         22.0943
   540.66         22.1576
   540.80         22.2509
   540.94         22.3680
   541.08         22.4989
   541.22         22.6337
   541.36         22.7651
   541.50         22.8878
   541.64         22.9936
   541.78         23.0738
   541.92         23.1240
   542.06         23.1459
   542.20         23.1431
   542.34         23.1189
   542.48         23.0794
   542.62         23.0345
   542.76         22.9960
   542.90         22.9753
   543.04         22.9817
   543.18         23.0196
   543.32         23.0851
   543.46         23.1688
   543.60         23.2598
   543.74         23.3505
   543.88         23.4386
   544.02         23.5247
   544.16         23.6040
   544.30         23.6656
   544.44         23.7016
   544.58         23.7123
   544.72         23.7037
   544.86         23.6833
   545.00         23.6577
   545.14         23.6318
   545.28         23.6076
   545.42         23.5844
   545.56         23.5570
   545.70         23.5186
   545.84         23.4648
   545.98         23.3949
   546.12         23.3131
   546.26         23.2262
   546.40         23.1385
   546.54         23.0483
   546.68         22.9504
   546.82         22.8409
   546.96         22.7203
   547.10         22.5974
   547.24         22.4845
   547.38         22.3905
   547.52         22.3176
   547.66         22.2641
   547.80         22.2289
   547.94         22.2135
   548.08         22.2192
   548.22         22.2451
   548.36         22.2893
   548.50         22.3495
   548.64         22.4212
   548.78         22.4971
   548.92         22.5694
   549.06         22.6321
   549.20         22.6822
   549.34         22.7207
   549.48         22.7482
   549.62         22.7648
   549.76         22.7720
   549.90         22.7704
   550.04         22.7566
   550.18         22.7263
   550.32         22.6791
   550.46         22.6208
   550.60         22.5602
   550.74         22.5071
   550.88         22.4712
   551.02         22.4598
   551.16         22.4740
   551.30         22.5091
   551.44         22.5563
   551.58         22.6065
   551.72         22.6506
   551.86         22.6808
   552.00         22.6934
   552.14         22.6881
   552.28         22.6651
   552.42         22.6255
   552.56         22.5719
   552.70         22.5102
   552.84         22.4490
   552.98         22.3987
   553.12         22.3667
   553.26         22.3560
   553.40         22.3660
   553.54         22.3936
   553.68         22.4352
   553.82         22.4893
   553.96         22.5559
   554.10         22.6335
   554.24         22.7182
   554.38         22.8051
   554.52         22.8895
   554.66         22.9649
   554.80         23.0217
   554.94         23.0506
   555.08         23.0461
   555.22         23.0074
   555.36         22.9372
   555.50         22.8420
   555.64         22.7295
   555.78         22.6083
   555.92         22.4883
   556.06         22.3797
   556.20         22.2908
   556.34         22.2265
   556.48         22.1870
   556.62         22.1691
   556.76         22.1682
   556.90         22.1803
   557.04         22.2013
   557.18         22.2252
   557.32         22.2450
   557.46         22.2525
   557.60         22.2386
   557.74         22.1956
   557.88         22.1217
   558.02         22.0207
   558.16         21.8986
   558.30         21.7623
   558.44         21.6223
   558.58         21.4925
   558.72         21.3841
   558.86         21.3042
   559.00         21.2563
   559.14         21.2389
   559.28         21.2489
   559.42         21.2841
   559.56         21.3432
   559.70         21.4245
   559.84         21.5248
   559.98         21.6399
   560.12         21.7656
   560.26         21.8963
   560.40         22.0238
   560.54         22.1387
   560.68         22.2323
   560.82         22.2979
   560.96         22.3330
   561.10         22.3383
   561.24         22.3144
   561.38         22.2610
   561.52         22.1817
   561.66         22.0851
   561.80         21.9847
   561.94         21.8970
   562.08         21.8360
   562.22         21.8077
   562.36         21.8087
   562.50         21.8305
   562.64         21.8638
   562.78         21.9001
   562.92         21.9306
   563.06         21.9505
   563.20         21.9612
   563.34         21.9677
   563.48         21.9751
   563.62         21.9859
   563.76         21.9984
   563.90         22.0091
   564.04         22.0158
   564.18         22.0180
   564.32         22.0148
   564.46         22.0053
   564.60         21.9881
   564.74         21.9597
   564.88         21.9153
   565.02         21.8527
   565.16         21.7747
   565.30         21.6871
   565.44         21.5962
   565.58         21.5086
   565.72         21.4310
   565.86         21.3694
   566.00         21.3295
   566.14         21.3172
   566.28         21.3360
   566.42         21.3850
   566.56         21.4606
   566.70         21.5577
   566.84         21.6695
   566.98         21.7867
   567.12         21.8980
   567.26         21.9920
   567.40         22.0588
   567.54         22.0915
   567.68         22.0880
   567.82         22.0499
   567.96         21.9833
   568.10         21.8985
   568.24         21.8082
   568.38         21.7250
   568.52         21.6607
   568.66         21.6252
   568.80         21.6239
   568.94         21.6544
   569.08         21.7075
   569.22         21.7719
   569.36         21.8365
   569.50         21.8894
   569.64         21.9187
   569.78         21.9148
   569.92         21.8735
   570.06         21.7969
   570.20         21.6927
   570.34         21.5728
   570.48         21.4522
   570.62         21.3462
   570.76         21.2669
   570.90         21.2215
   571.04         21.2145
   571.18         21.2490
   571.32         21.3239
   571.46         21.4328
   571.60         21.5672
   571.74         21.7177
   571.88         21.8754
   572.02         22.0311
   572.16         22.1760
   572.30         22.3025
   572.44         22.4054
   572.58         22.4832
   572.72         22.5379
   572.86         22.5728
   573.00         22.5916
   573.14         22.5980
   573.28         22.5956
   573.42         22.5870
   573.56         22.5731
   573.70         22.5553
   573.84         22.5348
   573.98         22.5110
   574.12         22.4810
   574.26         22.4403
   574.40         22.3864
   574.54         22.3204
   574.68         22.2450
   574.82         22.1636
   574.96         22.0798
   575.10         21.9970
   575.24         21.9199
   575.38         21.8546
   575.52         21.8069
   575.66         21.7806
   575.80         21.7763
   575.94         21.7926
   576.08         21.8257
   576.22         21.8702
   576.36         21.9219
   576.50         21.9772
   576.64         22.0311
   576.78         22.0751
   576.92         22.0999
   577.06         22.0989
   577.20         22.0680
   577.34         22.0061
   577.48         21.9166
   577.62         21.8073
   577.76         21.6885
   577.90         21.5714
   578.04         21.4666
   578.18         21.3828
   578.32         21.3258
   578.46         21.2992
   578.60         21.3032
   578.74         21.3362
   578.88         21.3952
   579.02         21.4753
   579.16         21.5699
   579.30         21.6686
   579.44         21.7591
   579.58         21.8340
   579.72         21.8939
   579.86         21.9432
   580.00         21.9858
   580.14         22.0249
   580.28         22.0608
   580.42         22.0912
   580.56         22.1152
   580.70         22.1341
   580.84         22.1516
   580.98         22.1728
   581.12         22.2022
   581.26         22.2430
   581.40         22.2966
   581.54         22.3625
   581.68         22.4382
   581.82         22.5207
   581.96         22.6068
   582.10         22.6927
   582.24         22.7743
   582.38         22.8468
   582.52         22.9044
   582.66         22.9420
   582.80         22.9572
   582.94         22.9501
   583.08         22.9242
   583.22         22.8857
   583.36         22.8408
   583.50         22.7940
   583.64         22.7471
   583.78         22.6993
   583.92         22.6482
   584.06         22.5911
   584.20         22.5257
   584.34         22.4489
   584.48         22.3577
   584.62         22.2501
   584.76         22.1279
   584.90         21.9986
   585.04         21.8730
   585.18         21.7625
   585.32         21.6766
   585.46         21.6220
   585.60         21.6021
   585.74         21.6186
   585.88         21.6715
   586.02         21.7570
   586.16         21.8679
   586.30         21.9952
   586.44         22.1273
   586.58         22.2501
   586.72         22.3514
   586.86         22.4228
   587.00         22.4587
   587.14         22.4577
   587.28         22.4238
   587.42         22.3614
   587.56         22.2696
   587.70         22.1405
   587.84         21.9657
   587.98         21.7440
   588.12         21.4822
   588.26         21.1905
   588.40         20.8805
   588.54         20.5671
   588.68         20.2693
   588.82         20.0090
   588.96         19.8079
   589.10         19.6826
   589.24         19.6427
   589.38         19.6918
   589.52         19.8270
   589.66         20.0376
   589.80         20.3067
   589.94         20.6112
   590.08         20.9236
   590.22         21.2164
   590.36         21.4698
   590.50         21.6758
   590.64         21.8326
   590.78         21.9395
   590.92         21.9983
   591.06         22.0170
   591.20         22.0085
   591.34         21.9838
   591.48         21.9487
   591.62         21.9042
   591.76         21.8497
   591.90         21.7859
   592.04         21.7145
   592.18         21.6386
   592.32         21.5617
   592.46         21.4890
   592.60         21.4264
   592.74         21.3800
   592.88         21.3553
   593.02         21.3564
   593.16         21.3837
   593.30         21.4339
   593.44         21.5007
   593.58         21.5746
   593.72         21.6442
   593.86         21.6973
   594.00         21.7235
   594.14         21.7160
   594.28         21.6736
   594.42         21.5992
   594.56         21.5002
   594.70         21.3889
   594.84         21.2806
   594.98         21.1897
   595.12         21.1267
   595.26         21.0960
   595.40         21.0968
   595.54         21.1249
   595.68         21.1729
   595.82         21.2331
   595.96         21.2977
   596.10         21.3573
   596.24         21.4031
   596.38         21.4300
   596.52         21.4354
   596.66         21.4193
   596.80         21.3841
   596.94         21.3344
   597.08         21.2762
   597.22         21.2151
   597.36         21.1542
   597.50         21.0953
   597.64         21.0397
   597.78         20.9877
   597.92         20.9399
   598.06         20.8991
   598.20         20.8700
   598.34         20.8567
   598.48         20.8614
   598.62         20.8829
   598.76         20.9179
   598.90         20.9638
   599.04         21.0179
   599.18         21.0754
   599.32         21.1306
   599.46         21.1767
   599.60         21.2064
   599.74         21.2143
   599.88         21.1981
   600.02         21.1594
   600.16         21.1021
   600.30         21.0293
   600.44         20.9447
   600.58         20.8547
   600.72         20.7670
   600.86         20.6865
   601.00         20.6148
   601.14         20.5537
   601.28         20.5052
   601.42         20.4706
   601.56         20.4490
   601.70         20.4375
   601.84         20.4328
   601.98         20.4329
   602.12         20.4369
   602.26         20.4451
   602.40         20.4595
   602.54         20.4812
   602.68         20.5091
   602.82         20.5412
   602.96         20.5759
   603.10         20.6129
   603.24         20.6529
   603.38         20.6954
   603.52         20.7389
   603.66         20.7827
   603.80         20.8268
   603.94         20.8711
   604.08         20.9136
   604.22         20.9512
   604.36         20.9812
   604.50         21.0030
   604.64         21.0178
   604.78         21.0270
   604.92         21.0318
   605.06         21.0335
   605.20         21.0320
   605.34         21.0269
   605.48         21.0188
   605.62         21.0102
   605.76         21.0044
   605.90         21.0040
   606.04         21.0101
   606.18         21.0215
   606.32         21.0342
   606.46         21.0426
   606.60         21.0408
   606.74         21.0238
   606.88         20.9895
   607.02         20.9378
   607.16         20.8708
   607.30         20.7918
   607.44         20.7046
   607.58         20.6123
   607.72         20.5186
   607.86         20.4282
   608.00         20.3469
   608.14         20.2805
   608.28         20.2329
   608.42         20.2046
   608.56         20.1932
   608.70         20.1930
   608.84         20.1958
   608.98         20.1935
   609.12         20.1829
   609.26         20.1641
   609.40         20.1386
   609.54         20.1087
   609.68         20.0774
   609.82         20.0488
   609.96         20.0266
   610.10         20.0133
   610.24         20.0098
   610.38         20.0172
   610.52         20.0352
   610.66         20.0614
   610.80         20.0906
   610.94         20.1166
   611.08         20.1342
   611.22         20.1404
   611.36         20.1341
   611.50         20.1164
   611.64         20.0913
   611.78         20.0640
   611.92         20.0386
   612.06         20.0170
   612.20         19.9992
   612.34         19.9810
   612.48         19.9560
   612.62         19.9213
   612.76         19.8771
   612.90         19.8262
   613.04         19.7729
   613.18         19.7230
   613.32         19.6821
   613.46         19.6546
   613.60         19.6439
   613.74         19.6522
   613.88         19.6794
   614.02         19.7219
   614.16         19.7735
   614.30         19.8271
   614.44         19.8765
   614.58         19.9157
   614.72         19.9382
   614.86         19.9364
   615.00         19.9045
   615.14         19.8435
   615.28         19.7603
   615.42         19.6619
   615.56         19.5545
   615.70         19.4440
   615.84         19.3361
   615.98         19.2372
   616.12         19.1530
   616.26         19.0888
   616.40         19.0487
   616.54         19.0350
   616.68         19.0489
   616.82         19.0905
   616.96         19.1590
   617.10         19.2516
   617.24         19.3610
   617.38         19.4771
   617.52         19.5893
   617.66         19.6902
   617.80         19.7752
   617.94         19.8403
   618.08         19.8831
   618.22         19.9035
   618.36         19.9047
   618.50         19.8924
   618.64         19.8735
   618.78         19.8533
   618.92         19.8366
   619.06         19.8283
   619.20         19.8327
   619.34         19.8522
   619.48         19.8871
   619.62         19.9346
   619.76         19.9909
   619.90         20.0519
   620.04         20.1128
   620.18         20.1681
   620.32         20.2119
   620.46         20.2399
   620.60         20.2512
   620.74         20.2468
   620.88         20.2286
   621.02         20.1989
   621.16         20.1617
   621.30         20.1210
   621.44         20.0807
   621.58         20.0444
   621.72         20.0145
   621.86         19.9911
   622.00         19.9715
   622.14         19.9516
   622.28         19.9288
   622.42         19.9016
   622.56         19.8672
   622.70         19.8212
   622.84         19.7616
   622.98         19.6908
   623.12         19.6143
   623.26         19.5376
   623.40         19.4643
   623.54         19.3975
   623.68         19.3415
   623.82         19.3011
   623.96         19.2786
   624.10         19.2707
   624.24         19.2706
   624.38         19.2709
   624.52         19.2651
   624.66         19.2501
   624.80         19.2271
   624.94         19.1998
   625.08         19.1687
   625.22         19.1296
   625.36         19.0784
   625.50         19.0169
   625.64         18.9512
   625.78         18.8887
   625.92         18.8364
   626.06         18.8005
   626.20         18.7878
   626.34         18.8032
   626.48         18.8460
   626.62         18.9092
   626.76         18.9826
   626.90         19.0578
   627.04         19.1290
   627.18         19.1922
   627.32         19.2449
   627.46         19.2859
   627.60         19.3141
   627.74         19.3291
   627.88         19.3333
   628.02         19.3341
   628.16         19.3416
   628.30         19.3623
   628.44         19.3978
   628.58         19.4451
   628.72         19.4974
   628.86         19.5466
   629.00         19.5833
   629.14         19.5996
   629.28         19.5925
   629.42         19.5643
   629.56         19.5210
   629.70         19.4698
   629.84         19.4174
   629.98         19.3698
   630.12         19.3314
   630.26         19.3036
   630.40         19.2838
   630.54         19.2659
   630.68         19.2439
   630.82         19.2129
   630.96         19.1705
   631.10         19.1160
   631.24         19.0513
   631.38         18.9818
   631.52         18.9162
   631.66         18.8640
   631.80         18.8346
   631.94         18.8345
   632.08         18.8650
   632.22         18.9224
   632.36         18.9992
   632.50         19.0844
   632.64         19.1664
   632.78         19.2344
   632.92         19.2801
   633.06         19.2988
   633.20         19.2907
   633.34         19.2605
   633.48         19.2164
   633.62         19.1681
   633.76         19.1253
   633.90         19.0956
   634.04         19.0842
   634.18         19.0934
   634.32         19.1217
   634.46         19.1645
   634.60         19.2147
   634.74         19.2636
   634.88         19.3014
   635.02         19.3188
   635.16         19.3098
   635.30         19.2746
   635.44         19.2180
   635.58         19.1469
   635.72         19.0698
   635.86         18.9953
   636.00         18.9325
   636.14         18.8899
   636.28         18.8730
   636.42         18.8835
   636.56         18.9181
   636.70         18.9703
   636.84         19.0321
   636.98         19.0949
   637.12         19.1505
   637.26         19.1928
   637.40         19.2191
   637.54         19.2305
   637.68         19.2319
   637.82         19.2300
   637.96         19.2311
   638.10         19.2379
   638.24         19.2499
   638.38         19.2659
   638.52         19.2837
   638.66         19.3004
   638.80         19.3120
   638.94         19.3133
   639.08         19.3005
   639.22         19.2725
   639.36         19.2306
   639.50         19.1766
   639.64         19.1132
   639.78         19.0436
   639.92         18.9722
   640.06         18.9033
   640.20         18.8402
   640.34         18.7844
   640.48         18.7358
   640.62         18.6928
   640.76         18.6529
   640.90         18.6153
   641.04         18.5819
   641.18         18.5562
   641.32         18.5419
   641.46         18.5411
   641.60         18.5549
   641.74         18.5826
   641.88         18.6205
   642.02         18.6626
   642.16         18.7034
   642.30         18.7399
   642.44         18.7711
   642.58         18.7961
   642.72         18.8131
   642.86         18.8206
   643.00         18.8197
   643.14         18.8134
   643.28         18.8050
   643.42         18.7981
   643.56         18.7962
   643.70         18.8013
   643.84         18.8123
   643.98         18.8248
   644.12         18.8335
   644.26         18.8335
   644.40         18.8229
   644.54         18.8035
   644.68         18.7807
   644.82         18.7596
   644.96         18.7426
   645.10         18.7284
   645.24         18.7148
   645.38         18.7015
   645.52         18.6905
   645.66         18.6833
   645.80         18.6790
   645.94         18.6748
   646.08         18.6677
   646.22         18.6552
   646.36         18.6365
   646.50         18.6128
   646.64         18.5882
   646.78         18.5674
   646.92         18.5539
   647.06         18.5499
   647.20         18.5567
   647.34         18.5735
   647.48         18.5972
   647.62         18.6240
   647.76         18.6520
   647.90         18.6797
   648.04         18.7018
   648.18         18.7091
   648.32         18.6920
   648.46         18.6449
   648.60         18.5674
   648.74         18.4651
   648.88         18.3483
   649.02         18.2296
   649.16         18.1230
   649.30         18.0412
   649.44         17.9938
   649.58         17.9877
   649.72         18.0266
   649.86         18.1100
   650.00         18.2320
   650.14         18.3813
   650.28         18.5427
   650.42         18.6986
   650.56         18.8309
   650.70         18.9263
   650.84         18.9810
   650.98         18.9996
   651.12         18.9917
   651.26         18.9672
   651.40         18.9343
   651.54         18.8985
   651.68         18.8635
   651.82         18.8327
   651.96         18.8084
   652.10         18.7916
   652.24         18.7820
   652.38         18.7786
   652.52         18.7800
   652.66         18.7844
   652.80         18.7915
   652.94         18.8022
   653.08         18.8182
   653.22         18.8407
   653.36         18.8694
   653.50         18.9014
   653.64         18.9316
   653.78         18.9536
   653.92         18.9604
   654.06         18.9458
   654.20         18.9046
   654.34         18.8335
   654.48         18.7311
   654.62         18.5965
   654.76         18.4271
   654.90         18.2165
   655.04         17.9565
   655.18         17.6448
   655.32         17.2908
   655.46         16.9146
   655.60         16.5414
   655.74         16.1962
   655.88         15.9026
   656.02         15.6817
   656.16         15.5509
   656.30         15.5204
   656.44         15.5917
   656.58         15.7577
   656.72         16.0042
   656.86         16.3110
   657.00         16.6534
   657.14         17.0045
   657.28         17.3379
   657.42         17.6301
   657.56         17.8656
   657.70         18.0416
   657.84         18.1668
   657.98         18.2524
   658.12         18.3061
   658.26         18.3326
   658.40         18.3361
   658.54         18.3215
   658.68         18.2958
   658.82         18.2671
   658.96         18.2442
   659.10         18.2338
   659.24         18.2394
   659.38         18.2611
   659.52         18.2958
   659.66         18.3377
   659.80         18.3811
   659.94         18.4215
   660.08         18.4552
   660.22         18.4799
   660.36         18.4950
   660.50         18.5006
   660.64         18.4986
   660.78         18.4930
   660.92         18.4887
   661.06         18.4893
   661.20         18.4975
   661.34         18.5147
   661.48         18.5410
   661.62         18.5739
   661.76         18.6082
   661.90         18.6365
   662.04         18.6510
   662.18         18.6451
   662.32         18.6155
   662.46         18.5630
   662.60         18.4921
   662.74         18.4076
   662.88         18.3145
   663.02         18.2183
   663.16         18.1244
   663.30         18.0386
   663.44         17.9654
   663.58         17.9072
   663.72         17.8655
   663.86         17.8413
   664.00         17.8350
   664.14         17.8458
   664.28         17.8703
   664.42         17.9031
   664.56         17.9387
   664.70         17.9730
   664.84         18.0036
   664.98         18.0282
   665.12         18.0441
   665.26         18.0482
   665.40         18.0380
   665.54         18.0129
   665.68         17.9749
   665.82         17.9281
   665.96         17.8777
   666.10         17.8287
   666.24         17.7861
   666.38         17.7524
   666.52         17.7274
   666.66         17.7093
   666.80         17.6969
   666.94         17.6889
   667.08         17.6835
   667.22         17.6799
   667.36         17.6783
   667.50         17.6787
   667.64         17.6815
   667.78         17.6881
   667.92         17.6998
   668.06         17.7171
   668.20         17.7387
   668.34         17.7617
   668.48         17.7828
   668.62         17.8000
   668.76         17.8123
   668.90         17.8190
   669.04         17.8190
   669.18         17.8124
   669.32         17.8012
   669.46         17.7873
   669.60         17.7710
   669.74         17.7514
   669.88         17.7268
   670.02         17.6952
   670.16         17.6550
   670.30         17.6058
   670.44         17.5484
   670.58         17.4845
   670.72         17.4173
   670.86         17.3508
   671.00         17.2905
   671.14         17.2428
   671.28         17.2133
   671.42         17.2054
   671.56         17.2195
   671.70         17.2531
   671.84         17.3014
   671.98         17.3581
   672.12         17.4159
   672.26         17.4677
   672.40         17.5077
   672.54         17.5319
   672.68         17.5393
   672.82         17.5313
   672.96         17.5104
   673.10         17.4797
   673.24         17.4429
   673.38         17.4032
   673.52         17.3627
   673.66         17.3232
   673.80         17.2870
   673.94         17.2556
   674.08         17.2296
   674.22         17.2089
   674.36         17.1927
   674.50         17.1799
   674.64         17.1709
   674.78         17.1665
   674.92         17.1678
   675.06         17.1750
   675.20         17.1881
   675.34         17.2068
   675.48         17.2306
   675.62         17.2585
   675.76         17.2895
   675.90         17.3225
   676.04         17.3558
   676.18         17.3882
   676.32         17.4190
   676.46         17.4485
   676.60         17.4766
   676.74         17.5024
   676.88         17.5242
   677.02         17.5395
   677.16         17.5459
   677.30         17.5421
   677.44         17.5280
   677.58         17.5045
   677.72         17.4748
   677.86         17.4428
   678.00         17.4122
   678.14         17.3852
   678.28         17.3625
   678.42         17.3435
   678.56         17.3268
   678.70         17.3118
   678.84         17.2993
   678.98         17.2912
   679.12         17.2898
   679.26         17.2957
   679.40         17.3078
   679.54         17.3250
   679.68         17.3464
   679.82         17.3719
   679.96         17.4020
   680.10         17.4373
   680.24         17.4780
   680.38         17.5231
   680.52         17.5697
   680.66         17.6127
   680.80         17.6464
   680.94         17.6663
   681.08         17.6704
   681.22         17.6587
   681.36         17.6333
   681.50         17.5961
   681.64         17.5490
   681.78         17.4942
   681.92         17.4350
   682.06         17.3763
   682.20         17.3235
   682.34         17.2808
   682.48         17.2500
   682.62         17.2302
   682.76         17.2180
   682.90         17.2082
   683.04         17.1953
   683.18         17.1755
   683.32         17.1475
   683.46         17.1130
   683.60         17.0762
   683.74         17.0428
   683.88         17.0183
   684.02         17.0076
   684.16         17.0135
   684.30         17.0361
   684.44         17.0727
   684.58         17.1187
   684.72         17.1674
   684.86         17.2104
   685.00         17.2395
   685.14         17.2488
   685.28         17.2351
   685.42         17.1954
   685.56         17.1242
   685.70         17.0133
   685.84         16.8546
   685.98         16.6437
   686.12         16.3806
   686.26         16.0716
   686.40         15.7287
   686.54         15.3692
   686.68         15.0134
   686.82         14.6830
   686.96         14.4003
   687.10         14.1862
   687.24         14.0559
   687.38         14.0153
   687.52         14.0603
   687.66         14.1788
   687.80         14.3521
   687.94         14.5566
   688.08         14.7651
   688.22         14.9533
   688.36         15.1065
   688.50         15.2196
   688.64         15.2956
   688.78         15.3420
   688.92         15.3686
   689.06         15.3855
   689.20         15.4008
   689.34         15.4209
   689.48         15.4511
   689.62         15.4938
   689.76         15.5475
   689.90         15.6079
   690.04         15.6705
   690.18         15.7318
   690.32         15.7888
   690.46         15.8390
   690.60         15.8809
   690.74         15.9150
   690.88         15.9444
   691.02         15.9726
   691.16         16.0009
   691.30         16.0295
   691.44         16.0582
   691.58         16.0864
   691.72         16.1137
   691.86         16.1400
   692.00         16.1658
   692.14         16.1912
   692.28         16.2151
   692.42         16.2366
   692.56         16.2562
   692.70         16.2744
   692.84         16.2909
   692.98         16.3055
   693.12         16.3194
   693.26         16.3346
   693.40         16.3527
   693.54         16.3736
   693.68         16.3954
   693.82         16.4162
   693.96         16.4362
   694.10         16.4562
   694.24         16.4765
   694.38         16.4966
   694.52         16.5151
   694.66         16.5301
   694.80         16.5396
   694.94         16.5431
   695.08         16.5409
   695.22         16.5333
   695.36         16.5219
   695.50         16.5100
   695.64         16.5029
   695.78         16.5057
   695.92         16.5220
   696.06         16.5524
   696.20         16.5951
   696.34         16.6467
   696.48         16.7020
   696.62         16.7532
   696.76         16.7921
   696.90         16.8128
   697.04         16.8131
   697.18         16.7939
   697.32         16.7588
   697.46         16.7133
   697.60         16.6640
   697.74         16.6164
   697.88         16.5753
   698.02         16.5444
   698.16         16.5248
   698.30         16.5158
   698.44         16.5158
   698.58         16.5226
   698.72         16.5330
   698.86         16.5429
   699.00         16.5492
   699.14         16.5496
   699.28         16.5415
   699.42         16.5235
   699.56         16.4953
   699.70         16.4580
   699.84         16.4122
   699.98         16.3581
   700.12         16.2964
   700.26         16.2288
   700.40         16.1566
   700.54         16.0810
   700.68         16.0056
   700.82         15.9366
   700.96         15.8810
   701.10         15.8424
   701.24         15.8199
   701.38         15.8100
   701.52         15.8091
   701.66         15.8143
   701.80         15.8227
   701.94         15.8323
   702.08         15.8437
   702.22         15.8592
   702.36         15.8801
   702.50         15.9044
   702.64         15.9292
   702.78         15.9528
   702.92         15.9746
   703.06         15.9954
   703.20         16.0171
   703.34         16.0424
   703.48         16.0723
   703.62         16.1051
   703.76         16.1383
   703.90         16.1706
   704.04         16.2007
   704.18         16.2264
   704.32         16.2455
   704.46         16.2569
   704.60         16.2596
   704.74         16.2530
   704.88         16.2367
   705.02         16.2103
   705.16         16.1752
   705.30         16.1354
   705.44         16.0951
   705.58         16.0576
   705.72         16.0242
   705.86         15.9954
   706.00         15.9726
   706.14         15.9572
   706.28         15.9499
   706.42         15.9498
   706.56         15.9549
   706.70         15.9633
   706.84         15.9736
   706.98         15.9855
   707.12         15.9982
   707.26         16.0095
   707.40         16.0173
   707.54         16.0201
   707.68         16.0173
   707.82         16.0083
   707.96         15.9922
   708.10         15.9683
   708.24         15.9377
   708.38         15.9032
   708.52         15.8695
   708.66         15.8407
   708.80         15.8199
   708.94         15.8096
   709.08         15.8115
   709.22         15.8269
   709.36         15.8569
   709.50         15.9013
   709.64         15.9583
   709.78         16.0235
   709.92         16.0905
   710.06         16.1516
   710.20         16.1995
   710.34         16.2278
   710.48         16.2337
   710.62         16.2183
   710.76         16.1846
   710.90         16.1364
   711.04         16.0778
   711.18         16.0130
   711.32         15.9481
   711.46         15.8903
   711.60         15.8447
   711.74         15.8135
   711.88         15.7977
   712.02         15.7972
   712.16         15.8098
   712.30         15.8323
   712.44         15.8630
   712.58         15.9029
   712.72         15.9562
   712.86         16.0268
   713.00         16.1158
   713.14         16.2210
   713.28         16.3362
   713.42         16.4515
   713.56         16.5554
   713.70         16.6378
   713.84         16.6923
   713.98         16.7155
   714.12         16.7054
   714.26         16.6621
   714.40         16.5901
   714.54         16.4989
   714.68         16.3996
   714.82         16.3042
   714.96         16.2238
   715.10         16.1659
   715.24         16.1321
   715.38         16.1184
   715.52         16.1164
   715.66         16.1173
   715.80         16.1134
   715.94         16.0982
   716.08         16.0674
   716.22         16.0184
   716.36         15.9504
   716.50         15.8648
   716.64         15.7630
   716.78         15.6479
   716.92         15.5248
   717.06         15.3993
   717.20         15.2754
   717.34         15.1540
   717.48         15.0317
   717.62         14.9026
   717.76         14.7615
   717.90         14.6097
   718.04         14.4529
   718.18         14.2977
   718.32         14.1497
   718.46         14.0147
   718.60         13.9000
   718.74         13.8117
   718.88         13.7539
   719.02         13.7283
   719.16         13.7338
   719.30         13.7681
   719.44         13.8281
   719.58         13.9077
   719.72         13.9975
   719.86         14.0891
   720.00         14.1797
   720.14         14.2713
   720.28         14.3707
   720.42         14.4860
   720.56         14.6212
   720.70         14.7738
   720.84         14.9389
   720.98         15.1144
   721.12         15.2988
   721.26         15.4861
   721.40         15.6649
   721.54         15.8234
   721.68         15.9530
   721.82         16.0496
   721.96         16.1138
   722.10         16.1481
   722.24         16.1531
   722.38         16.1283
   722.52         16.0747
   722.66         15.9955
   722.80         15.8953
   722.94         15.7791
   723.08         15.6505
   723.22         15.5125
   723.36         15.3700
   723.50         15.2300
   723.64         15.1004
   723.78         14.9880
   723.92         14.8975
   724.06         14.8320
   724.20         14.7919
   724.34         14.7729
   724.48         14.7671
   724.62         14.7691
   724.76         14.7752
   724.90         14.7821
   725.04         14.7891
   725.18         14.7988
   725.32         14.8136
   725.46         14.8326
   725.60         14.8517
   725.74         14.8666
   725.88         14.8778
   726.02         14.8894
   726.16         14.9062
   726.30         14.9300
   726.44         14.9575
   726.58         14.9813
   726.72         14.9919
   726.86         14.9822
   727.00         14.9519
   727.14         14.9076
   727.28         14.8571
   727.42         14.8043
   727.56         14.7510
   727.70         14.6986
   727.84         14.6474
   727.98         14.5964
   728.12         14.5446
   728.26         14.4909
   728.40         14.4345
   728.54         14.3745
   728.68         14.3116
   728.82         14.2486
   728.96         14.1898
   729.10         14.1405
   729.24         14.1057
   729.38         14.0890
   729.52         14.0930
   729.66         14.1194
   729.80         14.1662
   729.94         14.2268
   730.08         14.2926
   730.22         14.3546
   730.36         14.4046
   730.50         14.4375
   730.64         14.4514
   730.78         14.4478
   730.92         14.4304
   731.06         14.4046
   731.20         14.3770
   731.34         14.3543
   731.48         14.3399
   731.62         14.3330
   731.76         14.3310
   731.90         14.3321
   732.04         14.3361
   732.18         14.3425
   732.32         14.3517
   732.46         14.3635
   732.60         14.3777
   732.74         14.3951
   732.88         14.4178
   733.02         14.4485
   733.16         14.4878
   733.30         14.5349
   733.44         14.5870
   733.58         14.6398
   733.72         14.6896
   733.86         14.7343
   734.00         14.7723
   734.14         14.8013
   734.28         14.8183
   734.42         14.8213
   734.56         14.8104
   734.70         14.7862
   734.84         14.7498
   734.98         14.7030
   735.12         14.6491
   735.26         14.5918
   735.40         14.5341
   735.54         14.4771
   735.68         14.4207
   735.82         14.3656
   735.96         14.3132
   736.10         14.2650
   736.24         14.2237
   736.38         14.1930
   736.52         14.1763
   736.66         14.1747
   736.80         14.1861
   736.94         14.2072
   737.08         14.2340
   737.22         14.2623
   737.36         14.2876
   737.50         14.3059
   737.64         14.3134
   737.78         14.3067
   737.92         14.2835
   738.06         14.2427
   738.20         14.1857
   738.34         14.1172
   738.48         14.0442
   738.62         13.9753
   738.76         13.9173
   738.90         13.8750
   739.04         13.8514
   739.18         13.8482
   739.32         13.8651
   739.46         13.8997
   739.60         13.9482
   739.74         14.0061
   739.88         14.0683
   740.02         14.1290
   740.16         14.1808
   740.30         14.2165
   740.44         14.2313
   740.58         14.2245
   740.72         14.1991
   740.86         14.1605
   741.00         14.1147
   741.14         14.0662
   741.28         14.0176
   741.42         13.9710
   741.56         13.9295
   741.70         13.8966
   741.84         13.8746
   741.98         13.8626
   742.12         13.8576
   742.26         13.8567
   742.40         13.8589
   742.54         13.8633
   742.68         13.8679
   742.82         13.8708
   742.96         13.8708
   743.10         13.8679
   743.24         13.8633
   743.38         13.8589
   743.52         13.8567
   743.66         13.8576
   743.80         13.8626
   743.94         13.8746
   744.08         13.8966
   744.22         13.9295
