# File HD83140
# Wavelength [nm]    Normalized Amplitude
   349.70         10.1831
   349.84         10.0787
   349.98         9.9867
   350.12         9.9075
   350.26         9.8419
   350.40         9.7900
   350.54         9.7501
   350.68         9.7211
   350.82         9.7032
   350.96         9.6952
   351.10         9.6930
   351.24         9.6952
   351.38         9.7032
   351.52         9.7211
   351.66         9.7501
   351.80         9.7900
   351.94         9.8419
   352.08         9.9075
   352.22         9.9867
   352.36         10.0787
   352.50         10.1831
   352.64         10.2973
   352.78         10.4167
   352.92         10.5381
   353.06         10.6593
   353.20         10.7786
   353.34         10.8937
   353.48         11.0013
   353.62         11.0971
   353.76         11.1805
   353.90         11.2531
   354.04         11.3135
   354.18         11.3571
   354.32         11.3796
   354.46         11.3809
   354.60         11.3635
   354.74         11.3291
   354.88         11.2811
   355.02         11.2254
   355.16         11.1670
   355.30         11.1060
   355.44         11.0405
   355.58         10.9695
   355.72         10.8912
   355.86         10.8014
   356.00         10.6965
   356.14         10.5749
   356.28         10.4374
   356.42         10.2897
   356.56         10.1378
   356.70         9.9873
   356.84         9.8470
   356.98         9.7279
   357.12         9.6370
   357.26         9.5728
   357.40         9.5275
   357.54         9.4912
   357.68         9.4552
   357.82         9.4132
   357.96         9.3627
   358.10         9.3081
   358.24         9.2588
   358.38         9.2245
   358.52         9.2126
   358.66         9.2287
   358.80         9.2760
   358.94         9.3538
   359.08         9.4565
   359.22         9.5733
   359.36         9.6918
   359.50         9.8014
   359.64         9.8929
   359.78         9.9586
   359.92         9.9931
   360.06         9.9950
   360.20         9.9713
   360.34         9.9339
   360.48         9.8936
   360.62         9.8570
   360.76         9.8281
   360.90         9.8090
   361.04         9.8011
   361.18         9.8065
   361.32         9.8288
   361.46         9.8715
   361.60         9.9355
   361.74         10.0175
   361.88         10.1093
   362.02         10.1991
   362.16         10.2756
   362.30         10.3297
   362.44         10.3555
   362.58         10.3519
   362.72         10.3245
   362.86         10.2832
   363.00         10.2361
   363.14         10.1867
   363.28         10.1384
   363.42         10.0972
   363.56         10.0693
   363.70         10.0591
   363.84         10.0671
   363.98         10.0914
   364.12         10.1277
   364.26         10.1720
   364.40         10.2216
   364.54         10.2766
   364.68         10.3412
   364.82         10.4222
   364.96         10.5244
   365.10         10.6499
   365.24         10.7964
   365.38         10.9572
   365.52         11.1220
   365.66         11.2790
   365.80         11.4183
   365.94         11.5344
   366.08         11.6253
   366.22         11.6909
   366.36         11.7325
   366.50         11.7525
   366.64         11.7532
   366.78         11.7362
   366.92         11.7025
   367.06         11.6537
   367.20         11.5919
   367.34         11.5193
   367.48         11.4378
   367.62         11.3508
   367.76         11.2640
   367.90         11.1849
   368.04         11.1222
   368.18         11.0843
   368.32         11.0777
   368.46         11.1049
   368.60         11.1660
   368.74         11.2598
   368.88         11.3835
   369.02         11.5310
   369.16         11.6897
   369.30         11.8434
   369.44         11.9762
   369.58         12.0768
   369.72         12.1386
   369.86         12.1596
   370.00         12.1425
   370.14         12.0974
   370.28         12.0419
   370.42         11.9953
   370.56         11.9753
   370.70         11.9937
   370.84         12.0506
   370.98         12.1343
   371.12         12.2293
   371.26         12.3243
   371.40         12.4116
   371.54         12.4841
   371.68         12.5349
   371.82         12.5584
   371.96         12.5526
   372.10         12.5182
   372.24         12.4566
   372.38         12.3692
   372.52         12.2608
   372.66         12.1428
   372.80         12.0320
   372.94         11.9453
   373.08         11.8960
   373.22         11.8909
   373.36         11.9266
   373.50         11.9904
   373.64         12.0673
   373.78         12.1454
   373.92         12.2157
   374.06         12.2731
   374.20         12.3184
   374.34         12.3574
   374.48         12.3956
   374.62         12.4357
   374.76         12.4800
   374.90         12.5335
   375.04         12.6074
   375.18         12.7167
   375.32         12.8715
   375.46         13.0690
   375.60         13.2942
   375.74         13.5211
   375.88         13.7181
   376.02         13.8573
   376.16         13.9255
   376.30         13.9290
   376.44         13.8904
   376.58         13.8430
   376.72         13.8236
   376.86         13.8637
   377.00         13.9816
   377.14         14.1815
   377.28         14.4583
   377.42         14.8004
   377.56         15.1900
   377.70         15.6025
   377.84         16.0080
   377.98         16.3734
   378.12         16.6663
   378.26         16.8580
   378.40         16.9276
   378.54         16.8660
   378.68         16.6803
   378.82         16.3935
   378.96         16.0410
   379.10         15.6673
   379.24         15.3215
   379.38         15.0506
   379.52         14.8921
   379.66         14.8683
   379.80         14.9890
   379.94         15.2506
   380.08         15.6337
   380.22         16.1053
   380.36         16.6262
   380.50         17.1569
   380.64         17.6595
   380.78         18.0974
   380.92         18.4404
   381.06         18.6725
   381.20         18.7918
   381.34         18.8069
   381.48         18.7315
   381.62         18.5805
   381.76         18.3659
   381.90         18.0940
   382.04         17.7642
   382.18         17.3710
   382.32         16.9092
   382.46         16.3800
   382.60         15.7916
   382.74         15.1633
   382.88         14.5287
   383.02         13.9325
   383.16         13.4218
   383.30         13.0382
   383.44         12.8127
   383.58         12.7664
   383.72         12.9063
   383.86         13.2230
   384.00         13.6931
   384.14         14.2848
   384.28         14.9592
   384.42         15.6715
   384.56         16.3748
   384.70         17.0251
   384.84         17.5892
   384.98         18.0506
   385.12         18.4099
   385.26         18.6800
   385.40         18.8797
   385.54         19.0298
   385.68         19.1499
   385.82         19.2535
   385.96         19.3460
   386.10         19.4264
   386.24         19.4909
   386.38         19.5335
   386.52         19.5474
   386.66         19.5265
   386.80         19.4664
   386.94         19.3645
   387.08         19.2186
   387.22         19.0273
   387.36         18.7874
   387.50         18.4940
   387.64         18.1419
   387.78         17.7295
   387.92         17.2613
   388.06         16.7512
   388.20         16.2227
   388.34         15.7044
   388.48         15.2264
   388.62         14.8187
   388.76         14.5112
   388.90         14.3290
   389.04         14.2849
   389.18         14.3775
   389.32         14.5942
   389.46         14.9123
   389.60         15.3011
   389.74         15.7264
   389.88         16.1561
   390.02         16.5636
   390.16         16.9310
   390.30         17.2512
   390.44         17.5253
   390.58         17.7569
   390.72         17.9470
   390.86         18.0939
   391.00         18.1948
   391.14         18.2470
   391.28         18.2478
   391.42         18.1918
   391.56         18.0680
   391.70         17.8595
   391.84         17.5473
   391.98         17.1150
   392.12         16.5511
   392.26         15.8543
   392.40         15.0382
   392.54         14.1338
   392.68         13.1895
   392.82         12.2674
   392.96         11.4350
   393.10         10.7552
   393.24         10.2802
   393.38         10.0488
   393.52         10.0817
   393.66         10.3751
   393.80         10.9005
   393.94         11.6075
   394.08         12.4321
   394.22         13.3038
   394.36         14.1549
   394.50         14.9278
   394.64         15.5807
   394.78         16.0904
   394.92         16.4495
   395.06         16.6601
   395.20         16.7258
   395.34         16.6464
   395.48         16.4162
   395.62         16.0288
   395.76         15.4863
   395.90         14.8077
   396.04         14.0302
   396.18         13.2057
   396.32         12.3961
   396.46         11.6697
   396.60         11.0945
   396.74         10.7279
   396.88         10.6071
   397.02         10.7452
   397.16         11.1332
   397.30         11.7418
   397.44         12.5241
   397.58         13.4193
   397.72         14.3604
   397.86         15.2833
   398.00         16.1360
   398.14         16.8843
   398.28         17.5112
   398.42         18.0155
   398.56         18.4069
   398.70         18.7037
   398.84         18.9271
   398.98         19.0976
   399.12         19.2308
   399.26         19.3350
   399.40         19.4123
   399.54         19.4648
   399.68         19.4987
   399.82         19.5249
   399.96         19.5542
   400.10         19.5942
   400.24         19.6492
   400.38         19.7217
   400.52         19.8130
   400.66         19.9229
   400.80         20.0494
   400.94         20.1876
   401.08         20.3320
   401.22         20.4771
   401.36         20.6187
   401.50         20.7518
   401.64         20.8684
   401.78         20.9574
   401.92         21.0096
   402.06         21.0225
   402.20         21.0012
   402.34         20.9543
   402.48         20.8920
   402.62         20.8255
   402.76         20.7666
   402.90         20.7275
   403.04         20.7158
   403.18         20.7313
   403.32         20.7674
   403.46         20.8159
   403.60         20.8692
   403.74         20.9205
   403.88         20.9648
   404.02         20.9981
   404.16         21.0152
   404.30         21.0089
   404.44         20.9747
   404.58         20.9157
   404.72         20.8415
   404.86         20.7638
   405.00         20.6906
   405.14         20.6242
   405.28         20.5627
   405.42         20.5033
   405.56         20.4428
   405.70         20.3811
   405.84         20.3215
   405.98         20.2705
   406.12         20.2349
   406.26         20.2159
   406.40         20.2061
   406.54         20.1925
   406.68         20.1642
   406.82         20.1166
   406.96         20.0518
   407.10         19.9765
   407.24         19.8985
   407.38         19.8255
   407.52         19.7644
   407.66         19.7215
   407.80         19.7024
   407.94         19.7108
   408.08         19.7462
   408.22         19.8014
   408.36         19.8631
   408.50         19.9094
   408.64         19.9115
   408.78         19.8383
   408.92         19.6615
   409.06         19.3659
   409.20         18.9585
   409.34         18.4678
   409.48         17.9337
   409.62         17.3997
   409.76         16.9097
   409.90         16.5067
   410.04         16.2294
   410.18         16.1062
   410.32         16.1491
   410.46         16.3522
   410.60         16.6926
   410.74         17.1356
   410.88         17.6398
   411.02         18.1610
   411.16         18.6567
   411.30         19.0924
   411.44         19.4461
   411.58         19.7110
   411.72         19.8935
   411.86         20.0076
   412.00         20.0683
   412.14         20.0900
   412.28         20.0889
   412.42         20.0817
   412.56         20.0842
   412.70         20.1101
   412.84         20.1686
   412.98         20.2604
   413.12         20.3785
   413.26         20.5135
   413.40         20.6570
   413.54         20.8018
   413.68         20.9401
   413.82         21.0629
   413.96         21.1620
   414.10         21.2299
   414.24         21.2601
   414.38         21.2491
   414.52         21.1990
   414.66         21.1186
   414.80         21.0218
   414.94         20.9234
   415.08         20.8372
   415.22         20.7753
   415.36         20.7459
   415.50         20.7503
   415.64         20.7840
   415.78         20.8410
   415.92         20.9125
   416.06         20.9841
   416.20         21.0368
   416.34         21.0524
   416.48         21.0173
   416.62         20.9248
   416.76         20.7765
   416.90         20.5825
   417.04         20.3609
   417.18         20.1342
   417.32         19.9247
   417.46         19.7501
   417.60         19.6228
   417.74         19.5504
   417.88         19.5355
   418.02         19.5743
   418.16         19.6582
   418.30         19.7743
   418.44         19.9056
   418.58         20.0319
   418.72         20.1363
   418.86         20.2095
   419.00         20.2493
   419.14         20.2576
   419.28         20.2391
   419.42         20.2019
   419.56         20.1557
   419.70         20.1103
   419.84         20.0755
   419.98         20.0619
   420.12         20.0784
   420.26         20.1297
   420.40         20.2138
   420.54         20.3236
   420.68         20.4487
   420.82         20.5773
   420.96         20.6978
   421.10         20.7982
   421.24         20.8658
   421.38         20.8889
   421.52         20.8603
   421.66         20.7806
   421.80         20.6599
   421.94         20.5138
   422.08         20.3590
   422.22         20.2097
   422.36         20.0771
   422.50         19.9699
   422.64         19.8938
   422.78         19.8504
   422.92         19.8386
   423.06         19.8575
   423.20         19.9054
   423.34         19.9782
   423.48         20.0664
   423.62         20.1565
   423.76         20.2345
   423.90         20.2905
   424.04         20.3227
   424.18         20.3373
   424.32         20.3442
   424.46         20.3504
   424.60         20.3565
   424.74         20.3580
   424.88         20.3496
   425.02         20.3295
   425.16         20.3015
   425.30         20.2729
   425.44         20.2502
   425.58         20.2362
   425.72         20.2288
   425.86         20.2215
   426.00         20.2053
   426.14         20.1730
   426.28         20.1231
   426.42         20.0607
   426.56         19.9951
   426.70         19.9354
   426.84         19.8878
   426.98         19.8555
   427.12         19.8378
   427.26         19.8311
   427.40         19.8305
   427.54         19.8313
   427.68         19.8275
   427.82         19.8111
   427.96         19.7744
   428.10         19.7123
   428.24         19.6229
   428.38         19.5080
   428.52         19.3731
   428.66         19.2246
   428.80         19.0680
   428.94         18.9074
   429.08         18.7452
   429.22         18.5832
   429.36         18.4236
   429.50         18.2672
   429.64         18.1155
   429.78         17.9728
   429.92         17.8468
   430.06         17.7457
   430.20         17.6777
   430.34         17.6502
   430.48         17.6717
   430.62         17.7486
   430.76         17.8800
   430.90         18.0552
   431.04         18.2572
   431.18         18.4654
   431.32         18.6574
   431.46         18.8150
   431.60         18.9296
   431.74         19.0016
   431.88         19.0365
   432.02         19.0389
   432.16         19.0114
   432.30         18.9576
   432.44         18.8779
   432.58         18.7655
   432.72         18.6055
   432.86         18.3811
   433.00         18.0821
   433.14         17.7106
   433.28         17.2820
   433.42         16.8234
   433.56         16.3707
   433.70         15.9627
   433.84         15.6351
   433.98         15.4171
   434.12         15.3302
   434.26         15.3869
   434.40         15.5868
   434.54         15.9143
   434.68         16.3427
   434.82         16.8383
   434.96         17.3651
   435.10         17.8884
   435.24         18.3801
   435.38         18.8239
   435.52         19.2149
   435.66         19.5566
   435.80         19.8560
   435.94         20.1185
   436.08         20.3460
   436.22         20.5339
   436.36         20.6747
   436.50         20.7653
   436.64         20.8113
   436.78         20.8252
   436.92         20.8195
   437.06         20.8011
   437.20         20.7698
   437.34         20.7222
   437.48         20.6566
   437.62         20.5742
   437.76         20.4783
   437.90         20.3733
   438.04         20.2640
   438.18         20.1545
   438.32         20.0491
   438.46         19.9542
   438.60         19.8765
   438.74         19.8191
   438.88         19.7822
   439.02         19.7655
   439.16         19.7694
   439.30         19.7905
   439.44         19.8201
   439.58         19.8475
   439.72         19.8657
   439.86         19.8754
   440.00         19.8837
   440.14         19.9004
   440.28         19.9312
   440.42         19.9756
   440.56         20.0301
   440.70         20.0921
   440.84         20.1615
   440.98         20.2393
   441.12         20.3251
   441.26         20.4162
   441.40         20.5084
   441.54         20.5974
   441.68         20.6796
   441.82         20.7511
   441.96         20.8058
   442.10         20.8365
   442.24         20.8378
   442.38         20.8082
   442.52         20.7510
   442.66         20.6731
   442.80         20.5835
   442.94         20.4896
   443.08         20.3979
   443.22         20.3154
   443.36         20.2487
   443.50         20.2009
   443.64         20.1710
   443.78         20.1555
   443.92         20.1513
   444.06         20.1562
   444.20         20.1649
   444.34         20.1696
   444.48         20.1623
   444.62         20.1376
   444.76         20.0942
   444.90         20.0348
   445.04         19.9645
   445.18         19.8894
   445.32         19.8141
   445.46         19.7405
   445.60         19.6682
   445.74         19.5995
   445.88         19.5420
   446.02         19.5052
   446.16         19.4972
   446.30         19.5234
   446.44         19.5861
   446.58         19.6828
   446.72         19.8037
   446.86         19.9328
   447.00         20.0555
   447.14         20.1630
   447.28         20.2511
   447.42         20.3170
   447.56         20.3592
   447.70         20.3769
   447.84         20.3698
   447.98         20.3404
   448.12         20.2936
   448.26         20.2361
   448.40         20.1779
   448.54         20.1288
   448.68         20.0960
   448.82         20.0830
   448.96         20.0902
   449.10         20.1163
   449.24         20.1592
   449.38         20.2172
   449.52         20.2890
   449.66         20.3743
   449.80         20.4721
   449.94         20.5791
   450.08         20.6882
   450.22         20.7900
   450.36         20.8753
   450.50         20.9375
   450.64         20.9734
   450.78         20.9814
   450.92         20.9601
   451.06         20.9090
   451.20         20.8302
   451.34         20.7273
   451.48         20.6043
   451.62         20.4649
   451.76         20.3139
   451.90         20.1566
   452.04         19.9971
   452.18         19.8385
   452.32         19.6869
   452.46         19.5518
   452.60         19.4421
   452.74         19.3642
   452.88         19.3229
   453.02         19.3202
   453.16         19.3541
   453.30         19.4189
   453.44         19.5046
   453.58         19.5965
   453.72         19.6790
   453.86         19.7391
   454.00         19.7679
   454.14         19.7592
   454.28         19.7114
   454.42         19.6299
   454.56         19.5271
   454.70         19.4194
   454.84         19.3255
   454.98         19.2630
   455.12         19.2423
   455.26         19.2654
   455.40         19.3305
   455.54         19.4325
   455.68         19.5628
   455.82         19.7104
   455.96         19.8640
   456.10         20.0143
   456.24         20.1557
   456.38         20.2866
   456.52         20.4078
   456.66         20.5173
   456.80         20.6087
   456.94         20.6755
   457.08         20.7141
   457.22         20.7231
   457.36         20.7013
   457.50         20.6476
   457.64         20.5631
   457.78         20.4511
   457.92         20.3192
   458.06         20.1788
   458.20         20.0417
   458.34         19.9177
   458.48         19.8145
   458.62         19.7380
   458.76         19.6920
   458.90         19.6763
   459.04         19.6858
   459.18         19.7121
   459.32         19.7462
   459.46         19.7831
   459.60         19.8223
   459.74         19.8654
   459.88         19.9132
   460.02         19.9648
   460.16         20.0191
   460.30         20.0735
   460.44         20.1240
   460.58         20.1677
   460.72         20.2043
   460.86         20.2351
   461.00         20.2614
   461.14         20.2834
   461.28         20.3006
   461.42         20.3129
   461.56         20.3198
   461.70         20.3201
   461.84         20.3134
   461.98         20.3012
   462.12         20.2842
   462.26         20.2609
   462.40         20.2298
   462.54         20.1921
   462.68         20.1510
   462.82         20.1104
   462.96         20.0736
   463.10         20.0429
   463.24         20.0194
   463.38         20.0028
   463.52         19.9918
   463.66         19.9841
   463.80         19.9770
   463.94         19.9697
   464.08         19.9631
   464.22         19.9574
   464.36         19.9516
   464.50         19.9452
   464.64         19.9393
   464.78         19.9361
   464.92         19.9386
   465.06         19.9496
   465.20         19.9688
   465.34         19.9920
   465.48         20.0120
   465.62         20.0208
   465.76         20.0119
   465.90         19.9821
   466.04         19.9339
   466.18         19.8742
   466.32         19.8112
   466.46         19.7524
   466.60         19.7036
   466.74         19.6687
   466.88         19.6500
   467.02         19.6496
   467.16         19.6708
   467.30         19.7152
   467.44         19.7808
   467.58         19.8607
   467.72         19.9449
   467.86         20.0235
   468.00         20.0878
   468.14         20.1312
   468.28         20.1523
   468.42         20.1540
   468.56         20.1395
   468.70         20.1101
   468.84         20.0660
   468.98         20.0054
   469.12         19.9269
   469.26         19.8316
   469.40         19.7228
   469.54         19.6057
   469.68         19.4870
   469.82         19.3750
   469.96         19.2773
   470.10         19.1993
   470.24         19.1441
   470.38         19.1141
   470.52         19.1122
   470.66         19.1397
   470.80         19.1966
   470.94         19.2804
   471.08         19.3832
   471.22         19.4931
   471.36         19.5987
   471.50         19.6906
   471.64         19.7616
   471.78         19.8072
   471.92         19.8236
   472.06         19.8089
   472.20         19.7645
   472.34         19.6950
   472.48         19.6069
   472.62         19.5073
   472.76         19.4033
   472.90         19.3033
   473.04         19.2177
   473.18         19.1550
   473.32         19.1194
   473.46         19.1127
   473.60         19.1362
   473.74         19.1893
   473.88         19.2695
   474.02         19.3709
   474.16         19.4847
   474.30         19.6002
   474.44         19.7060
   474.58         19.7916
   474.72         19.8521
   474.86         19.8863
   475.00         19.8925
   475.14         19.8693
   475.28         19.8169
   475.42         19.7378
   475.56         19.6393
   475.70         19.5309
   475.84         19.4216
   475.98         19.3185
   476.12         19.2283
   476.26         19.1574
   476.40         19.1099
   476.54         19.0875
   476.68         19.0900
   476.82         19.1166
   476.96         19.1650
   477.10         19.2312
   477.24         19.3085
   477.38         19.3880
   477.52         19.4597
   477.66         19.5138
   477.80         19.5426
   477.94         19.5426
   478.08         19.5160
   478.22         19.4701
   478.36         19.4122
   478.50         19.3481
   478.64         19.2831
   478.78         19.2242
   478.92         19.1779
   479.06         19.1476
   479.20         19.1331
   479.34         19.1316
   479.48         19.1387
   479.62         19.1492
   479.76         19.1570
   479.90         19.1572
   480.04         19.1479
   480.18         19.1298
   480.32         19.1053
   480.46         19.0782
   480.60         19.0540
   480.74         19.0377
   480.88         19.0303
   481.02         19.0277
   481.16         19.0255
   481.30         19.0200
   481.44         19.0090
   481.58         18.9899
   481.72         18.9615
   481.86         18.9245
   482.00         18.8815
   482.14         18.8368
   482.28         18.7941
   482.42         18.7565
   482.56         18.7260
   482.70         18.7034
   482.84         18.6881
   482.98         18.6788
   483.12         18.6739
   483.26         18.6704
   483.40         18.6628
   483.54         18.6456
   483.68         18.6147
   483.82         18.5674
   483.96         18.5010
   484.10         18.4117
   484.24         18.2938
   484.38         18.1405
   484.52         17.9440
   484.66         17.6945
   484.80         17.3804
   484.94         16.9943
   485.08         16.5417
   485.22         16.0419
   485.36         15.5257
   485.50         15.0300
   485.64         14.5920
   485.78         14.2430
   485.92         14.0048
   486.06         13.8888
   486.20         13.8983
   486.34         14.0276
   486.48         14.2613
   486.62         14.5758
   486.76         14.9419
   486.90         15.3283
   487.04         15.7069
   487.18         16.0540
   487.32         16.3519
   487.46         16.5938
   487.60         16.7854
   487.74         16.9395
   487.88         17.0682
   488.02         17.1801
   488.16         17.2818
   488.30         17.3787
   488.44         17.4757
   488.58         17.5786
   488.72         17.6916
   488.86         17.8146
   489.00         17.9451
   489.14         18.0802
   489.28         18.2169
   489.42         18.3535
   489.56         18.4870
   489.70         18.6114
   489.84         18.7177
   489.98         18.7982
   490.12         18.8495
   490.26         18.8718
   490.40         18.8679
   490.54         18.8406
   490.68         18.7923
   490.82         18.7251
   490.96         18.6398
   491.10         18.5360
   491.24         18.4151
   491.38         18.2814
   491.52         18.1448
   491.66         18.0205
   491.80         17.9234
   491.94         17.8630
   492.08         17.8422
   492.22         17.8563
   492.36         17.8964
   492.50         17.9523
   492.64         18.0146
   492.78         18.0746
   492.92         18.1251
   493.06         18.1617
   493.20         18.1820
   493.34         18.1876
   493.48         18.1851
   493.62         18.1832
   493.76         18.1903
   493.90         18.2150
   494.04         18.2644
   494.18         18.3400
   494.32         18.4357
   494.46         18.5380
   494.60         18.6288
   494.74         18.6922
   494.88         18.7200
   495.02         18.7109
   495.16         18.6692
   495.30         18.6049
   495.44         18.5316
   495.58         18.4623
   495.72         18.4048
   495.86         18.3616
   496.00         18.3340
   496.14         18.3222
   496.28         18.3250
   496.42         18.3400
   496.56         18.3634
   496.70         18.3886
   496.84         18.4060
   496.98         18.4060
   497.12         18.3811
   497.26         18.3276
   497.40         18.2500
   497.54         18.1580
   497.68         18.0607
   497.82         17.9657
   497.96         17.8795
   498.10         17.8064
   498.24         17.7490
   498.38         17.7103
   498.52         17.6941
   498.66         17.7031
   498.80         17.7364
   498.94         17.7880
   499.08         17.8485
   499.22         17.9067
   499.36         17.9508
   499.50         17.9697
   499.64         17.9563
   499.78         17.9099
   499.92         17.8362
   500.06         17.7440
   500.20         17.6409
   500.34         17.5310
   500.48         17.4178
   500.62         17.3037
   500.76         17.1908
   500.90         17.0824
   501.04         16.9831
   501.18         16.8966
   501.32         16.8267
   501.46         16.7773
   501.60         16.7510
   501.74         16.7486
   501.88         16.7685
   502.02         16.8075
   502.16         16.8634
   502.30         16.9353
   502.44         17.0201
   502.58         17.1109
   502.72         17.1990
   502.86         17.2749
   503.00         17.3302
   503.14         17.3612
   503.28         17.3701
   503.42         17.3627
   503.56         17.3465
   503.70         17.3286
   503.84         17.3138
   503.98         17.3048
   504.12         17.3030
   504.26         17.3076
   504.40         17.3180
   504.54         17.3351
   504.68         17.3601
   504.82         17.3942
   504.96         17.4374
   505.10         17.4882
   505.24         17.5441
   505.38         17.6024
   505.52         17.6590
   505.66         17.7116
   505.80         17.7604
   505.94         17.8054
   506.08         17.8434
   506.22         17.8694
   506.36         17.8793
   506.50         17.8715
   506.64         17.8472
   506.78         17.8086
   506.92         17.7575
   507.06         17.6972
   507.20         17.6319
   507.34         17.5658
   507.48         17.5038
   507.62         17.4504
   507.76         17.4086
   507.90         17.3816
   508.04         17.3728
   508.18         17.3842
   508.32         17.4162
   508.46         17.4655
   508.60         17.5239
   508.74         17.5802
   508.88         17.6254
   509.02         17.6548
   509.16         17.6665
   509.30         17.6601
   509.44         17.6367
   509.58         17.5992
   509.72         17.5525
   509.86         17.5013
   510.00         17.4508
   510.14         17.4067
   510.28         17.3739
   510.42         17.3557
   510.56         17.3546
   510.70         17.3717
   510.84         17.4055
   510.98         17.4509
   511.12         17.5016
   511.26         17.5513
   511.40         17.5949
   511.54         17.6276
   511.68         17.6444
   511.82         17.6413
   511.96         17.6175
   512.10         17.5751
   512.24         17.5193
   512.38         17.4561
   512.52         17.3923
   512.66         17.3344
   512.80         17.2857
   512.94         17.2466
   513.08         17.2167
   513.22         17.1961
   513.36         17.1836
   513.50         17.1766
   513.64         17.1713
   513.78         17.1660
   513.92         17.1605
   514.06         17.1548
   514.20         17.1487
   514.34         17.1418
   514.48         17.1357
   514.62         17.1326
   514.76         17.1324
   514.90         17.1322
   515.04         17.1277
   515.18         17.1150
   515.32         17.0910
   515.46         17.0514
   515.60         16.9912
   515.74         16.9067
   515.88         16.7967
   516.02         16.6621
   516.16         16.5082
   516.30         16.3462
   516.44         16.1922
   516.58         16.0631
   516.72         15.9722
   516.86         15.9276
   517.00         15.9313
   517.14         15.9783
   517.28         16.0581
   517.42         16.1568
   517.56         16.2591
   517.70         16.3508
   517.84         16.4200
   517.98         16.4576
   518.12         16.4595
   518.26         16.4266
   518.40         16.3664
   518.54         16.2906
   518.68         16.2132
   518.82         16.1483
   518.96         16.1070
   519.10         16.0933
   519.24         16.1034
   519.38         16.1284
   519.52         16.1580
   519.66         16.1844
   519.80         16.2053
   519.94         16.2237
   520.08         16.2434
   520.22         16.2659
   520.36         16.2902
   520.50         16.3152
   520.64         16.3425
   520.78         16.3747
   520.92         16.4131
   521.06         16.4577
   521.20         16.5055
   521.34         16.5505
   521.48         16.5840
   521.62         16.5974
   521.76         16.5852
   521.90         16.5462
   522.04         16.4837
   522.18         16.4047
   522.32         16.3181
   522.46         16.2331
   522.60         16.1587
   522.74         16.1023
   522.88         16.0691
   523.02         16.0624
   523.16         16.0858
   523.30         16.1398
   523.44         16.2191
   523.58         16.3133
   523.72         16.4100
   523.86         16.4981
   524.00         16.5693
   524.14         16.6189
   524.28         16.6460
   524.42         16.6519
   524.56         16.6404
   524.70         16.6165
   524.84         16.5840
   524.98         16.5439
   525.12         16.4955
   525.26         16.4365
   525.40         16.3633
   525.54         16.2723
   525.68         16.1621
   525.82         16.0348
   525.96         15.8943
   526.10         15.7456
   526.24         15.5949
   526.38         15.4512
   526.52         15.3258
   526.66         15.2302
   526.80         15.1729
   526.94         15.1579
   527.08         15.1851
   527.22         15.2505
   527.36         15.3458
   527.50         15.4596
   527.64         15.5810
   527.78         15.7029
   527.92         15.8215
   528.06         15.9351
   528.20         16.0426
   528.34         16.1428
   528.48         16.2333
   528.62         16.3108
   528.76         16.3722
   528.90         16.4162
   529.04         16.4444
   529.18         16.4591
   529.32         16.4621
   529.46         16.4544
   529.60         16.4394
   529.74         16.4233
   529.88         16.4124
   530.02         16.4107
   530.16         16.4190
   530.30         16.4350
   530.44         16.4545
   530.58         16.4720
   530.72         16.4818
   530.86         16.4794
   531.00         16.4629
   531.14         16.4314
   531.28         16.3847
   531.42         16.3231
   531.56         16.2473
   531.70         16.1593
   531.84         16.0630
   531.98         15.9651
   532.12         15.8727
   532.26         15.7918
   532.40         15.7272
   532.54         15.6798
   532.68         15.6470
   532.82         15.6248
   532.96         15.6109
   533.10         15.6045
   533.24         15.6052
   533.38         15.6127
   533.52         15.6256
   533.66         15.6407
   533.80         15.6548
   533.94         15.6664
   534.08         15.6771
   534.22         15.6916
   534.36         15.7173
   534.50         15.7607
   534.64         15.8228
   534.78         15.8993
   534.92         15.9843
   535.06         16.0711
   535.20         16.1511
   535.34         16.2163
   535.48         16.2612
   535.62         16.2828
   535.76         16.2790
   535.90         16.2493
   536.04         16.1965
   536.18         16.1260
   536.32         16.0464
   536.46         15.9685
   536.60         15.9025
   536.74         15.8560
   536.88         15.8339
   537.02         15.8369
   537.16         15.8618
   537.30         15.9033
   537.44         15.9569
   537.58         16.0178
   537.72         16.0786
   537.86         16.1311
   538.00         16.1681
   538.14         16.1860
   538.28         16.1841
   538.42         16.1630
   538.56         16.1243
   538.70         16.0706
   538.84         16.0064
   538.98         15.9363
   539.12         15.8633
   539.26         15.7890
   539.40         15.7159
   539.54         15.6474
   539.68         15.5870
   539.82         15.5370
   539.96         15.4992
   540.10         15.4748
   540.24         15.4633
   540.38         15.4624
   540.52         15.4703
   540.66         15.4873
   540.80         15.5142
   540.94         15.5506
   541.08         15.5937
   541.22         15.6402
   541.36         15.6885
   541.50         15.7381
   541.64         15.7865
   541.78         15.8297
   541.92         15.8653
   542.06         15.8919
   542.20         15.9080
   542.34         15.9121
   542.48         15.9046
   542.62         15.8881
   542.76         15.8669
   542.90         15.8456
   543.04         15.8291
   543.18         15.8219
   543.32         15.8250
   543.46         15.8361
   543.60         15.8519
   543.74         15.8695
   543.88         15.8883
   544.02         15.9094
   544.16         15.9315
   544.30         15.9495
   544.44         15.9587
   544.58         15.9586
   544.72         15.9514
   544.86         15.9404
   545.00         15.9294
   545.14         15.9214
   545.28         15.9175
   545.42         15.9163
   545.56         15.9149
   545.70         15.9101
   545.84         15.9004
   545.98         15.8852
   546.12         15.8656
   546.26         15.8429
   546.40         15.8166
   546.54         15.7844
   546.68         15.7434
   546.82         15.6920
   546.96         15.6322
   547.10         15.5711
   547.24         15.5171
   547.38         15.4752
   547.52         15.4458
   547.66         15.4276
   547.80         15.4194
   547.94         15.4201
   548.08         15.4288
   548.22         15.4448
   548.36         15.4677
   548.50         15.4964
   548.64         15.5278
   548.78         15.5579
   548.92         15.5833
   549.06         15.6032
   549.20         15.6189
   549.34         15.6324
   549.48         15.6438
   549.62         15.6514
   549.76         15.6525
   549.90         15.6444
   550.04         15.6238
   550.18         15.5903
   550.32         15.5475
   550.46         15.5007
   550.60         15.4550
   550.74         15.4162
   550.88         15.3902
   551.02         15.3816
   551.16         15.3908
   551.30         15.4133
   551.44         15.4420
   551.58         15.4691
   551.72         15.4880
   551.86         15.4938
   552.00         15.4842
   552.14         15.4592
   552.28         15.4210
   552.42         15.3738
   552.56         15.3236
   552.70         15.2773
   552.84         15.2419
   552.98         15.2221
   553.12         15.2194
   553.26         15.2325
   553.40         15.2589
   553.54         15.2950
   553.68         15.3363
   553.82         15.3789
   553.96         15.4202
   554.10         15.4591
   554.24         15.4953
   554.38         15.5293
   554.52         15.5616
   554.66         15.5902
   554.80         15.6121
   554.94         15.6250
   555.08         15.6279
   555.22         15.6207
   555.36         15.6037
   555.50         15.5773
   555.64         15.5423
   555.78         15.5001
   555.92         15.4538
   556.06         15.4079
   556.20         15.3661
   556.34         15.3302
   556.48         15.3006
   556.62         15.2774
   556.76         15.2612
   556.90         15.2527
   557.04         15.2517
   557.18         15.2568
   557.32         15.2655
   557.46         15.2744
   557.60         15.2792
   557.74         15.2753
   557.88         15.2594
   558.02         15.2304
   558.16         15.1889
   558.30         15.1361
   558.44         15.0750
   558.58         15.0098
   558.72         14.9443
   558.86         14.8809
   559.00         14.8215
   559.14         14.7678
   559.28         14.7210
   559.42         14.6824
   559.56         14.6534
   559.70         14.6357
   559.84         14.6305
   559.98         14.6392
   560.12         14.6624
   560.26         14.6988
   560.40         14.7445
   560.54         14.7940
   560.68         14.8415
   560.82         14.8818
   560.96         14.9113
   561.10         14.9278
   561.24         14.9298
   561.38         14.9169
   561.52         14.8902
   561.66         14.8533
   561.80         14.8120
   561.94         14.7739
   562.08         14.7463
   562.22         14.7335
   562.36         14.7365
   562.50         14.7534
   562.64         14.7815
   562.78         14.8165
   562.92         14.8524
   563.06         14.8841
   563.20         14.9093
   563.34         14.9273
   563.48         14.9382
   563.62         14.9432
   563.76         14.9425
   563.90         14.9356
   564.04         14.9228
   564.18         14.9057
   564.32         14.8860
   564.46         14.8648
   564.60         14.8418
   564.74         14.8148
   564.88         14.7821
   565.02         14.7426
   565.16         14.6969
   565.30         14.6463
   565.44         14.5915
   565.58         14.5339
   565.72         14.4768
   565.86         14.4244
   566.00         14.3817
   566.14         14.3538
   566.28         14.3447
   566.42         14.3543
   566.56         14.3810
   566.70         14.4225
   566.84         14.4762
   566.98         14.5368
   567.12         14.5973
   567.26         14.6504
   567.40         14.6898
   567.54         14.7123
   567.68         14.7163
   567.82         14.7024
   567.96         14.6723
   568.10         14.6301
   568.24         14.5814
   568.38         14.5325
   568.52         14.4889
   568.66         14.4550
   568.80         14.4340
   568.94         14.4265
   569.08         14.4304
   569.22         14.4435
   569.36         14.4638
   569.50         14.4883
   569.64         14.5121
   569.78         14.5306
   569.92         14.5403
   570.06         14.5400
   570.20         14.5300
   570.34         14.5117
   570.48         14.4864
   570.62         14.4558
   570.76         14.4215
   570.90         14.3855
   571.04         14.3506
   571.18         14.3215
   571.32         14.3017
   571.46         14.2937
   571.60         14.2987
   571.74         14.3171
   571.88         14.3481
   572.02         14.3891
   572.16         14.4353
   572.30         14.4819
   572.44         14.5247
   572.58         14.5602
   572.72         14.5867
   572.86         14.6040
   573.00         14.6121
   573.14         14.6115
   573.28         14.6027
   573.42         14.5865
   573.56         14.5643
   573.70         14.5384
   573.84         14.5115
   573.98         14.4851
   574.12         14.4604
   574.26         14.4386
   574.40         14.4204
   574.54         14.4061
   574.68         14.3956
   574.82         14.3883
   574.96         14.3831
   575.10         14.3775
   575.24         14.3688
   575.38         14.3562
   575.52         14.3399
   575.66         14.3206
   575.80         14.2999
   575.94         14.2803
   576.08         14.2636
   576.22         14.2512
   576.36         14.2441
   576.50         14.2428
   576.64         14.2467
   576.78         14.2544
   576.92         14.2632
   577.06         14.2701
   577.20         14.2721
   577.34         14.2669
   577.48         14.2533
   577.62         14.2317
   577.76         14.2033
   577.90         14.1711
   578.04         14.1393
   578.18         14.1123
   578.32         14.0940
   578.46         14.0863
   578.60         14.0892
   578.74         14.1016
   578.88         14.1226
   579.02         14.1520
   579.16         14.1888
   579.30         14.2304
   579.44         14.2727
   579.58         14.3116
   579.72         14.3451
   579.86         14.3729
   580.00         14.3944
   580.14         14.4097
   580.28         14.4196
   580.42         14.4249
   580.56         14.4262
   580.70         14.4241
   580.84         14.4204
   580.98         14.4173
   581.12         14.4175
   581.26         14.4232
   581.40         14.4357
   581.54         14.4552
   581.68         14.4808
   581.82         14.5113
   581.96         14.5456
   582.10         14.5816
   582.24         14.6170
   582.38         14.6501
   582.52         14.6784
   582.66         14.6995
   582.80         14.7124
   582.94         14.7171
   583.08         14.7142
   583.22         14.7051
   583.36         14.6914
   583.50         14.6750
   583.64         14.6571
   583.78         14.6380
   583.92         14.6161
   584.06         14.5906
   584.20         14.5613
   584.34         14.5281
   584.48         14.4906
   584.62         14.4489
   584.76         14.4038
   584.90         14.3577
   585.04         14.3142
   585.18         14.2757
   585.32         14.2442
   585.46         14.2213
   585.60         14.2080
   585.74         14.2054
   585.88         14.2141
   586.02         14.2327
   586.16         14.2587
   586.30         14.2891
   586.44         14.3202
   586.58         14.3487
   586.72         14.3722
   586.86         14.3890
   587.00         14.3972
   587.14         14.3955
   587.28         14.3846
   587.42         14.3647
   587.56         14.3341
   587.70         14.2894
   587.84         14.2273
   587.98         14.1475
   588.12         14.0527
   588.26         13.9471
   588.40         13.8344
   588.54         13.7189
   588.68         13.6057
   588.82         13.5025
   588.96         13.4187
   589.10         13.3622
   589.24         13.3378
   589.38         13.3467
   589.52         13.3862
   589.66         13.4502
   589.80         13.5310
   589.94         13.6197
   590.08         13.7072
   590.22         13.7851
   590.36         13.8479
   590.50         13.8933
   590.64         13.9208
   590.78         13.9316
   590.92         13.9280
   591.06         13.9142
   591.20         13.8964
   591.34         13.8796
   591.48         13.8664
   591.62         13.8572
   591.76         13.8511
   591.90         13.8456
   592.04         13.8379
   592.18         13.8257
   592.32         13.8087
   592.46         13.7892
   592.60         13.7701
   592.74         13.7533
   592.88         13.7395
   593.02         13.7280
   593.16         13.7175
   593.30         13.7077
   593.44         13.6986
   593.58         13.6897
   593.72         13.6795
   593.86         13.6656
   594.00         13.6461
   594.14         13.6207
   594.28         13.5915
   594.42         13.5606
   594.56         13.5297
   594.70         13.5014
   594.84         13.4799
   594.98         13.4696
   595.12         13.4730
   595.26         13.4896
   595.40         13.5163
   595.54         13.5496
   595.68         13.5857
   595.82         13.6218
   595.96         13.6568
   596.10         13.6887
   596.24         13.7141
   596.38         13.7299
   596.52         13.7343
   596.66         13.7270
   596.80         13.7100
   596.94         13.6861
   597.08         13.6585
   597.22         13.6292
   597.36         13.5998
   597.50         13.5711
   597.64         13.5431
   597.78         13.5143
   597.92         13.4845
   598.06         13.4551
   598.20         13.4284
   598.34         13.4061
   598.48         13.3900
   598.62         13.3808
   598.76         13.3779
   598.90         13.3808
   599.04         13.3902
   599.18         13.4069
   599.32         13.4304
   599.46         13.4574
   599.60         13.4830
   599.74         13.5019
   599.88         13.5100
   600.02         13.5059
   600.16         13.4905
   600.30         13.4654
   600.44         13.4334
   600.58         13.3981
   600.72         13.3614
   600.86         13.3228
   601.00         13.2825
   601.14         13.2427
   601.28         13.2059
   601.42         13.1741
   601.56         13.1485
   601.70         13.1288
   601.84         13.1135
   601.98         13.1010
   602.12         13.0894
   602.26         13.0787
   602.40         13.0705
   602.54         13.0651
   602.68         13.0613
   602.82         13.0572
   602.96         13.0509
   603.10         13.0421
   603.24         13.0311
   603.38         13.0189
   603.52         13.0073
   603.66         13.0000
   603.80         13.0003
   603.94         13.0091
   604.08         13.0250
   604.22         13.0453
   604.36         13.0663
   604.50         13.0850
   604.64         13.0993
   604.78         13.1079
   604.92         13.1119
   605.06         13.1125
   605.20         13.1099
   605.34         13.1044
   605.48         13.0966
   605.62         13.0883
   605.76         13.0814
   605.90         13.0771
   606.04         13.0752
   606.18         13.0751
   606.32         13.0756
   606.46         13.0748
   606.60         13.0711
   606.74         13.0636
   606.88         13.0526
   607.02         13.0397
   607.16         13.0261
   607.30         13.0137
   607.44         13.0040
   607.58         12.9970
   607.72         12.9913
   607.86         12.9855
   608.00         12.9789
   608.14         12.9715
   608.28         12.9634
   608.42         12.9546
   608.56         12.9450
   608.70         12.9342
   608.84         12.9214
   608.98         12.9058
   609.12         12.8865
   609.26         12.8639
   609.40         12.8391
   609.54         12.8132
   609.68         12.7871
   609.82         12.7628
   609.96         12.7426
   610.10         12.7283
   610.24         12.7208
   610.38         12.7200
   610.52         12.7251
   610.66         12.7349
   610.80         12.7478
   610.94         12.7622
   611.08         12.7768
   611.22         12.7914
   611.36         12.8055
   611.50         12.8187
   611.64         12.8312
   611.78         12.8436
   611.92         12.8558
   612.06         12.8668
   612.20         12.8744
   612.34         12.8757
   612.48         12.8675
   612.62         12.8475
   612.76         12.8143
   612.90         12.7674
   613.04         12.7084
   613.18         12.6415
   613.32         12.5728
   613.46         12.5086
   613.60         12.4553
   613.74         12.4178
   613.88         12.3997
   614.02         12.4012
   614.16         12.4193
   614.30         12.4495
   614.44         12.4872
   614.58         12.5276
   614.72         12.5650
   614.86         12.5930
   615.00         12.6063
   615.14         12.6028
   615.28         12.5838
   615.42         12.5538
   615.56         12.5180
   615.70         12.4815
   615.84         12.4485
   615.98         12.4228
   616.12         12.4078
   616.26         12.4044
   616.40         12.4116
   616.54         12.4272
   616.68         12.4485
   616.82         12.4736
   616.96         12.5011
   617.10         12.5291
   617.24         12.5553
   617.38         12.5777
   617.52         12.5960
   617.66         12.6117
   617.80         12.6271
   617.94         12.6439
   618.08         12.6622
   618.22         12.6805
   618.36         12.6972
   618.50         12.7118
   618.64         12.7243
   618.78         12.7338
   618.92         12.7387
   619.06         12.7391
   619.20         12.7368
   619.34         12.7348
   619.48         12.7356
   619.62         12.7408
   619.76         12.7512
   619.90         12.7672
   620.04         12.7877
   620.18         12.8093
   620.32         12.8270
   620.46         12.8364
   620.60         12.8338
   620.74         12.8172
   620.88         12.7864
   621.02         12.7430
   621.16         12.6904
   621.30         12.6327
   621.44         12.5753
   621.58         12.5242
   621.72         12.4846
   621.86         12.4593
   622.00         12.4481
   622.14         12.4493
   622.28         12.4595
   622.42         12.4752
   622.56         12.4926
   622.70         12.5078
   622.84         12.5178
   622.98         12.5210
   623.12         12.5181
   623.26         12.5099
   623.40         12.4975
   623.54         12.4820
   623.68         12.4647
   623.82         12.4468
   623.96         12.4284
   624.10         12.4095
   624.24         12.3899
   624.38         12.3690
   624.52         12.3465
   624.66         12.3226
   624.80         12.2979
   624.94         12.2736
   625.08         12.2513
   625.22         12.2319
   625.36         12.2142
   625.50         12.1955
   625.64         12.1744
   625.78         12.1514
   625.92         12.1285
   626.06         12.1080
   626.20         12.0917
   626.34         12.0804
   626.48         12.0732
   626.62         12.0670
   626.76         12.0586
   626.90         12.0453
   627.04         12.0259
   627.18         12.0014
   627.32         11.9743
   627.46         11.9489
   627.60         11.9305
   627.74         11.9224
   627.88         11.9250
   628.02         11.9379
   628.16         11.9618
   628.30         11.9974
   628.44         12.0434
   628.58         12.0950
   628.72         12.1444
   628.86         12.1841
   629.00         12.2079
   629.14         12.2128
   629.28         12.1995
   629.42         12.1721
   629.56         12.1370
   629.70         12.1010
   629.84         12.0706
   629.98         12.0504
   630.12         12.0434
   630.26         12.0493
   630.40         12.0642
   630.54         12.0839
   630.68         12.1049
   630.82         12.1239
   630.96         12.1385
   631.10         12.1477
   631.24         12.1512
   631.38         12.1502
   631.52         12.1478
   631.66         12.1466
   631.80         12.1484
   631.94         12.1539
   632.08         12.1624
   632.22         12.1721
   632.36         12.1814
   632.50         12.1886
   632.64         12.1915
   632.78         12.1877
   632.92         12.1753
   633.06         12.1550
   633.20         12.1301
   633.34         12.1057
   633.48         12.0859
   633.62         12.0735
   633.76         12.0694
   633.90         12.0722
   634.04         12.0793
   634.18         12.0879
   634.32         12.0947
   634.46         12.0975
   634.60         12.0952
   634.74         12.0870
   634.88         12.0728
   635.02         12.0529
   635.16         12.0275
   635.30         11.9971
   635.44         11.9636
   635.58         11.9300
   635.72         11.8994
   635.86         11.8734
   636.00         11.8524
   636.14         11.8353
   636.28         11.8211
   636.42         11.8100
   636.56         11.8027
   636.70         11.8002
   636.84         11.8036
   636.98         11.8130
   637.12         11.8275
   637.26         11.8448
   637.40         11.8627
   637.54         11.8791
   637.68         11.8920
   637.82         11.8998
   637.96         11.9023
   638.10         11.8997
   638.24         11.8926
   638.38         11.8816
   638.52         11.8676
   638.66         11.8523
   638.80         11.8371
   638.94         11.8231
   639.08         11.8105
   639.22         11.7990
   639.36         11.7889
   639.50         11.7798
   639.64         11.7707
   639.78         11.7597
   639.92         11.7461
   640.06         11.7300
   640.20         11.7121
   640.34         11.6932
   640.48         11.6743
   640.62         11.6568
   640.76         11.6424
   640.90         11.6321
   641.04         11.6261
   641.18         11.6239
   641.32         11.6245
   641.46         11.6269
   641.60         11.6303
   641.74         11.6345
   641.88         11.6396
   642.02         11.6455
   642.16         11.6512
   642.30         11.6560
   642.44         11.6604
   642.58         11.6647
   642.72         11.6684
   642.86         11.6706
   643.00         11.6703
   643.14         11.6681
   643.28         11.6653
   643.42         11.6635
   643.56         11.6629
   643.70         11.6631
   643.84         11.6626
   643.98         11.6603
   644.12         11.6548
   644.26         11.6448
   644.40         11.6296
   644.54         11.6087
   644.68         11.5833
   644.82         11.5552
   644.96         11.5256
   645.10         11.4953
   645.24         11.4657
   645.38         11.4400
   645.52         11.4224
   645.66         11.4163
   645.80         11.4231
   645.94         11.4420
   646.08         11.4708
   646.22         11.5055
   646.36         11.5422
   646.50         11.5774
   646.64         11.6083
   646.78         11.6324
   646.92         11.6474
   647.06         11.6518
   647.20         11.6467
   647.34         11.6349
   647.48         11.6198
   647.62         11.6048
   647.76         11.5932
   647.90         11.5880
   648.04         11.5893
   648.18         11.5938
   648.32         11.5963
   648.46         11.5917
   648.60         11.5764
   648.74         11.5496
   648.88         11.5138
   649.02         11.4730
   649.16         11.4318
   649.30         11.3949
   649.44         11.3667
   649.58         11.3513
   649.72         11.3524
   649.86         11.3732
   650.00         11.4133
   650.14         11.4683
   650.28         11.5307
   650.42         11.5926
   650.56         11.6471
   650.70         11.6893
   650.84         11.7179
   650.98         11.7346
   651.12         11.7430
   651.26         11.7475
   651.40         11.7515
   651.54         11.7567
   651.68         11.7631
   651.82         11.7705
   651.96         11.7786
   652.10         11.7868
   652.24         11.7943
   652.38         11.7998
   652.52         11.8022
   652.66         11.8000
   652.80         11.7930
   652.94         11.7816
   653.08         11.7665
   653.22         11.7489
   653.36         11.7294
   653.50         11.7076
   653.64         11.6825
   653.78         11.6520
   653.92         11.6139
   654.06         11.5663
   654.20         11.5082
   654.34         11.4391
   654.48         11.3575
   654.62         11.2617
   654.76         11.1478
   654.90         11.0098
   655.04         10.8413
   655.18         10.6388
   655.32         10.4052
   655.46         10.1508
   655.60         9.8906
   655.74         9.6419
   655.88         9.4229
   656.02         9.2503
   656.16         9.1378
   656.30         9.0943
   656.44         9.1236
   656.58         9.2240
   656.72         9.3888
   656.86         9.6059
   657.00         9.8587
   657.14         10.1262
   657.28         10.3869
   657.42         10.6222
   657.56         10.8199
   657.70         10.9761
   657.84         11.0941
   657.98         11.1804
   658.12         11.2401
   658.26         11.2771
   658.40         11.2953
   658.54         11.2992
   658.68         11.2942
   658.82         11.2852
   658.96         11.2762
   659.10         11.2705
   659.24         11.2702
   659.38         11.2754
   659.52         11.2840
   659.66         11.2927
   659.80         11.2994
   659.94         11.3039
   660.08         11.3071
   660.22         11.3104
   660.36         11.3140
   660.50         11.3181
   660.64         11.3230
   660.78         11.3306
   660.92         11.3430
   661.06         11.3609
   661.20         11.3844
   661.34         11.4129
   661.48         11.4441
   661.62         11.4752
   661.76         11.5021
   661.90         11.5204
   662.04         11.5271
   662.18         11.5204
   662.32         11.5004
   662.46         11.4691
   662.60         11.4294
   662.74         11.3844
   662.88         11.3369
   663.02         11.2893
   663.16         11.2439
   663.30         11.2037
   663.44         11.1712
   663.58         11.1476
   663.72         11.1336
   663.86         11.1286
   664.00         11.1302
   664.14         11.1351
   664.28         11.1398
   664.42         11.1422
   664.56         11.1417
   664.70         11.1385
   664.84         11.1326
   664.98         11.1236
   665.12         11.1110
   665.26         11.0949
   665.40         11.0761
   665.54         11.0559
   665.68         11.0372
   665.82         11.0242
   665.96         11.0199
   666.10         11.0254
   666.24         11.0388
   666.38         11.0577
   666.52         11.0791
   666.66         11.1001
   666.80         11.1193
   666.94         11.1369
   667.08         11.1537
   667.22         11.1696
   667.36         11.1834
   667.50         11.1932
   667.64         11.1978
   667.78         11.1977
   667.92         11.1950
   668.06         11.1927
   668.20         11.1929
   668.34         11.1963
   668.48         11.2018
   668.62         11.2072
   668.76         11.2106
   668.90         11.2111
   669.04         11.2088
   669.18         11.2043
   669.32         11.1984
   669.46         11.1925
   669.60         11.1867
   669.74         11.1790
   669.88         11.1667
   670.02         11.1487
   670.16         11.1252
   670.30         11.0970
   670.44         11.0644
   670.58         11.0273
   670.72         10.9855
   670.86         10.9389
   671.00         10.8885
   671.14         10.8361
   671.28         10.7837
   671.42         10.7342
   671.56         10.6911
   671.70         10.6579
   671.84         10.6376
   671.98         10.6317
   672.12         10.6397
   672.26         10.6584
   672.40         10.6840
   672.54         10.7131
   672.68         10.7429
   672.82         10.7706
   672.96         10.7939
   673.10         10.8114
   673.24         10.8226
   673.38         10.8273
   673.52         10.8259
   673.66         10.8186
   673.80         10.8064
   673.94         10.7909
   674.08         10.7746
   674.22         10.7586
   674.36         10.7428
   674.50         10.7265
   674.64         10.7094
   674.78         10.6920
   674.92         10.6762
   675.06         10.6646
   675.20         10.6597
   675.34         10.6632
   675.48         10.6751
   675.62         10.6936
   675.76         10.7153
   675.90         10.7371
   676.04         10.7565
   676.18         10.7725
   676.32         10.7850
   676.46         10.7943
   676.60         10.8008
   676.74         10.8047
   676.88         10.8067
   677.02         10.8080
   677.16         10.8101
   677.30         10.8142
   677.44         10.8201
   677.58         10.8265
   677.72         10.8315
   677.86         10.8332
   678.00         10.8302
   678.14         10.8216
   678.28         10.8074
   678.42         10.7891
   678.56         10.7697
   678.70         10.7520
   678.84         10.7380
   678.98         10.7286
   679.12         10.7233
   679.26         10.7209
   679.40         10.7209
   679.54         10.7222
   679.68         10.7238
   679.82         10.7253
   679.96         10.7264
   680.10         10.7270
   680.24         10.7275
   680.38         10.7287
   680.52         10.7309
   680.66         10.7344
   680.80         10.7385
   680.94         10.7419
   681.08         10.7426
   681.22         10.7388
   681.36         10.7291
   681.50         10.7129
   681.64         10.6907
   681.78         10.6634
   681.92         10.6327
   682.06         10.6005
   682.20         10.5689
   682.34         10.5399
   682.48         10.5147
   682.62         10.4942
   682.76         10.4784
   682.90         10.4673
   683.04         10.4601
   683.18         10.4552
   683.32         10.4505
   683.46         10.4444
   683.60         10.4360
   683.74         10.4263
   683.88         10.4169
   684.02         10.4093
   684.16         10.4041
   684.30         10.4015
   684.44         10.4016
   684.58         10.4047
   684.72         10.4118
   684.86         10.4230
   685.00         10.4375
   685.14         10.4535
   685.28         10.4690
   685.42         10.4791
   685.56         10.4743
   685.70         10.4419
   685.84         10.3698
   685.98         10.2501
   686.12         10.0806
   686.26         9.8652
   686.40         9.6131
   686.54         9.3375
   686.68         9.0549
   686.82         8.7845
   686.96         8.5471
   687.10         8.3613
   687.24         8.2394
   687.38         8.1856
   687.52         8.1965
   687.66         8.2630
   687.80         8.3705
   687.94         8.5007
   688.08         8.6336
   688.22         8.7516
   688.36         8.8437
   688.50         8.9065
   688.64         8.9429
   688.78         8.9586
   688.92         8.9611
   689.06         8.9591
   689.20         8.9599
   689.34         8.9689
   689.48         8.9901
   689.62         9.0245
   689.76         9.0699
   689.90         9.1228
   690.04         9.1803
   690.18         9.2401
   690.32         9.3001
   690.46         9.3580
   690.60         9.4116
   690.74         9.4593
   690.88         9.5007
   691.02         9.5366
   691.16         9.5681
   691.30         9.5962
   691.44         9.6222
   691.58         9.6475
   691.72         9.6729
   691.86         9.6984
   692.00         9.7245
   692.14         9.7529
   692.28         9.7842
   692.42         9.8181
   692.56         9.8536
   692.70         9.8895
   692.84         9.9235
   692.98         9.9534
   693.12         9.9778
   693.26         9.9957
   693.40         10.0070
   693.54         10.0129
   693.68         10.0146
   693.82         10.0136
   693.96         10.0119
   694.10         10.0120
   694.24         10.0154
   694.38         10.0226
   694.52         10.0333
   694.66         10.0469
   694.80         10.0617
   694.94         10.0758
   695.08         10.0871
   695.22         10.0944
   695.36         10.0968
   695.50         10.0945
   695.64         10.0894
   695.78         10.0846
   695.92         10.0829
   696.06         10.0865
   696.20         10.0965
   696.34         10.1129
   696.48         10.1339
   696.62         10.1557
   696.76         10.1736
   696.90         10.1837
   697.04         10.1831
   697.18         10.1703
   697.32         10.1461
   697.46         10.1123
   697.60         10.0717
   697.74         10.0275
   697.88         9.9833
   698.02         9.9425
   698.16         9.9083
   698.30         9.8831
   698.44         9.8677
   698.58         9.8614
   698.72         9.8624
   698.86         9.8681
   699.00         9.8754
   699.14         9.8810
   699.28         9.8819
   699.42         9.8763
   699.56         9.8643
   699.70         9.8472
   699.84         9.8269
   699.98         9.8049
   700.12         9.7828
   700.26         9.7621
   700.40         9.7439
   700.54         9.7295
   700.68         9.7204
   700.82         9.7179
   700.96         9.7223
   701.10         9.7321
   701.24         9.7442
   701.38         9.7552
   701.52         9.7629
   701.66         9.7663
   701.80         9.7652
   701.94         9.7601
   702.08         9.7530
   702.22         9.7463
   702.36         9.7409
   702.50         9.7362
   702.64         9.7321
   702.78         9.7295
   702.92         9.7301
   703.06         9.7358
   703.20         9.7476
   703.34         9.7662
   703.48         9.7914
   703.62         9.8217
   703.76         9.8545
   703.90         9.8879
   704.04         9.9200
   704.18         9.9485
   704.32         9.9704
   704.46         9.9827
   704.60         9.9842
   704.74         9.9751
   704.88         9.9570
   705.02         9.9327
   705.16         9.9062
   705.30         9.8816
   705.44         9.8617
   705.58         9.8475
   705.72         9.8380
   705.86         9.8318
   706.00         9.8285
   706.14         9.8274
   706.28         9.8278
   706.42         9.8292
   706.56         9.8317
   706.70         9.8355
   706.84         9.8404
   706.98         9.8470
   707.12         9.8556
   707.26         9.8659
   707.40         9.8772
   707.54         9.8879
   707.68         9.8958
   707.82         9.8982
   707.96         9.8928
   708.10         9.8788
   708.24         9.8576
   708.38         9.8321
   708.52         9.8061
   708.66         9.7834
   708.80         9.7673
   708.94         9.7601
   709.08         9.7623
   709.22         9.7735
   709.36         9.7916
   709.50         9.8138
   709.64         9.8371
   709.78         9.8585
   709.92         9.8759
   710.06         9.8880
   710.20         9.8939
   710.34         9.8930
   710.48         9.8857
   710.62         9.8742
   710.76         9.8614
   710.90         9.8499
   711.04         9.8416
   711.18         9.8377
   711.32         9.8390
   711.46         9.8452
   711.60         9.8553
   711.74         9.8679
   711.88         9.8811
   712.02         9.8928
   712.16         9.9015
   712.30         9.9070
   712.44         9.9108
   712.58         9.9158
   712.72         9.9256
   712.86         9.9415
   713.00         9.9627
   713.14         9.9869
   713.28         10.0112
   713.42         10.0318
   713.56         10.0446
   713.70         10.0463
   713.84         10.0347
   713.98         10.0092
   714.12         9.9718
   714.26         9.9257
   714.40         9.8749
   714.54         9.8244
   714.68         9.7797
   714.82         9.7457
   714.96         9.7250
   715.10         9.7168
   715.24         9.7176
   715.38         9.7223
   715.52         9.7248
   715.66         9.7201
   715.80         9.7063
   715.94         9.6837
   716.08         9.6537
   716.22         9.6178
   716.36         9.5778
   716.50         9.5360
   716.64         9.4953
   716.78         9.4587
   716.92         9.4286
   717.06         9.4049
   717.20         9.3856
   717.34         9.3667
   717.48         9.3436
   717.62         9.3127
   717.76         9.2729
   717.90         9.2252
   718.04         9.1714
   718.18         9.1137
   718.32         9.0554
   718.46         9.0002
   718.60         8.9511
   718.74         8.9106
   718.88         8.8799
   719.02         8.8595
   719.16         8.8497
   719.30         8.8505
   719.44         8.8604
   719.58         8.8756
   719.72         8.8921
   719.86         8.9078
   720.00         8.9238
   720.14         8.9427
   720.28         8.9669
   720.42         8.9978
   720.56         9.0353
   720.70         9.0782
   720.84         9.1248
   720.98         9.1733
   721.12         9.2223
   721.26         9.2701
   721.40         9.3151
   721.54         9.3556
   721.68         9.3913
   721.82         9.4219
   721.96         9.4465
   722.10         9.4626
   722.24         9.4675
   722.38         9.4605
   722.52         9.4424
   722.66         9.4144
   722.80         9.3778
   722.94         9.3348
   723.08         9.2883
   723.22         9.2410
   723.36         9.1958
   723.50         9.1565
   723.64         9.1276
   723.78         9.1119
   723.92         9.1096
   724.06         9.1177
   724.20         9.1313
   724.34         9.1456
   724.48         9.1569
   724.62         9.1630
   724.76         9.1643
   724.90         9.1633
   725.04         9.1636
   725.18         9.1671
   725.32         9.1743
   725.46         9.1852
   725.60         9.2001
   725.74         9.2189
   725.88         9.2409
   726.02         9.2646
   726.16         9.2881
   726.30         9.3079
   726.44         9.3199
   726.58         9.3209
   726.72         9.3097
   726.86         9.2883
   727.00         9.2616
   727.14         9.2348
   727.28         9.2109
   727.42         9.1901
   727.56         9.1710
   727.70         9.1510
   727.84         9.1281
   727.98         9.1022
   728.12         9.0750
   728.26         9.0486
   728.40         9.0245
   728.54         9.0035
   728.68         8.9854
   728.82         8.9703
   728.96         8.9582
   729.10         8.9500
   729.24         8.9459
   729.38         8.9449
   729.52         8.9451
   729.66         8.9434
   729.80         8.9369
   729.94         8.9227
   730.08         8.9001
   730.22         8.8719
   730.36         8.8438
   730.50         8.8227
   730.64         8.8141
   730.78         8.8202
   730.92         8.8404
   731.06         8.8718
   731.20         8.9099
   731.34         8.9498
   731.48         8.9878
   731.62         9.0220
   731.76         9.0516
   731.90         9.0756
   732.04         9.0928
   732.18         9.1032
   732.32         9.1081
   732.46         9.1099
   732.60         9.1109
   732.74         9.1126
   732.88         9.1156
   733.02         9.1187
   733.16         9.1197
   733.30         9.1160
   733.44         9.1065
   733.58         9.0918
   733.72         9.0735
   733.86         9.0542
   734.00         9.0367
   734.14         9.0219
   734.28         9.0095
   734.42         8.9982
   734.56         8.9872
   734.70         8.9766
   734.84         8.9672
   734.98         8.9593
   735.12         8.9530
   735.26         8.9478
   735.40         8.9432
   735.54         8.9388
   735.68         8.9355
   735.82         8.9357
   735.96         8.9428
   736.10         8.9589
   736.24         8.9840
   736.38         9.0166
   736.52         9.0536
   736.66         9.0898
   736.80         9.1199
   736.94         9.1402
   737.08         9.1484
   737.22         9.1430
   737.36         9.1229
   737.50         9.0886
   737.64         9.0420
   737.78         8.9859
   737.92         8.9240
   738.06         8.8606
   738.20         8.8005
   738.34         8.7488
   738.48         8.7093
   738.62         8.6832
   738.76         8.6687
   738.90         8.6627
   739.04         8.6622
   739.18         8.6657
   739.32         8.6727
   739.46         8.6842
   739.60         8.6996
   739.74         8.7172
   739.88         8.7346
   740.02         8.7494
   740.16         8.7589
   740.30         8.7603
   740.44         8.7515
   740.58         8.7322
   740.72         8.7034
   740.86         8.6677
   741.00         8.6282
   741.14         8.5879
   741.28         8.5494
   741.42         8.5154
   741.56         8.4892
   741.70         8.4740
   741.84         8.4713
   741.98         8.4803
   742.12         8.4976
   742.26         8.5185
   742.40         8.5395
   742.54         8.5581
   742.68         8.5719
   742.82         8.5792
   742.96         8.5792
   743.10         8.5719
   743.24         8.5581
   743.38         8.5395
   743.52         8.5185
   743.66         8.4976
   743.80         8.4803
   743.94         8.4713
   744.08         8.4740
   744.22         8.4892
