# File HD842
# Wavelength [nm]    Normalized Amplitude
   349.70         51.2144
   349.84         51.0976
   349.98         51.0475
   350.12         51.0561
   350.26         51.1113
   350.40         51.1967
   350.54         51.2966
   350.68         51.3915
   350.82         51.4626
   350.96         51.5031
   351.10         51.5157
   351.24         51.5031
   351.38         51.4626
   351.52         51.3915
   351.66         51.2966
   351.80         51.1967
   351.94         51.1113
   352.08         51.0561
   352.22         51.0475
   352.36         51.0976
   352.50         51.2144
   352.64         51.4057
   352.78         51.6633
   352.92         51.9630
   353.06         52.2831
   353.20         52.6045
   353.34         52.9042
   353.48         53.1651
   353.62         53.3781
   353.76         53.5410
   353.90         53.6601
   354.04         53.7463
   354.18         53.8115
   354.32         53.8656
   354.46         53.9071
   354.60         53.9202
   354.74         53.8793
   354.88         53.7573
   355.02         53.5366
   355.16         53.2071
   355.30         52.7564
   355.44         52.1765
   355.58         51.4820
   355.72         50.7088
   355.86         49.8976
   356.00         49.0853
   356.14         48.3034
   356.28         47.5767
   356.42         46.9288
   356.56         46.3761
   356.70         45.9190
   356.84         45.5535
   356.98         45.2822
   357.12         45.1026
   357.26         44.9965
   357.40         44.9382
   357.54         44.9101
   357.68         44.9080
   357.82         44.9316
   357.96         44.9800
   358.10         45.0607
   358.24         45.1920
   358.38         45.3872
   358.52         45.6439
   358.66         45.9491
   358.80         46.2867
   358.94         46.6348
   359.08         46.9650
   359.22         47.2447
   359.36         47.4493
   359.50         47.5678
   359.64         47.5929
   359.78         47.5126
   359.92         47.3203
   360.06         47.0299
   360.20         46.6761
   360.34         46.3013
   360.48         45.9389
   360.62         45.6094
   360.76         45.3265
   360.90         45.0973
   361.04         44.9196
   361.18         44.7912
   361.32         44.7191
   361.46         44.7137
   361.60         44.7804
   361.74         44.9177
   361.88         45.1177
   362.02         45.3678
   362.16         45.6527
   362.30         45.9597
   362.44         46.2801
   362.58         46.6076
   362.72         46.9395
   362.86         47.2724
   363.00         47.5964
   363.14         47.9001
   363.28         48.1817
   363.42         48.4469
   363.56         48.6996
   363.70         48.9439
   363.84         49.1848
   363.98         49.4233
   364.12         49.6550
   364.26         49.8716
   364.40         50.0645
   364.54         50.2323
   364.68         50.3802
   364.82         50.5149
   364.96         50.6386
   365.10         50.7432
   365.24         50.8188
   365.38         50.8713
   365.52         50.9284
   365.66         51.0280
   365.80         51.2011
   365.94         51.4604
   366.08         51.7980
   366.22         52.1933
   366.36         52.6156
   366.50         53.0240
   366.64         53.3782
   366.78         53.6518
   366.92         53.8296
   367.06         53.9039
   367.20         53.8761
   367.34         53.7595
   367.48         53.5870
   367.62         53.4125
   367.76         53.2974
   367.90         53.3017
   368.04         53.4763
   368.18         53.8523
   368.32         54.4250
   368.46         55.1560
   368.60         56.0023
   368.74         56.9379
   368.88         57.9468
   369.02         59.0026
   369.16         60.0603
   369.30         61.0730
   369.44         62.0089
   369.58         62.8480
   369.72         63.5683
   369.86         64.1379
   370.00         64.5298
   370.14         64.7547
   370.28         64.8757
   370.42         64.9950
   370.56         65.2216
   370.70         65.6297
   370.84         66.2312
   370.98         66.9801
   371.12         67.8233
   371.26         68.7531
   371.40         69.7966
   371.54         70.9766
   371.68         72.2884
   371.82         73.7009
   371.96         75.1596
   372.10         76.5733
   372.24         77.8125
   372.38         78.7521
   372.52         79.3411
   372.66         79.6461
   372.80         79.8267
   372.94         80.0583
   373.08         80.4654
   373.22         81.0944
   373.36         81.9105
   373.50         82.8192
   373.64         83.7094
   373.78         84.4842
   373.92         85.0656
   374.06         85.3968
   374.20         85.4611
   374.34         85.2913
   374.48         84.9574
   374.62         84.5586
   374.76         84.2288
   374.90         84.1454
   375.04         84.5120
   375.18         85.4900
   375.32         87.1197
   375.46         89.2796
   375.60         91.6925
   375.74         93.9892
   375.88         95.7975
   376.02         96.8330
   376.16         96.9813
   376.30         96.3352
   376.44         95.1765
   376.58         93.9230
   376.72         93.0458
   376.86         92.9738
   377.00         94.0125
   377.14         96.3058
   377.28         99.8439
   377.42         104.4842
   377.56         109.9581
   377.70         115.8843
   377.84         121.8025
   377.98         127.2158
   378.12         131.6372
   378.26         134.6366
   378.40         135.8997
   378.54         135.2839
   378.68         132.8620
   378.82         128.9284
   378.96         123.9561
   379.10         118.5242
   379.24         113.2356
   379.38         108.6445
   379.52         105.2170
   379.66         103.3264
   379.80         103.2269
   379.94         104.9955
   380.08         108.5052
   380.22         113.4570
   380.36         119.4518
   380.50         126.0420
   380.64         132.7434
   380.78         139.0739
   380.92         144.6224
   381.06         149.1099
   381.20         152.3930
   381.34         154.4356
   381.48         155.2677
   381.62         154.9316
   381.76         153.4636
   381.90         150.8992
   382.04         147.2781
   382.18         142.6613
   382.32         137.1596
   382.46         130.9324
   382.60         124.2018
   382.74         117.2933
   382.88         110.6403
   383.02         104.7302
   383.16         100.0198
   383.30         96.8733
   383.44         95.5356
   383.58         96.1207
   383.72         98.5903
   383.86         102.7553
   384.00         108.3369
   384.14         114.9971
   384.28         122.3303
   384.42         129.8819
   384.56         137.2124
   384.70         143.9741
   384.84         149.9473
   384.98         155.0401
   385.12         159.2618
   385.26         162.6850
   385.40         165.4140
   385.54         167.5738
   385.68         169.2925
   385.82         170.6676
   385.96         171.7405
   386.10         172.4993
   386.24         172.9196
   386.38         172.9831
   386.52         172.6706
   386.66         171.9480
   386.80         170.7551
   386.94         169.0105
   387.08         166.6285
   387.22         163.5441
   387.36         159.6983
   387.50         155.0155
   387.64         149.4478
   387.78         143.0443
   387.92         135.9769
   388.06         128.5374
   388.20         121.1147
   388.34         114.1438
   388.48         108.0593
   388.62         103.2622
   388.76         100.0913
   388.90         98.7874
   389.04         99.4364
   389.18         101.9416
   389.32         106.0510
   389.46         111.4071
   389.60         117.5973
   389.74         124.2161
   389.88         130.8953
   390.02         137.3018
   390.16         143.1620
   390.30         148.3029
   390.44         152.6604
   390.58         156.2439
   390.72         159.1033
   390.86         161.3117
   391.00         162.9561
   391.14         164.1313
   391.28         164.9199
   391.42         165.3606
   391.56         165.4199
   391.70         164.9709
   391.84         163.7943
   391.98         161.6169
   392.12         158.1905
   392.26         153.3871
   392.40         147.2679
   392.54         140.0992
   392.68         132.3408
   392.82         124.6101
   392.96         117.6055
   393.10         112.0050
   393.24         108.3660
   393.38         107.0488
   393.52         108.1686
   393.66         111.5807
   393.80         116.9008
   393.94         123.5537
   394.08         130.8508
   394.22         138.0768
   394.36         144.5733
   394.50         149.8238
   394.64         153.5311
   394.78         155.6454
   394.92         156.3044
   395.06         155.7167
   395.20         154.0489
   395.34         151.3555
   395.48         147.5804
   395.62         142.6261
   395.76         136.4493
   395.90         129.1424
   396.04         120.9647
   396.18         112.3355
   396.32         103.8033
   396.46         95.9827
   396.60         89.4722
   396.74         84.7790
   396.88         82.2560
   397.02         82.0749
   397.16         84.2378
   397.30         88.5827
   397.44         94.7758
   397.58         102.3293
   397.72         110.6675
   397.86         119.2074
   398.00         127.4379
   398.14         134.9898
   398.28         141.6602
   398.42         147.3821
   398.56         152.1788
   398.70         156.1277
   398.84         159.3264
   398.98         161.8607
   399.12         163.7924
   399.26         165.1621
   399.40         166.0112
   399.54         166.4132
   399.68         166.4847
   399.82         166.3663
   399.96         166.1884
   400.10         166.0512
   400.24         166.0299
   400.38         166.1880
   400.52         166.5734
   400.66         167.2032
   400.80         168.0534
   400.94         169.0594
   401.08         170.1320
   401.22         171.1848
   401.36         172.1513
   401.50         172.9789
   401.64         173.6165
   401.78         174.0136
   401.92         174.1275
   402.06         173.9442
   402.20         173.4946
   402.34         172.8409
   402.48         172.0664
   402.62         171.2706
   402.76         170.5483
   402.90         169.9833
   403.04         169.6427
   403.18         169.5528
   403.32         169.6905
   403.46         170.0019
   403.60         170.4252
   403.74         170.8982
   403.88         171.3625
   404.02         171.7605
   404.16         172.0246
   404.30         172.0832
   404.44         171.8933
   404.58         171.4750
   404.72         170.9123
   404.86         170.3171
   405.00         169.7831
   405.14         169.3602
   405.28         169.0545
   405.42         168.8432
   405.56         168.6975
   405.70         168.5880
   405.84         168.4701
   405.98         168.2911
   406.12         168.0145
   406.26         167.6186
   406.40         167.0764
   406.54         166.3528
   406.68         165.4295
   406.82         164.3344
   406.96         163.1376
   407.10         161.9234
   407.24         160.7619
   407.38         159.6874
   407.52         158.6976
   407.66         157.7709
   407.80         156.8791
   407.94         155.9869
   408.08         155.0370
   408.22         153.9394
   408.36         152.5701
   408.50         150.7756
   408.64         148.3976
   408.78         145.2940
   408.92         141.3473
   409.06         136.5089
   409.20         130.8616
   409.34         124.6453
   409.48         118.2234
   409.62         112.0185
   409.76         106.4530
   409.90         101.9114
   410.04         98.7221
   410.18         97.1364
   410.32         97.2944
   410.46         99.1907
   410.60         102.6632
   410.74         107.4124
   410.88         113.0539
   411.02         119.1652
   411.16         125.3259
   411.30         131.1657
   411.44         136.3956
   411.58         140.8373
   411.72         144.4341
   411.86         147.2259
   412.00         149.3036
   412.14         150.7791
   412.28         151.7817
   412.42         152.4548
   412.56         152.9492
   412.70         153.4143
   412.84         153.9686
   412.98         154.6645
   413.12         155.4859
   413.26         156.3807
   413.40         157.2960
   413.54         158.1862
   413.68         158.9982
   413.82         159.6773
   413.96         160.1827
   414.10         160.4881
   414.24         160.5878
   414.38         160.5021
   414.52         160.2798
   414.66         159.9932
   414.80         159.7122
   414.94         159.4867
   415.08         159.3365
   415.22         159.2602
   415.36         159.2564
   415.50         159.3168
   415.64         159.4227
   415.78         159.5561
   415.92         159.6928
   416.06         159.7849
   416.20         159.7620
   416.34         159.5546
   416.48         159.1104
   416.62         158.3955
   416.76         157.4060
   416.90         156.1829
   417.04         154.8085
   417.18         153.3863
   417.32         152.0210
   417.46         150.8096
   417.60         149.8402
   417.74         149.1876
   417.88         148.9105
   418.02         149.0347
   418.16         149.5343
   418.30         150.3349
   418.44         151.3179
   418.58         152.3354
   418.72         153.2490
   418.86         153.9631
   419.00         154.4240
   419.14         154.6049
   419.28         154.5078
   419.42         154.1735
   419.56         153.6756
   419.70         153.0962
   419.84         152.5121
   419.98         152.0028
   420.12         151.6457
   420.26         151.4878
   420.40         151.5332
   420.54         151.7557
   420.68         152.1091
   420.82         152.5342
   420.96         152.9646
   421.10         153.3306
   421.24         153.5721
   421.38         153.6452
   421.52         153.5269
   421.66         153.2256
   421.80         152.7877
   421.94         152.2784
   422.08         151.7506
   422.22         151.2372
   422.36         150.7526
   422.50         150.3075
   422.64         149.9180
   422.78         149.5966
   422.92         149.3510
   423.06         149.1936
   423.20         149.1408
   423.34         149.1969
   423.48         149.3394
   423.62         149.5228
   423.76         149.6896
   423.90         149.7886
   424.04         149.8080
   424.18         149.7788
   424.32         149.7449
   424.46         149.7289
   424.60         149.7164
   424.74         149.6768
   424.88         149.5974
   425.02         149.4931
   425.16         149.3983
   425.30         149.3579
   425.44         149.4169
   425.58         149.6012
   425.72         149.9033
   425.86         150.2796
   426.00         150.6619
   426.14         150.9790
   426.28         151.1758
   426.42         151.2279
   426.56         151.1476
   426.70         150.9728
   426.84         150.7392
   426.98         150.4626
   427.12         150.1444
   427.26         149.7874
   427.40         149.4057
   427.54         149.0253
   427.68         148.6626
   427.82         148.3067
   427.96         147.9325
   428.10         147.5094
   428.24         147.0056
   428.38         146.3984
   428.52         145.6794
   428.66         144.8541
   428.80         143.9397
   428.94         142.9631
   429.08         141.9615
   429.22         140.9735
   429.36         140.0311
   429.50         139.1554
   429.64         138.3583
   429.78         137.6623
   429.92         137.1040
   430.06         136.7025
   430.20         136.4450
   430.34         136.2981
   430.48         136.2414
   430.62         136.2757
   430.76         136.3898
   430.90         136.5449
   431.04         136.6860
   431.18         136.7546
   431.32         136.6952
   431.46         136.4739
   431.60         136.0938
   431.74         135.5794
   431.88         134.9406
   432.02         134.1573
   432.16         133.1861
   432.30         131.9645
   432.44         130.4041
   432.58         128.3789
   432.72         125.7430
   432.86         122.3879
   433.00         118.2989
   433.14         113.5832
   433.28         108.4531
   433.42         103.2002
   433.56         98.1800
   433.70         93.7717
   433.84         90.3125
   433.98         88.0590
   434.12         87.1825
   434.26         87.7629
   434.40         89.7663
   434.54         93.0416
   434.68         97.3486
   434.82         102.3777
   434.96         107.7775
   435.10         113.2078
   435.24         118.3922
   435.38         123.1498
   435.52         127.3939
   435.66         131.1131
   435.80         134.3418
   435.94         137.1198
   436.08         139.4715
   436.22         141.4007
   436.36         142.8947
   436.50         143.9543
   436.64         144.6318
   436.78         145.0299
   436.92         145.2552
   437.06         145.3687
   437.20         145.3812
   437.34         145.2757
   437.48         145.0367
   437.62         144.6803
   437.76         144.2473
   437.90         143.7762
   438.04         143.2848
   438.18         142.7737
   438.32         142.2487
   438.46         141.7339
   438.60         141.2549
   438.74         140.8198
   438.88         140.4267
   439.02         140.0866
   439.16         139.8249
   439.30         139.6621
   439.44         139.5923
   439.58         139.5797
   439.72         139.5790
   439.86         139.5649
   440.00         139.5457
   440.14         139.5445
   440.28         139.5585
   440.42         139.5396
   440.56         139.4239
   440.70         139.1708
   440.84         138.7827
   440.98         138.2999
   441.12         137.7762
   441.26         137.2613
   441.40         136.8030
   441.54         136.4574
   441.68         136.2778
   441.82         136.2883
   441.96         136.4752
   442.10         136.7946
   442.24         137.1846
   442.38         137.5830
   442.52         137.9531
   442.66         138.2856
   442.80         138.5717
   442.94         138.7925
   443.08         138.9255
   443.22         138.9637
   443.36         138.9260
   443.50         138.8451
   443.64         138.7478
   443.78         138.6468
   443.92         138.5500
   444.06         138.4640
   444.20         138.3923
   444.34         138.3318
   444.48         138.2739
   444.62         138.2124
   444.76         138.1441
   444.90         138.0668
   445.04         137.9783
   445.18         137.8702
   445.32         137.7175
   445.46         137.4784
   445.60         137.1113
   445.74         136.5998
   445.88         135.9776
   446.02         135.3171
   446.16         134.6949
   446.30         134.1703
   446.44         133.7921
   446.58         133.5988
   446.72         133.5988
   446.86         133.7553
   447.00         134.0008
   447.14         134.2746
   447.28         134.5402
   447.42         134.7761
   447.56         134.9634
   447.70         135.0734
   447.84         135.0736
   447.98         134.9433
   448.12         134.6785
   448.26         134.2996
   448.40         133.8567
   448.54         133.4206
   448.68         133.0589
   448.82         132.8141
   448.96         132.7039
   449.10         132.7345
   449.24         132.9045
   449.38         133.2032
   449.52         133.6144
   449.66         134.1294
   449.80         134.7522
   449.94         135.4746
   450.08         136.2565
   450.22         137.0262
   450.36         137.7022
   450.50         138.2244
   450.64         138.5588
   450.78         138.6848
   450.92         138.5908
   451.06         138.2790
   451.20         137.7700
   451.34         137.0999
   451.48         136.3195
   451.62         135.4849
   451.76         134.6473
   451.90         133.8432
   452.04         133.0834
   452.18         132.3636
   452.32         131.7039
   452.46         131.1562
   452.60         130.7615
   452.74         130.5275
   452.88         130.4417
   453.02         130.4948
   453.16         130.6791
   453.30         130.9724
   453.44         131.3376
   453.58         131.7256
   453.72         132.0765
   453.86         132.3312
   454.00         132.4411
   454.14         132.3676
   454.28         132.0775
   454.42         131.5633
   454.56         130.8617
   454.70         130.0497
   454.84         129.2347
   454.98         128.5328
   455.12         128.0221
   455.26         127.7279
   455.40         127.6556
   455.54         127.8099
   455.68         128.1838
   455.82         128.7403
   455.96         129.4132
   456.10         130.1265
   456.24         130.8142
   456.38         131.4334
   456.52         131.9613
   456.66         132.3779
   456.80         132.6550
   456.94         132.7603
   457.08         132.6740
   457.22         132.4023
   457.36         131.9732
   457.50         131.4198
   457.64         130.7692
   457.78         130.0502
   457.92         129.3108
   458.06         128.6191
   458.20         128.0447
   458.34         127.6397
   458.48         127.4305
   458.62         127.4272
   458.76         127.6311
   458.90         128.0284
   459.04         128.5864
   459.18         129.2504
   459.32         129.9595
   459.46         130.6625
   459.60         131.3219
   459.74         131.9200
   459.88         132.4600
   460.02         132.9436
   460.16         133.3524
   460.30         133.6635
   460.44         133.8623
   460.58         133.9374
   460.72         133.8719
   460.86         133.6481
   461.00         133.2657
   461.14         132.7527
   461.28         132.1595
   461.42         131.5409
   461.56         130.9449
   461.70         130.4074
   461.84         129.9517
   461.98         129.5962
   462.12         129.3494
   462.26         129.2033
   462.40         129.1437
   462.54         129.1586
   462.68         129.2356
   462.82         129.3681
   462.96         129.5598
   463.10         129.8094
   463.24         130.1007
   463.38         130.4106
   463.52         130.7209
   463.66         131.0196
   463.80         131.2973
   463.94         131.5402
   464.08         131.7286
   464.22         131.8417
   464.36         131.8654
   464.50         131.7997
   464.64         131.6586
   464.78         131.4653
   464.92         131.2517
   465.06         131.0521
   465.20         130.8841
   465.34         130.7360
   465.48         130.5739
   465.62         130.3544
   465.76         130.0382
   465.90         129.6112
   466.04         129.1023
   466.18         128.5726
   466.32         128.0899
   466.46         127.7112
   466.60         127.4667
   466.74         127.3555
   466.88         127.3619
   467.02         127.4773
   467.16         127.7011
   467.30         128.0278
   467.44         128.4369
   467.58         128.8897
   467.72         129.3350
   467.86         129.7229
   468.00         130.0205
   468.14         130.2224
   468.28         130.3404
   468.42         130.3944
   468.56         130.4096
   468.70         130.4004
   468.84         130.3573
   468.98         130.2553
   469.12         130.0757
   469.26         129.8216
   469.40         129.5136
   469.54         129.1804
   469.68         128.8536
   469.82         128.5590
   469.96         128.3139
   470.10         128.1242
   470.24         127.9863
   470.38         127.8934
   470.52         127.8377
   470.66         127.8097
   470.80         127.8010
   470.94         127.8046
   471.08         127.8171
   471.22         127.8309
   471.36         127.8268
   471.50         127.7813
   471.64         127.6792
   471.78         127.5191
   471.92         127.3051
   472.06         127.0336
   472.20         126.6995
   472.34         126.3126
   472.48         125.8920
   472.62         125.4574
   472.76         125.0314
   472.90         124.6393
   473.04         124.3075
   473.18         124.0572
   473.32         123.9045
   473.46         123.8576
   473.60         123.9130
   473.74         124.0579
   473.88         124.2666
   474.02         124.5082
   474.16         124.7559
   474.30         124.9890
   474.44         125.1917
   474.58         125.3464
   474.72         125.4367
   474.86         125.4473
   475.00         125.3509
   475.14         125.1067
   475.28         124.6900
   475.42         124.1086
   475.56         123.3949
   475.70         122.5976
   475.84         121.7726
   475.98         120.9799
   476.12         120.2748
   476.26         119.6997
   476.40         119.2844
   476.54         119.0395
   476.68         118.9527
   476.82         118.9910
   476.96         119.1070
   477.10         119.2533
   477.24         119.3881
   477.38         119.4764
   477.52         119.4954
   477.66         119.4399
   477.80         119.3280
   477.94         119.2019
   478.08         119.1103
   478.22         119.0890
   478.36         119.1522
   478.50         119.2962
   478.64         119.5012
   478.78         119.7394
   478.92         119.9865
   479.06         120.2199
   479.20         120.4057
   479.34         120.5045
   479.48         120.4952
   479.62         120.3821
   479.76         120.1893
   479.90         119.9466
   480.04         119.6820
   480.18         119.4282
   480.32         119.2223
   480.46         119.0967
   480.60         119.0737
   480.74         119.1587
   480.88         119.3315
   481.02         119.5460
   481.16         119.7413
   481.30         119.8587
   481.44         119.8589
   481.58         119.7230
   481.72         119.4399
   481.86         119.0069
   482.00         118.4380
   482.14         117.7664
   482.28         117.0319
   482.42         116.2716
   482.56         115.5175
   482.70         114.7998
   482.84         114.1456
   482.98         113.5647
   483.12         113.0438
   483.26         112.5565
   483.40         112.0730
   483.54         111.5606
   483.68         110.9827
   483.82         110.3108
   483.96         109.5317
   484.10         108.6317
   484.24         107.5749
   484.38         106.2997
   484.52         104.7350
   484.66         102.8120
   484.80         100.4679
   484.94         97.6541
   485.08         94.3642
   485.22         90.6649
   485.36         86.6993
   485.50         82.6711
   485.64         78.8179
   485.78         75.3832
   485.92         72.5904
   486.06         70.6196
   486.20         69.5902
   486.34         69.5483
   486.48         70.4617
   486.62         72.2210
   486.76         74.6518
   486.90         77.5369
   487.04         80.6409
   487.18         83.7358
   487.32         86.6261
   487.46         89.1746
   487.60         91.3195
   487.74         93.0721
   487.88         94.4910
   488.02         95.6534
   488.16         96.6380
   488.30         97.5148
   488.44         98.3445
   488.58         99.1789
   488.72         100.0533
   488.86         100.9802
   489.00         101.9506
   489.14         102.9413
   489.28         103.9236
   489.42         104.8709
   489.56         105.7548
   489.70         106.5471
   489.84         107.2224
   489.98         107.7613
   490.12         108.1640
   490.26         108.4541
   490.40         108.6705
   490.54         108.8503
   490.68         109.0191
   490.82         109.1836
   490.96         109.3320
   491.10         109.4404
   491.24         109.4836
   491.38         109.4516
   491.52         109.3556
   491.66         109.2253
   491.80         109.1010
   491.94         109.0190
   492.08         108.9933
   492.22         109.0139
   492.36         109.0671
   492.50         109.1487
   492.64         109.2627
   492.78         109.4171
   492.92         109.6154
   493.06         109.8540
   493.20         110.1208
   493.34         110.3988
   493.48         110.6791
   493.62         110.9684
   493.76         111.2810
   493.90         111.6302
   494.04         112.0193
   494.18         112.4342
   494.32         112.8457
   494.46         113.2121
   494.60         113.4846
   494.74         113.6297
   494.88         113.6465
   495.02         113.5572
   495.16         113.3813
   495.30         113.1290
   495.44         112.8111
   495.58         112.4476
   495.72         112.0636
   495.86         111.6758
   496.00         111.2950
   496.14         110.9401
   496.28         110.6320
   496.42         110.3782
   496.56         110.1734
   496.70         110.0024
   496.84         109.8396
   496.98         109.6466
   497.12         109.3815
   497.26         109.0172
   497.40         108.5536
   497.54         108.0128
   497.68         107.4310
   497.82         106.8503
   497.96         106.3172
   498.10         105.8815
   498.24         105.5902
   498.38         105.4778
   498.52         105.5527
   498.66         105.7925
   498.80         106.1471
   498.94         106.5437
   499.08         106.9017
   499.22         107.1486
   499.36         107.2244
   499.50         107.0955
   499.64         106.7701
   499.78         106.2953
   499.92         105.7364
   500.06         105.1449
   500.20         104.5519
   500.34         103.9764
   500.48         103.4298
   500.62         102.9154
   500.76         102.4384
   500.90         102.0174
   501.04         101.6818
   501.18         101.4523
   501.32         101.3285
   501.46         101.2953
   501.60         101.3363
   501.74         101.4410
   501.88         101.6028
   502.02         101.8156
   502.16         102.0749
   502.30         102.3684
   502.44         102.6689
   502.58         102.9370
   502.72         103.1285
   502.86         103.2184
   503.00         103.2145
   503.14         103.1450
   503.28         103.0475
   503.42         102.9678
   503.56         102.9531
   503.70         103.0247
   503.84         103.1689
   503.98         103.3611
   504.12         103.5872
   504.26         103.8441
   504.40         104.1249
   504.54         104.4123
   504.68         104.6863
   504.82         104.9279
   504.96         105.1160
   505.10         105.2272
   505.24         105.2416
   505.38         105.1554
   505.52         104.9924
   505.66         104.7899
   505.80         104.5775
   505.94         104.3739
   506.08         104.1946
   506.22         104.0530
   506.36         103.9513
   506.50         103.8842
   506.64         103.8455
   506.78         103.8262
   506.92         103.8155
   507.06         103.8033
   507.20         103.7835
   507.34         103.7491
   507.48         103.6859
   507.62         103.5779
   507.76         103.4214
   507.90         103.2363
   508.04         103.0607
   508.18         102.9256
   508.32         102.8404
   508.46         102.7947
   508.60         102.7645
   508.74         102.7242
   508.88         102.6587
   509.02         102.5677
   509.16         102.4618
   509.30         102.3547
   509.44         102.2589
   509.58         102.1817
   509.72         102.1186
   509.86         102.0581
   510.00         101.9944
   510.14         101.9338
   510.28         101.8907
   510.42         101.8821
   510.56         101.9173
   510.70         101.9862
   510.84         102.0589
   510.98         102.1027
   511.12         102.0996
   511.26         102.0547
   511.40         101.9894
   511.54         101.9237
   511.68         101.8592
   511.82         101.7773
   511.96         101.6543
   512.10         101.4773
   512.24         101.2457
   512.38         100.9653
   512.52         100.6504
   512.66         100.3214
   512.80         100.0007
   512.94         99.7124
   513.08         99.4743
   513.22         99.2912
   513.36         99.1634
   513.50         99.0940
   513.64         99.0826
   513.78         99.1208
   513.92         99.1935
   514.06         99.2752
   514.20         99.3363
   514.34         99.3560
   514.48         99.3274
   514.62         99.2477
   514.76         99.1152
   514.90         98.9331
   515.04         98.7107
   515.18         98.4573
   515.32         98.1744
   515.46         97.8561
   515.60         97.4908
   515.74         97.0648
   515.88         96.5758
   516.02         96.0402
   516.16         95.4888
   516.30         94.9619
   516.44         94.5107
   516.58         94.1960
   516.72         94.0648
   516.86         94.1363
   517.00         94.4022
   517.14         94.8207
   517.28         95.3271
   517.42         95.8538
   517.56         96.3368
   517.70         96.7191
   517.84         96.9581
   517.98         97.0377
   518.12         96.9691
   518.26         96.7825
   518.40         96.5186
   518.54         96.2229
   518.68         95.9407
   518.82         95.7121
   518.96         95.5636
   519.10         95.5007
   519.24         95.5036
   519.38         95.5376
   519.52         95.5787
   519.66         95.6175
   519.80         95.6535
   519.94         95.6971
   520.08         95.7634
   520.22         95.8625
   520.36         95.9953
   520.50         96.1582
   520.64         96.3500
   520.78         96.5676
   520.92         96.8038
   521.06         97.0515
   521.20         97.2957
   521.34         97.5027
   521.48         97.6271
   521.62         97.6344
   521.76         97.5096
   521.90         97.2546
   522.04         96.8881
   522.18         96.4270
   522.32         95.8836
   522.46         95.2830
   522.60         94.6679
   522.74         94.0925
   522.88         93.6055
   523.02         93.2428
   523.16         93.0314
   523.30         92.9791
   523.44         93.0686
   523.58         93.2623
   523.72         93.5092
   523.86         93.7568
   524.00         93.9707
   524.14         94.1454
   524.28         94.2922
   524.42         94.4170
   524.56         94.5188
   524.70         94.5957
   524.84         94.6421
   524.98         94.6523
   525.12         94.6174
   525.26         94.5204
   525.40         94.3409
   525.54         94.0576
   525.68         93.6605
   525.82         93.1583
   525.96         92.5723
   526.10         91.9371
   526.24         91.2922
   526.38         90.6779
   526.52         90.1382
   526.66         89.7142
   526.80         89.4330
   526.94         89.3028
   527.08         89.3176
   527.22         89.4600
   527.36         89.7021
   527.50         90.0144
   527.64         90.3743
   527.78         90.7693
   527.92         91.1951
   528.06         91.6500
   528.20         92.1251
   528.34         92.5998
   528.48         93.0482
   528.62         93.4457
   528.76         93.7705
   528.90         94.0039
   529.04         94.1351
   529.18         94.1646
   529.32         94.0993
   529.46         93.9519
   529.60         93.7445
   529.74         93.5081
   529.88         93.2756
   530.02         93.0756
   530.16         92.9227
   530.30         92.8075
   530.44         92.7026
   530.58         92.5791
   530.72         92.4205
   530.86         92.2267
   531.00         92.0080
   531.14         91.7791
   531.28         91.5531
   531.42         91.3324
   531.56         91.1074
   531.70         90.8626
   531.84         90.5906
   531.98         90.3003
   532.12         90.0101
   532.26         89.7378
   532.40         89.4925
   532.54         89.2742
   532.68         89.0749
   532.82         88.8838
   532.96         88.7040
   533.10         88.5608
   533.24         88.4868
   533.38         88.5042
   533.52         88.6150
   533.66         88.7996
   533.80         89.0286
   533.94         89.2780
   534.08         89.5343
   534.22         89.7949
   534.36         90.0667
   534.50         90.3597
   534.64         90.6786
   534.78         91.0138
   534.92         91.3423
   535.06         91.6317
   535.20         91.8487
   535.34         91.9707
   535.48         91.9917
   535.62         91.9164
   535.76         91.7474
   535.90         91.4860
   536.04         91.1503
   536.18         90.7821
   536.32         90.4330
   536.46         90.1509
   536.60         89.9672
   536.74         89.8924
   536.88         89.9166
   537.02         90.0114
   537.16         90.1397
   537.30         90.2655
   537.44         90.3572
   537.58         90.3925
   537.72         90.3614
   537.86         90.2678
   538.00         90.1311
   538.14         89.9777
   538.28         89.8308
   538.42         89.7045
   538.56         89.6086
   538.70         89.5489
   538.84         89.5181
   538.98         89.4947
   539.12         89.4446
   539.26         89.3309
   539.40         89.1301
   539.54         88.8378
   539.68         88.4685
   539.82         88.0548
   539.96         87.6351
   540.10         87.2386
   540.24         86.8837
   540.38         86.5828
   540.52         86.3499
   540.66         86.1970
   540.80         86.1249
   540.94         86.1192
   541.08         86.1565
   541.22         86.2128
   541.36         86.2657
   541.50         86.2978
   541.64         86.2999
   541.78         86.2707
   541.92         86.2189
   542.06         86.1629
   542.20         86.1214
   542.34         86.1074
   542.48         86.1301
   542.62         86.1924
   542.76         86.2929
   542.90         86.4331
   543.04         86.6161
   543.18         86.8344
   543.32         87.0598
   543.46         87.2517
   543.60         87.3740
   543.74         87.4057
   543.88         87.3474
   544.02         87.2203
   544.16         87.0529
   544.30         86.8690
   544.44         86.6844
   544.58         86.5121
   544.72         86.3690
   544.86         86.2730
   545.00         86.2372
   545.14         86.2645
   545.28         86.3456
   545.42         86.4661
   545.56         86.6102
   545.70         86.7601
   545.84         86.8941
   545.98         86.9936
   546.12         87.0538
   546.26         87.0802
   546.40         87.0742
   546.54         87.0265
   546.68         86.9212
   546.82         86.7448
   546.96         86.4973
   547.10         86.1974
   547.24         85.8800
   547.38         85.5835
   547.52         85.3336
   547.66         85.1381
   547.80         84.9967
   547.94         84.9107
   548.08         84.8848
   548.22         84.9228
   548.36         85.0195
   548.50         85.1546
   548.64         85.3009
   548.78         85.4315
   548.92         85.5206
   549.06         85.5471
   549.20         85.5040
   549.34         85.4008
   549.48         85.2538
   549.62         85.0788
   549.76         84.8900
   549.90         84.6995
   550.04         84.5157
   550.18         84.3461
   550.32         84.2024
   550.46         84.1020
   550.60         84.0619
   550.74         84.0914
   550.88         84.1852
   551.02         84.3222
   551.16         84.4736
   551.30         84.6116
   551.44         84.7087
   551.58         84.7372
   551.72         84.6803
   551.86         84.5408
   552.00         84.3321
   552.14         84.0667
   552.28         83.7568
   552.42         83.4227
   552.56         83.0926
   552.70         82.7951
   552.84         82.5544
   552.98         82.3886
   553.12         82.3089
   553.26         82.3141
   553.40         82.3908
   553.54         82.5189
   553.68         82.6806
   553.82         82.8612
   553.96         83.0492
   554.10         83.2393
   554.24         83.4307
   554.38         83.6286
   554.52         83.8400
   554.66         84.0644
   554.80         84.2953
   554.94         84.5266
   555.08         84.7537
   555.22         84.9665
   555.36         85.1490
   555.50         85.2859
   555.64         85.3610
   555.78         85.3561
   555.92         85.2548
   556.06         85.0511
   556.20         84.7545
   556.34         84.3868
   556.48         83.9730
   556.62         83.5415
   556.76         83.1217
   556.90         82.7417
   557.04         82.4285
   557.18         82.1993
   557.32         82.0548
   557.46         81.9836
   557.60         81.9681
   557.74         81.9923
   557.88         82.0457
   558.02         82.1199
   558.16         82.2025
   558.30         82.2796
   558.44         82.3413
   558.58         82.3836
   558.72         82.4061
   558.86         82.4114
   559.00         82.3999
   559.14         82.3686
   559.28         82.3199
   559.42         82.2617
   559.56         82.2037
   559.70         82.1523
   559.84         82.1087
   559.98         82.0720
   560.12         82.0377
   560.26         81.9938
   560.40         81.9244
   560.54         81.8168
   560.68         81.6675
   560.82         81.4825
   560.96         81.2725
   561.10         81.0481
   561.24         80.8211
   561.38         80.6078
   561.52         80.4290
   561.66         80.3060
   561.80         80.2562
   561.94         80.2868
   562.08         80.3888
   562.22         80.5442
   562.36         80.7318
   562.50         80.9280
   562.64         81.1082
   562.78         81.2496
   562.92         81.3372
   563.06         81.3671
   563.20         81.3440
   563.34         81.2792
   563.48         81.1847
   563.62         81.0733
   563.76         80.9595
   563.90         80.8545
   564.04         80.7669
   564.18         80.7037
   564.32         80.6630
   564.46         80.6336
   564.60         80.5965
   564.74         80.5321
   564.88         80.4326
   565.02         80.2990
   565.16         80.1357
   565.30         79.9517
   565.44         79.7621
   565.58         79.5837
   565.72         79.4317
   565.86         79.3199
   566.00         79.2604
   566.14         79.2574
   566.28         79.3034
   566.42         79.3830
   566.56         79.4779
   566.70         79.5748
   566.84         79.6587
   566.98         79.7087
   567.12         79.7086
   567.26         79.6506
   567.40         79.5372
   567.54         79.3807
   567.68         79.1950
   567.82         78.9921
   567.96         78.7830
   568.10         78.5757
   568.24         78.3737
   568.38         78.1785
   568.52         77.9938
   568.66         77.8263
   568.80         77.6848
   568.94         77.5816
   569.08         77.5258
   569.22         77.5161
   569.36         77.5425
   569.50         77.5880
   569.64         77.6387
   569.78         77.6904
   569.92         77.7417
   570.06         77.7930
   570.20         77.8485
   570.34         77.9151
   570.48         77.9959
   570.62         78.0887
   570.76         78.1882
   570.90         78.2859
   571.04         78.3729
   571.18         78.4446
   571.32         78.4992
   571.46         78.5357
   571.60         78.5520
   571.74         78.5431
   571.88         78.5049
   572.02         78.4401
   572.16         78.3581
   572.30         78.2710
   572.44         78.1834
   572.58         78.0942
   572.72         78.0030
   572.86         77.9081
   573.00         77.8045
   573.14         77.6854
   573.28         77.5456
   573.42         77.3824
   573.56         77.1980
   573.70         77.0008
   573.84         76.8020
   573.98         76.6092
   574.12         76.4297
   574.26         76.2708
   574.40         76.1379
   574.54         76.0336
   574.68         75.9614
   574.82         75.9276
   574.96         75.9367
   575.10         75.9902
   575.24         76.0895
   575.38         76.2308
   575.52         76.4028
   575.66         76.5891
   575.80         76.7688
   575.94         76.9211
   576.08         77.0290
   576.22         77.0835
   576.36         77.0816
   576.50         77.0222
   576.64         76.9025
   576.78         76.7185
   576.92         76.4703
   577.06         76.1682
   577.20         75.8315
   577.34         75.4848
   577.48         75.1511
   577.62         74.8475
   577.76         74.5890
   577.90         74.3823
   578.04         74.2229
   578.18         74.1027
   578.32         74.0126
   578.46         73.9455
   578.60         73.8974
   578.74         73.8640
   578.88         73.8403
   579.02         73.8202
   579.16         73.7951
   579.30         73.7567
   579.44         73.7091
   579.58         73.6716
   579.72         73.6609
   579.86         73.6783
   580.00         73.7164
   580.14         73.7696
   580.28         73.8374
   580.42         73.9209
   580.56         74.0171
   580.70         74.1258
   580.84         74.2508
   580.98         74.3929
   581.12         74.5485
   581.26         74.7103
   581.40         74.8674
   581.54         75.0057
   581.68         75.1092
   581.82         75.1637
   581.96         75.1640
   582.10         75.1194
   582.24         75.0440
   582.38         74.9464
   582.52         74.8374
   582.66         74.7367
   582.80         74.6656
   582.94         74.6368
   583.08         74.6501
   583.22         74.6931
   583.36         74.7462
   583.50         74.7891
   583.64         74.8063
   583.78         74.7863
   583.92         74.7195
   584.06         74.5982
   584.20         74.4177
   584.34         74.1767
   584.48         73.8824
   584.62         73.5536
   584.76         73.2149
   584.90         72.8896
   585.04         72.6006
   585.18         72.3701
   585.32         72.2139
   585.46         72.1362
   585.60         72.1330
   585.74         72.1966
   585.88         72.3172
   586.02         72.4879
   586.16         72.7047
   586.30         72.9562
   586.44         73.2225
   586.58         73.4856
   586.72         73.7353
   586.86         73.9650
   587.00         74.1696
   587.14         74.3430
   587.28         74.4708
   587.42         74.5291
   587.56         74.4812
   587.70         74.2744
   587.84         73.8618
   587.98         73.2273
   588.12         72.3847
   588.26         71.3622
   588.40         70.1916
   588.54         68.9249
   588.68         67.6438
   588.82         66.4426
   588.96         65.4144
   589.10         64.6416
   589.24         64.1832
   589.38         64.0616
   589.52         64.2634
   589.66         64.7480
   589.80         65.4530
   589.94         66.3009
   590.08         67.2056
   590.22         68.0773
   590.36         68.8407
   590.50         69.4601
   590.64         69.9287
   590.78         70.2458
   590.92         70.4190
   591.06         70.4760
   591.20         70.4650
   591.34         70.4309
   591.48         70.4000
   591.62         70.3838
   591.76         70.3824
   591.90         70.3896
   592.04         70.3991
   592.18         70.4033
   592.32         70.3922
   592.46         70.3555
   592.60         70.2851
   592.74         70.1780
   592.88         70.0401
   593.02         69.8853
   593.16         69.7313
   593.30         69.5903
   593.44         69.4665
   593.58         69.3592
   593.72         69.2666
   593.86         69.1885
   594.00         69.1256
   594.14         69.0776
   594.28         69.0412
   594.42         69.0104
   594.56         68.9798
   594.70         68.9446
   594.84         68.9024
   594.98         68.8537
   595.12         68.8013
   595.26         68.7462
   595.40         68.6897
   595.54         68.6330
   595.68         68.5763
   595.82         68.5194
   595.96         68.4625
   596.10         68.4055
   596.24         68.3485
   596.38         68.2914
   596.52         68.2343
   596.66         68.1772
   596.80         68.1200
   596.94         68.0627
   597.08         68.0054
   597.22         67.9480
   597.36         67.8906
   597.50         67.8330
   597.64         67.7754
   597.78         67.7176
   597.92         67.6598
   598.06         67.6019
   598.20         67.5440
   598.34         67.4861
   598.48         67.4264
   598.62         67.3605
   598.76         67.2855
   598.90         67.2030
   599.04         67.1171
   599.18         67.0297
   599.32         66.9410
   599.46         66.8532
   599.60         66.7744
   599.74         66.7148
   599.88         66.6813
   600.02         66.6755
   600.16         66.6918
   600.30         66.7204
   600.44         66.7525
   600.58         66.7796
   600.72         66.7933
   600.86         66.7886
   601.00         66.7628
   601.14         66.7157
   601.28         66.6482
   601.42         66.5636
   601.56         66.4629
   601.70         66.3432
   601.84         66.2010
   601.98         66.0380
   602.12         65.8669
   602.26         65.7081
   602.40         65.5788
   602.54         65.4879
   602.68         65.4354
   602.82         65.4112
   602.96         65.3955
   603.10         65.3647
   603.24         65.2988
   603.38         65.1879
   603.52         65.0337
   603.66         64.8434
   603.80         64.6346
   603.94         64.4334
   604.08         64.2637
   604.22         64.1447
   604.36         64.0925
   604.50         64.1215
   604.64         64.2421
   604.78         64.4583
   604.92         64.7579
   605.06         65.1110
   605.20         65.4768
   605.34         65.8137
   605.48         66.0895
   605.62         66.2868
   605.76         66.4094
   605.90         66.4759
   606.04         66.5078
   606.18         66.5216
   606.32         66.5290
   606.46         66.5400
   606.60         66.5564
   606.74         66.5700
   606.88         66.5730
   607.02         66.5621
   607.16         66.5349
   607.30         66.4908
   607.44         66.4309
   607.58         66.3547
   607.72         66.2602
   607.86         66.1484
   608.00         66.0239
   608.14         65.8901
   608.28         65.7502
   608.42         65.6130
   608.56         65.4908
   608.70         65.3909
   608.84         65.3118
   608.98         65.2469
   609.12         65.1858
   609.26         65.1196
   609.40         65.0471
   609.54         64.9759
   609.68         64.9193
   609.82         64.8861
   609.96         64.8782
   610.10         64.8902
   610.24         64.9096
   610.38         64.9253
   610.52         64.9338
   610.66         64.9361
   610.80         64.9348
   610.94         64.9351
   611.08         64.9430
   611.22         64.9595
   611.36         64.9790
   611.50         64.9953
   611.64         65.0060
   611.78         65.0136
   611.92         65.0241
   612.06         65.0409
   612.20         65.0571
   612.34         65.0573
   612.48         65.0220
   612.62         64.9403
   612.76         64.8141
   612.90         64.6516
   613.04         64.4670
   613.18         64.2801
   613.32         64.1110
   613.46         63.9748
   613.60         63.8770
   613.74         63.8176
   613.88         63.7958
   614.02         63.8100
   614.16         63.8584
   614.30         63.9353
   614.44         64.0268
   614.58         64.1147
   614.72         64.1826
   614.86         64.2196
   615.00         64.2177
   615.14         64.1758
   615.28         64.1012
   615.42         64.0069
   615.56         63.9053
   615.70         63.8048
   615.84         63.7088
   615.98         63.6154
   616.12         63.5195
   616.26         63.4171
   616.40         63.3095
   616.54         63.1999
   616.68         63.0898
   616.82         62.9793
   616.96         62.8684
   617.10         62.7620
   617.24         62.6711
   617.38         62.6077
   617.52         62.5746
   617.66         62.5673
   617.80         62.5817
   617.94         62.6146
   618.08         62.6598
   618.22         62.7072
   618.36         62.7477
   618.50         62.7809
   618.64         62.8137
   618.78         62.8521
   618.92         62.8972
   619.06         62.9461
   619.20         62.9921
   619.34         63.0309
   619.48         63.0661
   619.62         63.1068
   619.76         63.1613
   619.90         63.2322
   620.04         63.3148
   620.18         63.4002
   620.32         63.4804
   620.46         63.5501
   620.60         63.6040
   620.74         63.6348
   620.88         63.6354
   621.02         63.6012
   621.16         63.5293
   621.30         63.4192
   621.44         63.2745
   621.58         63.1054
   621.72         62.9258
   621.86         62.7513
   622.00         62.5993
   622.14         62.4822
   622.28         62.3990
   622.42         62.3372
   622.56         62.2773
   622.70         62.1961
   622.84         62.0787
   622.98         61.9251
   623.12         61.7420
   623.26         61.5353
   623.40         61.3075
   623.54         61.0622
   623.68         60.8094
   623.82         60.5654
   623.96         60.3468
   624.10         60.1672
   624.24         60.0365
   624.38         59.9595
   624.52         59.9360
   624.66         59.9668
   624.80         60.0521
   624.94         60.1888
   625.08         60.3705
   625.22         60.5858
   625.36         60.8229
   625.50         61.0752
   625.64         61.3336
   625.78         61.5761
   625.92         61.7751
   626.06         61.9093
   626.20         61.9728
   626.34         61.9707
   626.48         61.9067
   626.62         61.7771
   626.76         61.5764
   626.90         61.3024
   627.04         60.9596
   627.18         60.5593
   627.32         60.1202
   627.46         59.6658
   627.60         59.2255
   627.74         58.8315
   627.88         58.5121
   628.02         58.2893
   628.16         58.1749
   628.30         58.1680
   628.44         58.2578
   628.58         58.4283
   628.72         58.6610
   628.86         58.9327
   629.00         59.2119
   629.14         59.4653
   629.28         59.6665
   629.42         59.8015
   629.56         59.8718
   629.70         59.8894
   629.84         59.8684
   629.98         59.8214
   630.12         59.7606
   630.26         59.6948
   630.40         59.6262
   630.54         59.5513
   630.68         59.4666
   630.82         59.3720
   630.96         59.2730
   631.10         59.1817
   631.24         59.1125
   631.38         59.0774
   631.52         59.0841
   631.66         59.1353
   631.80         59.2299
   631.94         59.3601
   632.08         59.5099
   632.22         59.6609
   632.36         59.7982
   632.50         59.9093
   632.64         59.9847
   632.78         60.0205
   632.92         60.0168
   633.06         59.9744
   633.20         59.8949
   633.34         59.7821
   633.48         59.6410
   633.62         59.4784
   633.76         59.3034
   633.90         59.1273
   634.04         58.9623
   634.18         58.8198
   634.32         58.7095
   634.46         58.6390
   634.60         58.6105
   634.74         58.6222
   634.88         58.6726
   635.02         58.7557
   635.16         58.8555
   635.30         58.9515
   635.44         59.0270
   635.58         59.0698
   635.72         59.0712
   635.86         59.0242
   636.00         58.9259
   636.14         58.7861
   636.28         58.6285
   636.42         58.4796
   636.56         58.3582
   636.70         58.2715
   636.84         58.2196
   636.98         58.2005
   637.12         58.2088
   637.26         58.2351
   637.40         58.2705
   637.54         58.3076
   637.68         58.3405
   637.82         58.3668
   637.96         58.3876
   638.10         58.4037
   638.24         58.4149
   638.38         58.4217
   638.52         58.4269
   638.66         58.4365
   638.80         58.4563
   638.94         58.4888
   639.08         58.5306
   639.22         58.5735
   639.36         58.6091
   639.50         58.6316
   639.64         58.6373
   639.78         58.6230
   639.92         58.5881
   640.06         58.5361
   640.20         58.4721
   640.34         58.4004
   640.48         58.3212
   640.62         58.2348
   640.76         58.1447
   640.90         58.0546
   641.04         57.9665
   641.18         57.8825
   641.32         57.8077
   641.46         57.7502
   641.60         57.7185
   641.74         57.7132
   641.88         57.7247
   642.02         57.7408
   642.16         57.7517
   642.30         57.7523
   642.44         57.7436
   642.58         57.7268
   642.72         57.6971
   642.86         57.6484
   643.00         57.5765
   643.14         57.4853
   643.28         57.3877
   643.42         57.2961
   643.56         57.2177
   643.70         57.1546
   643.84         57.1076
   643.98         57.0773
   644.12         57.0590
   644.26         57.0397
   644.40         56.9988
   644.54         56.9185
   644.68         56.7960
   644.82         56.6435
   644.96         56.4771
   645.10         56.3070
   645.24         56.1383
   645.38         55.9795
   645.52         55.8462
   645.66         55.7541
   645.80         55.7143
   645.94         55.7291
   646.08         55.7939
   646.22         55.9026
   646.36         56.0482
   646.50         56.2238
   646.64         56.4207
   646.78         56.6241
   646.92         56.8174
   647.06         56.9872
   647.20         57.1291
   647.34         57.2451
   647.48         57.3364
   647.62         57.4017
   647.76         57.4397
   647.90         57.4505
   648.04         57.4360
   648.18         57.3972
   648.32         57.3345
   648.46         57.2468
   648.60         57.1344
   648.74         57.0041
   648.88         56.8700
   649.02         56.7484
   649.16         56.6539
   649.30         56.5990
   649.44         56.5916
   649.58         56.6346
   649.72         56.7271
   649.86         56.8659
   650.00         57.0468
   650.14         57.2600
   650.28         57.4851
   650.42         57.6923
   650.56         57.8550
   650.70         57.9564
   650.84         57.9901
   650.98         57.9609
   651.12         57.8805
   651.26         57.7686
   651.40         57.6513
   651.54         57.5539
   651.68         57.4928
   651.82         57.4754
   651.96         57.5027
   652.10         57.5683
   652.24         57.6606
   652.38         57.7672
   652.52         57.8759
   652.66         57.9721
   652.80         58.0378
   652.94         58.0581
   653.08         58.0268
   653.22         57.9442
   653.36         57.8120
   653.50         57.6329
   653.64         57.4086
   653.78         57.1394
   653.92         56.8277
   654.06         56.4749
   654.20         56.0749
   654.34         55.6137
   654.48         55.0716
   654.62         54.4271
   654.76         53.6574
   654.90         52.7348
   655.04         51.6312
   655.18         50.3308
   655.32         48.8489
   655.46         47.2420
   655.60         45.6000
   655.74         44.0313
   655.88         42.6467
   656.02         41.5471
   656.16         40.8167
   656.30         40.5125
   656.44         40.6580
   656.58         41.2385
   656.72         42.1998
   656.86         43.4588
   657.00         44.9167
   657.14         46.4665
   657.28         47.9998
   657.42         49.4183
   657.56         50.6503
   657.70         51.6650
   657.84         52.4711
   657.98         53.1005
   658.12         53.5889
   658.26         53.9649
   658.40         54.2520
   658.54         54.4691
   658.68         54.6323
   658.82         54.7577
   658.96         54.8596
   659.10         54.9465
   659.24         55.0193
   659.38         55.0747
   659.52         55.1113
   659.66         55.1287
   659.80         55.1252
   659.94         55.1000
   660.08         55.0590
   660.22         55.0113
   660.36         54.9641
   660.50         54.9200
   660.64         54.8798
   660.78         54.8453
   660.92         54.8182
   661.06         54.7997
   661.20         54.7870
   661.34         54.7774
   661.48         54.7714
   661.62         54.7688
   661.76         54.7676
   661.90         54.7646
   662.04         54.7602
   662.18         54.7599
   662.32         54.7687
   662.46         54.7887
   662.60         54.8204
   662.74         54.8627
   662.88         54.9136
   663.02         54.9698
   663.16         55.0258
   663.30         55.0745
   663.44         55.1071
   663.58         55.1156
   663.72         55.0960
   663.86         55.0501
   664.00         54.9838
   664.14         54.9033
   664.28         54.8143
   664.42         54.7236
   664.56         54.6358
   664.70         54.5546
   664.84         54.4839
   664.98         54.4257
   665.12         54.3826
   665.26         54.3550
   665.40         54.3381
   665.54         54.3251
   665.68         54.3065
   665.82         54.2733
   665.96         54.2204
   666.10         54.1459
   666.24         54.0498
   666.38         53.9343
   666.52         53.8021
   666.66         53.6550
   666.80         53.4967
   666.94         53.3361
   667.08         53.1834
   667.22         53.0469
   667.36         52.9338
   667.50         52.8487
   667.64         52.7911
   667.78         52.7564
   667.92         52.7371
   668.06         52.7277
   668.20         52.7276
   668.34         52.7381
   668.48         52.7607
   668.62         52.7956
   668.76         52.8394
   668.90         52.8858
   669.04         52.9298
   669.18         52.9673
   669.32         52.9933
   669.46         53.0041
   669.60         52.9993
   669.74         52.9792
   669.88         52.9442
   670.02         52.8959
   670.16         52.8385
   670.30         52.7780
   670.44         52.7205
   670.58         52.6697
   670.72         52.6243
   670.86         52.5785
   671.00         52.5241
   671.14         52.4532
   671.28         52.3605
   671.42         52.2438
   671.56         52.1051
   671.70         51.9540
   671.84         51.8040
   671.98         51.6677
   672.12         51.5551
   672.26         51.4743
   672.40         51.4289
   672.54         51.4164
   672.68         51.4311
   672.82         51.4644
   672.96         51.5066
   673.10         51.5480
   673.24         51.5802
   673.38         51.5962
   673.52         51.5934
   673.66         51.5739
   673.80         51.5418
   673.94         51.5006
   674.08         51.4516
   674.22         51.3938
   674.36         51.3260
   674.50         51.2480
   674.64         51.1628
   674.78         51.0778
   674.92         51.0055
   675.06         50.9570
   675.20         50.9404
   675.34         50.9611
   675.48         51.0191
   675.62         51.1125
   675.76         51.2385
   675.90         51.3916
   676.04         51.5624
   676.18         51.7374
   676.32         51.8993
   676.46         52.0296
   676.60         52.1104
   676.74         52.1290
   676.88         52.0831
   677.02         51.9823
   677.16         51.8441
   677.30         51.6893
   677.44         51.5381
   677.58         51.4072
   677.72         51.3066
   677.86         51.2416
   678.00         51.2126
   678.14         51.2153
   678.28         51.2430
   678.42         51.2853
   678.56         51.3272
   678.70         51.3527
   678.84         51.3486
   678.98         51.3074
   679.12         51.2291
   679.26         51.1195
   679.40         50.9902
   679.54         50.8558
   679.68         50.7291
   679.82         50.6179
   679.96         50.5263
   680.10         50.4562
   680.24         50.4084
   680.38         50.3812
   680.52         50.3689
   680.66         50.3629
   680.80         50.3555
   680.94         50.3415
   681.08         50.3193
   681.22         50.2896
   681.36         50.2556
   681.50         50.2202
   681.64         50.1861
   681.78         50.1536
   681.92         50.1204
   682.06         50.0839
   682.20         50.0413
   682.34         49.9896
   682.48         49.9267
   682.62         49.8516
   682.76         49.7643
   682.90         49.6626
   683.04         49.5437
   683.18         49.4098
   683.32         49.2699
   683.46         49.1345
   683.60         49.0115
   683.74         48.9073
   683.88         48.8278
   684.02         48.7773
   684.16         48.7574
   684.30         48.7671
   684.44         48.8037
   684.58         48.8644
   684.72         48.9451
   684.86         49.0370
   685.00         49.1290
   685.14         49.2080
   685.28         49.2597
   685.42         49.2671
   685.56         49.2013
   685.70         49.0200
   685.84         48.6803
   685.98         48.1503
   686.12         47.4166
   686.26         46.4903
   686.40         45.4092
   686.54         44.2308
   686.68         43.0271
   686.82         41.8801
   686.96         40.8749
   687.10         40.0871
   687.24         39.5702
   687.38         39.3465
   687.52         39.4070
   687.66         39.7144
   687.80         40.2058
   687.94         40.8017
   688.08         41.4162
   688.22         41.9710
   688.36         42.4133
   688.50         42.7240
   688.64         42.9110
   688.78         42.9975
   688.92         43.0147
   689.06         42.9969
   689.20         42.9775
   689.34         42.9852
   689.48         43.0395
   689.62         43.1465
   689.76         43.2974
   689.90         43.4753
   690.04         43.6643
   690.18         43.8525
   690.32         44.0331
   690.46         44.2037
   690.60         44.3659
   690.74         44.5236
   690.88         44.6825
   691.02         44.8476
   691.16         45.0200
   691.30         45.1995
   691.44         45.3849
   691.58         45.5722
   691.72         45.7552
   691.86         45.9252
   692.00         46.0756
   692.14         46.2012
   692.28         46.2971
   692.42         46.3617
   692.56         46.3991
   692.70         46.4155
   692.84         46.4163
   692.98         46.4069
   693.12         46.3937
   693.26         46.3846
   693.40         46.3868
   693.54         46.4041
   693.68         46.4366
   693.82         46.4841
   693.96         46.5476
   694.10         46.6264
   694.24         46.7164
   694.38         46.8124
   694.52         46.9102
   694.66         47.0062
   694.80         47.0943
   694.94         47.1676
   695.08         47.2206
   695.22         47.2497
   695.36         47.2546
   695.50         47.2396
   695.64         47.2128
   695.78         47.1824
   695.92         47.1543
   696.06         47.1326
   696.20         47.1202
   696.34         47.1178
   696.48         47.1260
   696.62         47.1427
   696.76         47.1615
   696.90         47.1741
   697.04         47.1735
   697.18         47.1544
   697.32         47.1145
   697.46         47.0561
   697.60         46.9847
   697.74         46.9071
   697.88         46.8283
   698.02         46.7495
   698.16         46.6692
   698.30         46.5861
   698.44         46.4986
   698.58         46.4036
   698.72         46.2976
   698.86         46.1785
   699.00         46.0489
   699.14         45.9163
   699.28         45.7889
   699.42         45.6761
   699.56         45.5891
   699.70         45.5371
   699.84         45.5223
   699.98         45.5433
   700.12         45.5978
   700.26         45.6797
   700.40         45.7799
   700.54         45.8900
   700.68         46.0035
   700.82         46.1153
   700.96         46.2196
   701.10         46.3074
   701.24         46.3709
   701.38         46.4088
   701.52         46.4259
   701.66         46.4274
   701.80         46.4180
   701.94         46.4034
   702.08         46.3886
   702.22         46.3774
   702.36         46.3717
   702.50         46.3719
   702.64         46.3788
   702.78         46.3926
   702.92         46.4132
   703.06         46.4413
   703.20         46.4755
   703.34         46.5113
   703.48         46.5456
   703.62         46.5768
   703.76         46.6022
   703.90         46.6191
   704.04         46.6246
   704.18         46.6164
   704.32         46.5945
   704.46         46.5613
   704.60         46.5191
   704.74         46.4697
   704.88         46.4178
   705.02         46.3700
   705.16         46.3302
   705.30         46.2997
   705.44         46.2801
   705.58         46.2725
   705.72         46.2749
   705.86         46.2834
   706.00         46.2962
   706.14         46.3122
   706.28         46.3273
   706.42         46.3365
   706.56         46.3385
   706.70         46.3344
   706.84         46.3268
   706.98         46.3206
   707.12         46.3214
   707.26         46.3322
   707.40         46.3524
   707.54         46.3798
   707.68         46.4097
   707.82         46.4383
   707.96         46.4661
   708.10         46.4946
   708.24         46.5253
   708.38         46.5586
   708.52         46.5901
   708.66         46.6093
   708.80         46.6041
   708.94         46.5660
   709.08         46.4908
   709.22         46.3788
   709.36         46.2343
   709.50         46.0661
   709.64         45.8849
   709.78         45.7006
   709.92         45.5209
   710.06         45.3536
   710.20         45.2056
   710.34         45.0814
   710.48         44.9834
   710.62         44.9098
   710.76         44.8556
   710.90         44.8176
   711.04         44.7959
   711.18         44.7892
   711.32         44.7968
   711.46         44.8208
   711.60         44.8653
   711.74         44.9334
   711.88         45.0250
   712.02         45.1365
   712.16         45.2645
   712.30         45.4060
   712.44         45.5559
   712.58         45.7058
   712.72         45.8470
   712.86         45.9717
   713.00         46.0736
   713.14         46.1491
   713.28         46.1957
   713.42         46.2132
   713.56         46.2055
   713.70         46.1789
   713.84         46.1389
   713.98         46.0917
   714.12         46.0455
   714.26         46.0089
   714.40         45.9875
   714.54         45.9850
   714.68         46.0044
   714.82         46.0413
   714.96         46.0837
   715.10         46.1184
   715.24         46.1346
   715.38         46.1245
   715.52         46.0812
   715.66         46.0020
   715.80         45.8904
   715.94         45.7515
   716.08         45.5872
   716.22         45.3975
   716.36         45.1832
   716.50         44.9464
   716.64         44.6894
   716.78         44.4163
   716.92         44.1314
   717.06         43.8395
   717.20         43.5448
   717.34         43.2447
   717.48         42.9344
   717.62         42.6200
   717.76         42.3175
   717.90         42.0393
   718.04         41.7909
   718.18         41.5766
   718.32         41.4024
   718.46         41.2721
   718.60         41.1857
   718.74         41.1413
   718.88         41.1384
   719.02         41.1776
   719.16         41.2561
   719.30         41.3657
   719.44         41.4934
   719.58         41.6279
   719.72         41.7634
   719.86         41.8983
   720.00         42.0349
   720.14         42.1832
   720.28         42.3572
   720.42         42.5652
   720.56         42.8045
   720.70         43.0661
   720.84         43.3416
   720.98         43.6207
   721.12         43.8875
   721.26         44.1242
   721.40         44.3158
   721.54         44.4513
   721.68         44.5254
   721.82         44.5374
   721.96         44.4911
   722.10         44.3955
   722.24         44.2642
   722.38         44.1147
   722.52         43.9660
   722.66         43.8349
   722.80         43.7280
   722.94         43.6396
   723.08         43.5580
   723.22         43.4719
   723.36         43.3739
   723.50         43.2606
   723.64         43.1328
   723.78         42.9928
   723.92         42.8418
   724.06         42.6769
   724.20         42.4922
   724.34         42.2857
   724.48         42.0633
   724.62         41.8349
   724.76         41.6147
   724.90         41.4227
   725.04         41.2785
   725.18         41.1928
   725.32         41.1627
   725.46         41.1774
   725.60         41.2269
   725.74         41.3061
   725.88         41.4096
   726.02         41.5268
   726.16         41.6436
   726.30         41.7466
   726.44         41.8189
   726.58         41.8434
   726.72         41.8158
   726.86         41.7482
   727.00         41.6598
   727.14         41.5666
   727.28         41.4804
   727.42         41.4118
   727.56         41.3656
   727.70         41.3364
   727.84         41.3134
   727.98         41.2877
   728.12         41.2542
   728.26         41.2090
   728.40         41.1484
   728.54         41.0709
   728.68         40.9789
   728.82         40.8790
   728.96         40.7786
   729.10         40.6818
   729.24         40.5946
   729.38         40.5261
   729.52         40.4808
   729.66         40.4559
   729.80         40.4458
   729.94         40.4463
   730.08         40.4531
   730.22         40.4616
   730.36         40.4673
   730.50         40.4678
   730.64         40.4636
   730.78         40.4561
   730.92         40.4488
   731.06         40.4466
   731.20         40.4534
   731.34         40.4689
   731.48         40.4886
   731.62         40.5062
   731.76         40.5146
   731.90         40.5083
   732.04         40.4845
   732.18         40.4389
   732.32         40.3665
   732.46         40.2667
   732.60         40.1434
   732.74         40.0052
   732.88         39.8622
   733.02         39.7208
   733.16         39.5851
   733.30         39.4606
   733.44         39.3525
   733.58         39.2622
   733.72         39.1854
   733.86         39.1136
   734.00         39.0409
   734.14         38.9670
   734.28         38.8944
   734.42         38.8239
   734.56         38.7558
   734.70         38.6933
   734.84         38.6410
   734.98         38.6035
   735.12         38.5843
   735.26         38.5832
   735.40         38.5992
   735.54         38.6296
   735.68         38.6678
   735.82         38.7065
   735.96         38.7389
   736.10         38.7604
   736.24         38.7679
   736.38         38.7603
   736.52         38.7413
   736.66         38.7196
   736.80         38.7022
   736.94         38.6914
   737.08         38.6833
   737.22         38.6730
   737.36         38.6555
   737.50         38.6246
   737.64         38.5769
   737.78         38.5161
   737.92         38.4513
   738.06         38.3948
   738.20         38.3566
   738.34         38.3411
   738.48         38.3482
   738.62         38.3735
   738.76         38.4115
   738.90         38.4587
   739.04         38.5149
   739.18         38.5840
   739.32         38.6685
   739.46         38.7670
   739.60         38.8727
   739.74         38.9729
   739.88         39.0549
   740.02         39.1091
   740.16         39.1302
   740.30         39.1177
   740.44         39.0737
   740.58         39.0033
   740.72         38.9145
   740.86         38.8159
   741.00         38.7181
   741.14         38.6344
   741.28         38.5779
   741.42         38.5564
   741.56         38.5695
   741.70         38.6093
   741.84         38.6619
   741.98         38.7120
   742.12         38.7499
   742.26         38.7700
   742.40         38.7717
   742.54         38.7611
   742.68         38.7471
   742.82         38.7380
   742.96         38.7380
   743.10         38.7471
   743.24         38.7611
   743.38         38.7717
   743.52         38.7700
   743.66         38.7499
   743.80         38.7120
   743.94         38.6619
   744.08         38.6093
   744.22         38.5695
