# File HD8992
# Wavelength [nm]    Normalized Amplitude
   349.70         118.6121
   349.84         117.4820
   349.98         116.5140
   350.12         115.6868
   350.26         115.0109
   350.40         114.5302
   350.54         114.2609
   350.68         114.1674
   350.82         114.1836
   350.96         114.2308
   351.10         114.2522
   351.24         114.2308
   351.38         114.1836
   351.52         114.1674
   351.66         114.2609
   351.80         114.5302
   351.94         115.0109
   352.08         115.6868
   352.22         116.5140
   352.36         117.4820
   352.50         118.6121
   352.64         119.9265
   352.78         121.4380
   352.92         123.1452
   353.06         125.0119
   353.20         126.9561
   353.34         128.8986
   353.48         130.7867
   353.62         132.5704
   353.76         134.1923
   353.90         135.5835
   354.04         136.6645
   354.18         137.3723
   354.32         137.6852
   354.46         137.6203
   354.60         137.2144
   354.74         136.5088
   354.88         135.5745
   355.02         134.5240
   355.16         133.4469
   355.30         132.3689
   355.44         131.2857
   355.58         130.1865
   355.72         129.0394
   355.86         127.7913
   356.00         126.3891
   356.14         124.7989
   356.28         123.0276
   356.42         121.1306
   356.56         119.2022
   356.70         117.3656
   356.84         115.7753
   356.98         114.5800
   357.12         113.8380
   357.26         113.4884
   357.40         113.4011
   357.54         113.4452
   357.68         113.5273
   357.82         113.5843
   357.96         113.5938
   358.10         113.5886
   358.24         113.6332
   358.38         113.8106
   358.52         114.2273
   358.66         114.9921
   358.80         116.1726
   358.94         117.7636
   359.08         119.6869
   359.22         121.8191
   359.36         124.0080
   359.50         126.0912
   359.64         127.8876
   359.78         129.1949
   359.92         129.8668
   360.06         129.8813
   360.20         129.3385
   360.34         128.4180
   360.48         127.3073
   360.62         126.1619
   360.76         125.1112
   360.90         124.2743
   361.04         123.7595
   361.18         123.6393
   361.32         123.9540
   361.46         124.7286
   361.60         125.9343
   361.74         127.4293
   361.88         128.9785
   362.02         130.3379
   362.16         131.3138
   362.30         131.7776
   362.44         131.7043
   362.58         131.1935
   362.72         130.4193
   362.86         129.5656
   363.00         128.7730
   363.14         128.1174
   363.28         127.6390
   363.42         127.3687
   363.56         127.3240
   363.70         127.4927
   363.84         127.8305
   363.98         128.2901
   364.12         128.8199
   364.26         129.3493
   364.40         129.8572
   364.54         130.4520
   364.68         131.3204
   364.82         132.6053
   364.96         134.3500
   365.10         136.5134
   365.24         138.9836
   365.38         141.5685
   365.52         144.0157
   365.66         146.0848
   365.80         147.6157
   365.94         148.5549
   366.08         148.9410
   366.22         148.8760
   366.36         148.4942
   366.50         147.9366
   366.64         147.3306
   366.78         146.7796
   366.92         146.3713
   367.06         146.1706
   367.20         146.1843
   367.34         146.3490
   367.48         146.5794
   367.62         146.8556
   367.76         147.2627
   367.90         147.9307
   368.04         148.9712
   368.18         150.4683
   368.32         152.4675
   368.46         154.9407
   368.60         157.8014
   368.74         160.9680
   368.88         164.3539
   369.02         167.8125
   369.16         171.1178
   369.30         173.9970
   369.44         176.2163
   369.58         177.6438
   369.72         178.2323
   369.86         178.0167
   370.00         177.1465
   370.14         175.9044
   370.28         174.6992
   370.42         173.9880
   370.56         174.1485
   370.70         175.3715
   370.84         177.6067
   370.98         180.6033
   371.12         184.0362
   371.26         187.6212
   371.40         191.1267
   371.54         194.3115
   371.68         196.9238
   371.82         198.7707
   371.96         199.7603
   372.10         199.8792
   372.24         199.1475
   372.38         197.6236
   372.52         195.4849
   372.66         193.0888
   372.80         190.9121
   372.94         189.4147
   373.08         188.9029
   373.22         189.4416
   373.36         190.8589
   373.50         192.8205
   373.64         194.9380
   373.78         196.8702
   373.92         198.3847
   374.06         199.3941
   374.20         199.9647
   374.34         200.2589
   374.48         200.4314
   374.62         200.5853
   374.76         200.8239
   374.90         201.3291
   375.04         202.3805
   375.18         204.2601
   375.32         207.1004
   375.46         210.7683
   375.60         214.8600
   375.74         218.8021
   375.88         222.0077
   376.02         224.0443
   376.16         224.7440
   376.30         224.2611
   376.44         223.0760
   376.58         221.8940
   376.72         221.4502
   376.86         222.3145
   377.00         224.7860
   377.14         228.9176
   377.28         234.6156
   377.42         241.6306
   377.56         249.5360
   377.70         257.7786
   377.84         265.7039
   377.98         272.6211
   378.12         277.8798
   378.26         280.9345
   378.40         281.4183
   378.54         279.2172
   378.68         274.5305
   378.82         267.8856
   378.96         260.1017
   379.10         252.1889
   379.24         245.1667
   379.38         239.8628
   379.52         236.8024
   379.66         236.2607
   379.80         238.3117
   379.94         242.7636
   380.08         249.1172
   380.22         256.6643
   380.36         264.6791
   380.50         272.5254
   380.64         279.6504
   380.78         285.5626
   380.92         289.8962
   381.06         292.5109
   381.20         293.4843
   381.34         293.0398
   381.48         291.4772
   381.62         289.0804
   381.76         286.0167
   381.90         282.2841
   382.04         277.7525
   382.18         272.2619
   382.32         265.7210
   382.46         258.1627
   382.60         249.7729
   382.74         240.9219
   382.88         232.1795
   383.02         224.2791
   383.16         217.9573
   383.30         213.7758
   383.44         212.0756
   383.58         212.9990
   383.72         216.4683
   383.86         222.1713
   384.00         229.6665
   384.14         238.4683
   384.28         248.0321
   384.42         257.7542
   384.56         267.0443
   384.70         275.4449
   384.84         282.7288
   384.98         288.9251
   385.12         294.2762
   385.26         299.0882
   385.40         303.6183
   385.54         308.0827
   385.68         312.6359
   385.82         317.2950
   385.96         321.8731
   386.10         326.0366
   386.24         329.4569
   386.38         331.9095
   386.52         333.2863
   386.66         333.5665
   386.80         332.7700
   386.94         330.9175
   387.08         328.0201
   387.22         324.0762
   387.36         319.0795
   387.50         313.0205
   387.64         305.8842
   387.78         297.6994
   387.92         288.6185
   388.06         278.9489
   388.20         269.0986
   388.34         259.5017
   388.48         250.5982
   388.62         242.8612
   388.76         236.8212
   388.90         232.9930
   389.04         231.7055
   389.18         232.9574
   389.32         236.4308
   389.46         241.6064
   389.60         247.8750
   389.74         254.6514
   389.88         261.4504
   390.02         267.8772
   390.16         273.5904
   390.30         278.3264
   390.44         281.9327
   390.58         284.3439
   390.72         285.5286
   390.86         285.4809
   391.00         284.2529
   391.14         281.9327
   391.28         278.5729
   391.42         274.1388
   391.56         268.4814
   391.70         261.3321
   391.84         252.3699
   391.98         241.3602
   392.12         228.2652
   392.26         213.2701
   392.40         196.7676
   392.54         179.3417
   392.68         161.7628
   392.82         144.9812
   392.96         130.0699
   393.10         118.0943
   393.24         109.9868
   393.38         106.4305
   393.52         107.7332
   393.66         113.7502
   393.80         123.8936
   393.94         137.2339
   394.08         152.6604
   394.22         169.0293
   394.36         185.2618
   394.50         200.4357
   394.64         213.8685
   394.78         225.1141
   394.92         233.8857
   395.06         239.9783
   395.20         243.2129
   395.34         243.3975
   395.48         240.3311
   395.62         233.8936
   395.76         224.2044
   395.90         211.7215
   396.04         197.2269
   396.18         181.7732
   396.32         166.6192
   396.46         153.1344
   396.60         142.6565
   396.74         136.3136
   396.88         134.8557
   397.02         138.5550
   397.16         147.2127
   397.30         160.2185
   397.44         176.6145
   397.58         195.1853
   397.72         214.6218
   397.86         233.7167
   398.00         251.5080
   398.14         267.3366
   398.28         280.8404
   398.42         291.9151
   398.56         300.6614
   398.70         307.3642
   398.84         312.4358
   398.98         316.2869
   399.12         319.2275
   399.26         321.4425
   399.40         323.0560
   399.54         324.2230
   399.68         325.1582
   399.82         326.1115
   399.96         327.3171
   400.10         328.9420
   400.24         331.0672
   400.38         333.7212
   400.52         336.8927
   400.66         340.5169
   400.80         344.4490
   400.94         348.4578
   401.08         352.2801
   401.22         355.6996
   401.36         358.5991
   401.50         360.8967
   401.64         362.4538
   401.78         363.0672
   401.92         362.5758
   402.06         360.9847
   402.20         358.4637
   402.34         355.2868
   402.48         351.8063
   402.62         348.4039
   402.76         345.4213
   402.90         343.1251
   403.04         341.6692
   403.18         341.0635
   403.32         341.1970
   403.46         341.8907
   403.60         342.9590
   403.74         344.2450
   403.88         345.6019
   404.02         346.8400
   404.16         347.6804
   404.30         347.8424
   404.44         347.2049
   404.58         345.9059
   404.72         344.2819
   404.86         342.6741
   405.00         341.2906
   405.14         340.1796
   405.28         339.2764
   405.42         338.4731
   405.56         337.6887
   405.70         336.8872
   405.84         336.0523
   405.98         335.2009
   406.12         334.3471
   406.26         333.3831
   406.40         332.0516
   406.54         330.0826
   406.68         327.4005
   406.82         324.1903
   406.96         320.7965
   407.10         317.5560
   407.24         314.7147
   407.38         312.4552
   407.52         310.9201
   407.66         310.2549
   407.80         310.6195
   407.94         312.1228
   408.08         314.7295
   408.22         318.2258
   408.36         322.2144
   408.50         326.1223
   408.64         329.2726
   408.78         330.9421
   408.92         330.4906
   409.06         327.6113
   409.20         322.4706
   409.34         315.6086
   409.48         307.6983
   409.62         299.4111
   409.76         291.4375
   409.90         284.5174
   410.04         279.3901
   410.18         276.6684
   410.32         276.7055
   410.46         279.5055
   410.60         284.7068
   410.74         291.6567
   410.88         299.5339
   411.02         307.4638
   411.16         314.6543
   411.30         320.5100
   411.44         324.6746
   411.58         327.0485
   411.72         327.7721
   411.86         327.1163
   412.00         325.3902
   412.14         322.9497
   412.28         320.2235
   412.42         317.7017
   412.56         315.8959
   412.70         315.2631
   412.84         316.0726
   412.98         318.2936
   413.12         321.6424
   413.26         325.7509
   413.40         330.2811
   413.54         334.9209
   413.68         339.3516
   413.82         343.2699
   413.96         346.4049
   414.10         348.5254
   414.24         349.4797
   414.38         349.2532
   414.52         347.9948
   414.66         345.9924
   414.80         343.6097
   414.94         341.2229
   415.08         339.1897
   415.22         337.8148
   415.36         337.2795
   415.50         337.6111
   415.64         338.7306
   415.78         340.4840
   415.92         342.5888
   416.06         344.5869
   416.20         345.9364
   416.34         346.1608
   416.48         344.9295
   416.62         342.0853
   416.76         337.6915
   416.90         332.0488
   417.04         325.6469
   417.18         319.0757
   417.32         312.9180
   417.46         307.6774
   417.60         303.7586
   417.74         301.4491
   417.88         300.8778
   418.02         302.0010
   418.16         304.6243
   418.30         308.3881
   418.44         312.7557
   418.58         317.1402
   418.72         321.0844
   418.86         324.3099
   419.00         326.6408
   419.14         327.9435
   419.28         328.1637
   419.42         327.3824
   419.56         325.8017
   419.70         323.7054
   419.84         321.4542
   419.98         319.4675
   420.12         318.1529
   420.26         317.8093
   420.40         318.5814
   420.54         320.4676
   420.68         323.3402
   420.82         326.9435
   420.96         330.8859
   421.10         334.6873
   421.24         337.8548
   421.38         339.9481
   421.52         340.6807
   421.66         340.0308
   421.80         338.2568
   421.94         335.7603
   422.08         332.9306
   422.22         330.0885
   422.36         327.4774
   422.50         325.2692
   422.64         323.5608
   422.78         322.3890
   422.92         321.7750
   423.06         321.7612
   423.20         322.3626
   423.34         323.4776
   423.48         324.8660
   423.62         326.2327
   423.76         327.3288
   423.90         328.0238
   424.04         328.3740
   424.18         328.5923
   424.32         328.9051
   424.46         329.4012
   424.60         329.9912
   424.74         330.5230
   424.88         330.9322
   425.02         331.2952
   425.16         331.7912
   425.30         332.6396
   425.44         334.0053
   425.58         335.9032
   425.72         338.1626
   425.86         340.4483
   426.00         342.3796
   426.14         343.6764
   426.28         344.2365
   426.42         344.1163
   426.56         343.4824
   426.70         342.5477
   426.84         341.4892
   426.98         340.4099
   427.12         339.3576
   427.26         338.3593
   427.40         337.4441
   427.54         336.6420
   427.68         335.9068
   427.82         335.0818
   427.96         333.9672
   428.10         332.3734
   428.24         330.1643
   428.38         327.3000
   428.52         323.8480
   428.66         319.9578
   428.80         315.7963
   428.94         311.4833
   429.08         307.1148
   429.22         302.8003
   429.36         298.6523
   429.50         294.7905
   429.64         291.3661
   429.78         288.5945
   429.92         286.7202
   430.06         285.9106
   430.20         286.1835
   430.34         287.4553
   430.48         289.6638
   430.62         292.7721
   430.76         296.6546
   430.90         301.0683
   431.04         305.7185
   431.18         310.2905
   431.32         314.4487
   431.46         317.9414
   431.60         320.7029
   431.74         322.8182
   431.88         324.3910
   432.02         325.4702
   432.16         326.0675
   432.30         326.1531
   432.44         325.5990
   432.58         324.1089
   432.72         321.2693
   432.86         316.7502
   433.00         310.5028
   433.14         302.7926
   433.28         294.1241
   433.42         285.1571
   433.56         276.6387
   433.70         269.3101
   433.84         263.7656
   433.98         260.3937
   434.12         259.4446
   434.26         261.0390
   434.40         265.0884
   434.54         271.2714
   434.68         279.0804
   434.82         287.8889
   434.96         297.0339
   435.10         305.9340
   435.24         314.1868
   435.38         321.6004
   435.52         328.1434
   435.66         333.8652
   435.80         338.8423
   435.94         343.1281
   436.08         346.6851
   436.22         349.3498
   436.36         350.9420
   436.50         351.4339
   436.64         351.0286
   436.78         350.0995
   436.92         349.0121
   437.06         347.9384
   437.20         346.8140
   437.34         345.4758
   437.48         343.8282
   437.62         341.8817
   437.76         339.6879
   437.90         337.2778
   438.04         334.6534
   438.18         331.8264
   438.32         328.8751
   438.46         325.9596
   438.60         323.2389
   438.74         320.7902
   438.88         318.6593
   439.02         316.9683
   439.16         315.8655
   439.30         315.3830
   439.44         315.3975
   439.58         315.6682
   439.72         315.9278
   439.86         316.0296
   440.00         316.0291
   440.14         316.0651
   440.28         316.1572
   440.42         316.1636
   440.56         315.8988
   440.70         315.2553
   440.84         314.2352
   440.98         312.9120
   441.12         311.3993
   441.26         309.8337
   441.40         308.3687
   441.54         307.1763
   441.68         306.4111
   441.82         306.1323
   441.96         306.2725
   442.10         306.6706
   442.24         307.1433
   442.38         307.5927
   442.52         308.0770
   442.66         308.7351
   442.80         309.6191
   442.94         310.6312
   443.08         311.6057
   443.22         312.4345
   443.36         313.1102
   443.50         313.6454
   443.64         314.0201
   443.78         314.2155
   443.92         314.2446
   444.06         314.1256
   444.20         313.8533
   444.34         313.4173
   444.48         312.8352
   444.62         312.1530
   444.76         311.4237
   444.90         310.7088
   445.04         310.0835
   445.18         309.5974
   445.32         309.2031
   445.46         308.7466
   445.60         308.0694
   445.74         307.1507
   445.88         306.1759
   446.02         305.4470
   446.16         305.2391
   446.30         305.7628
   446.44         307.1674
   446.58         309.4954
   446.72         312.6098
   446.86         316.2115
   447.00         319.9601
   447.14         323.5842
   447.28         326.8985
   447.42         329.7648
   447.56         332.0618
   447.70         333.6716
   447.84         334.5107
   447.98         334.5649
   448.12         333.9035
   448.26         332.6969
   448.40         331.2237
   448.54         329.8398
   448.68         328.8536
   448.82         328.4321
   448.96         328.6302
   449.10         329.4629
   449.24         330.9217
   449.38         332.9545
   449.52         335.4971
   449.66         338.5001
   449.80         341.9136
   449.94         345.6191
   450.08         349.3657
   450.22         352.8200
   450.36         355.6834
   450.50         357.7648
   450.64         358.9572
   450.78         359.1866
   450.92         358.4035
   451.06         356.6096
   451.20         353.8760
   451.34         350.3206
   451.48         346.1012
   451.62         341.4387
   451.76         336.5963
   451.90         331.7870
   452.04         327.1319
   452.18         322.7454
   452.32         318.8164
   452.46         315.5970
   452.60         313.2916
   452.74         311.9662
   452.88         311.5806
   453.02         312.0353
   453.16         313.1679
   453.30         314.7571
   453.44         316.5386
   453.58         318.2212
   453.72         319.5380
   453.86         320.3106
   454.00         320.4365
   454.14         319.8380
   454.28         318.5150
   454.42         316.6027
   454.56         314.3341
   454.70         312.0174
   454.84         310.0164
   454.98         308.6437
   455.12         308.0498
   455.26         308.2260
   455.40         309.1033
   455.54         310.6343
   455.68         312.7604
   455.82         315.3548
   455.96         318.2284
   456.10         321.1683
   456.24         323.9798
   456.38         326.5286
   456.52         328.7199
   456.66         330.4255
   456.80         331.4897
   456.94         331.7994
   457.08         331.2999
   457.22         329.9950
   457.36         327.9699
   457.50         325.3671
   457.64         322.3524
   457.78         319.1381
   457.92         315.9925
   458.06         313.1890
   458.20         310.9469
   458.34         309.4095
   458.48         308.6586
   458.62         308.7265
   458.76         309.5851
   458.90         311.1248
   459.04         313.1637
   459.18         315.4935
   459.32         317.9271
   459.46         320.3476
   459.60         322.7307
   459.74         325.1376
   459.88         327.6621
   460.02         330.3395
   460.16         333.1004
   460.30         335.7934
   460.44         338.2439
   460.58         340.2878
   460.72         341.7967
   460.86         342.7163
   461.00         343.0674
   461.14         342.9244
   461.28         342.4071
   461.42         341.6555
   461.56         340.7934
   461.70         339.9291
   461.84         339.1729
   461.98         338.6039
   462.12         338.2300
   462.26         337.9958
   462.40         337.8225
   462.54         337.6404
   462.68         337.4137
   462.82         337.1553
   462.96         336.9165
   463.10         336.7651
   463.24         336.7586
   463.38         336.9358
   463.52         337.3089
   463.66         337.8387
   463.80         338.4426
   463.94         339.0215
   464.08         339.4705
   464.22         339.6902
   464.36         339.6155
   464.50         339.2461
   464.64         338.6630
   464.78         338.0112
   464.92         337.4473
   465.06         337.0783
   465.20         336.9230
   465.34         336.8870
   465.48         336.7710
   465.62         336.3307
   465.76         335.3583
   465.90         333.7606
   466.04         331.6190
   466.18         329.1766
   466.32         326.7555
   466.46         324.6660
   466.60         323.1363
   466.74         322.2843
   466.88         322.1333
   467.02         322.6762
   467.16         323.9162
   467.30         325.8185
   467.44         328.2327
   467.58         330.8894
   467.72         333.5018
   467.86         335.8383
   468.00         337.7215
   468.14         339.0742
   468.28         339.9591
   468.42         340.5118
   468.56         340.8568
   468.70         341.0662
   468.84         341.1305
   468.98         340.9651
   469.12         340.4562
   469.26         339.5233
   469.40         338.1424
   469.54         336.3390
   469.68         334.2021
   469.82         331.8705
   469.96         329.4989
   470.10         327.2287
   470.24         325.1731
   470.38         323.4394
   470.52         322.1350
   470.66         321.3551
   470.80         321.1881
   470.94         321.6802
   471.08         322.7891
   471.22         324.4064
   471.36         326.3828
   471.50         328.5197
   471.64         330.5884
   471.78         332.3518
   471.92         333.5909
   472.06         334.1481
   472.20         333.9718
   472.34         333.1135
   472.48         331.6811
   472.62         329.8129
   472.76         327.6687
   472.90         325.4333
   473.04         323.3290
   473.18         321.5858
   473.32         320.3825
   473.46         319.8192
   473.60         319.9111
   473.74         320.6027
   473.88         321.7957
   474.02         323.3542
   474.16         325.0971
   474.30         326.8278
   474.44         328.3632
   474.58         329.5776
   474.72         330.4209
   474.86         330.8472
   475.00         330.7637
   475.14         330.0513
   475.28         328.6340
   475.42         326.5358
   475.56         323.8966
   475.70         320.9527
   475.84         317.9678
   475.98         315.1885
   476.12         312.8371
   476.26         311.1053
   476.40         310.1530
   476.54         310.0710
   476.68         310.8252
   476.82         312.2751
   476.96         314.2408
   477.10         316.5192
   477.24         318.8762
   477.38         321.0454
   477.52         322.7582
   477.66         323.8180
   477.80         324.1588
   477.94         323.8688
   478.08         323.1502
   478.22         322.2345
   478.36         321.3145
   478.50         320.4996
   478.64         319.8320
   478.78         319.3269
   478.92         318.9954
   479.06         318.8217
   479.20         318.7308
   479.34         318.6335
   479.48         318.4854
   479.62         318.2788
   479.76         318.0272
   479.90         317.7635
   480.04         317.5354
   480.18         317.4142
   480.32         317.4866
   480.46         317.8376
   480.60         318.5202
   480.74         319.5144
   480.88         320.7072
   481.02         321.9006
   481.16         322.8774
   481.30         323.4885
   481.44         323.6704
   481.58         323.4114
   481.72         322.7133
   481.86         321.6082
   482.00         320.1921
   482.14         318.5921
   482.28         316.9332
   482.42         315.3293
   482.56         313.8612
   482.70         312.5819
   482.84         311.5342
   482.98         310.7409
   483.12         310.1924
   483.26         309.8346
   483.40         309.5915
   483.54         309.4083
   483.68         309.2659
   483.82         309.1748
   483.96         309.1071
   484.10         308.9551
   484.24         308.5812
   484.38         307.8730
   484.52         306.7557
   484.66         305.1444
   484.80         302.9094
   484.94         299.9120
   485.08         296.0319
   485.22         291.1519
   485.36         285.1695
   485.50         278.0689
   485.64         270.0004
   485.78         261.3043
   485.92         252.4760
   486.06         244.0970
   486.20         236.7321
   486.34         230.8353
   486.48         226.7049
   486.62         224.4874
   486.76         224.2064
   486.90         225.7687
   487.04         228.9695
   487.18         233.5156
   487.32         239.0390
   487.46         245.1190
   487.60         251.3144
   487.74         257.1961
   487.88         262.4130
   488.02         266.7815
   488.16         270.3040
   488.30         273.0774
   488.44         275.1927
   488.58         276.7238
   488.72         277.7715
   488.86         278.4946
   489.00         279.0895
   489.14         279.7446
   489.28         280.6065
   489.42         281.7649
   489.56         283.2669
   489.70         285.1328
   489.84         287.3360
   489.98         289.7747
   490.12         292.2785
   490.26         294.6420
   490.40         296.6632
   490.54         298.1929
   490.68         299.1793
   490.82         299.6730
   490.96         299.7985
   491.10         299.7066
   491.24         299.5018
   491.38         299.1807
   491.52         298.6330
   491.66         297.6923
   491.80         296.2354
   491.94         294.2923
   492.08         292.0731
   492.22         289.9058
   492.36         288.1495
   492.50         287.0875
   492.64         286.8235
   492.78         287.2838
   492.92         288.3135
   493.06         289.7654
   493.20         291.5149
   493.34         293.4151
   493.48         295.2776
   493.62         296.8991
   493.76         298.1056
   493.90         298.8114
   494.04         299.0665
   494.18         299.0510
   494.32         299.0073
   494.46         299.1705
   494.60         299.7224
   494.74         300.7407
   494.88         302.1538
   495.02         303.7341
   495.16         305.1573
   495.30         306.1580
   495.44         306.6525
   495.58         306.6980
   495.72         306.4021
   495.86         305.8898
   496.00         305.3012
   496.14         304.7664
   496.28         304.3577
   496.42         304.0772
   496.56         303.8902
   496.70         303.7622
   496.84         303.6777
   496.98         303.6368
   497.12         303.6342
   497.26         303.6323
   497.40         303.5304
   497.54         303.1456
   497.68         302.2570
   497.82         300.7223
   497.96         298.5610
   498.10         295.9058
   498.24         292.9205
   498.38         289.7850
   498.52         286.6821
   498.66         283.7640
   498.80         281.1487
   498.94         278.9508
   499.08         277.2680
   499.22         276.1104
   499.36         275.3919
   499.50         274.9713
   499.64         274.6726
   499.78         274.3088
   499.92         273.6946
   500.06         272.6808
   500.20         271.2418
   500.34         269.5290
   500.48         267.8164
   500.62         266.3532
   500.76         265.2446
   500.90         264.4678
   501.04         263.9384
   501.18         263.5325
   501.32         263.1224
   501.46         262.6392
   501.60         262.0976
   501.74         261.5643
   501.88         261.1429
   502.02         260.9779
   502.16         261.2042
   502.30         261.9011
   502.44         263.0938
   502.58         264.7537
   502.72         266.8278
   502.86         269.2313
   503.00         271.7800
   503.14         274.1902
   503.28         276.1543
   503.42         277.4215
   503.56         277.8604
   503.70         277.4763
   503.84         276.4063
   503.98         274.9110
   504.12         273.3039
   504.26         271.8413
   504.40         270.6686
   504.54         269.8482
   504.68         269.4038
   504.82         269.3592
   504.96         269.7498
   505.10         270.5833
   505.24         271.8176
   505.38         273.3800
   505.52         275.1811
   505.66         277.1176
   505.80         279.0710
   505.94         280.9130
   506.08         282.5449
   506.22         283.9292
   506.36         285.0620
   506.50         285.9139
   506.64         286.3932
   506.78         286.3733
   506.92         285.7708
   507.06         284.6083
   507.20         282.9977
   507.34         281.0767
   507.48         278.9809
   507.62         276.8441
   507.76         274.7908
   507.90         272.9379
   508.04         271.3899
   508.18         270.2167
   508.32         269.4502
   508.46         269.1008
   508.60         269.1843
   508.74         269.7211
   508.88         270.6913
   509.02         271.9929
   509.16         273.4377
   509.30         274.7962
   509.44         275.8751
   509.58         276.5707
   509.72         276.8532
   509.86         276.7214
   510.00         276.1985
   510.14         275.3604
   510.28         274.3230
   510.42         273.2019
   510.56         272.1100
   510.70         271.1659
   510.84         270.4752
   510.98         270.1131
   511.12         270.1137
   511.26         270.4695
   511.40         271.1261
   511.54         271.9570
   511.68         272.7721
   511.82         273.3896
   511.96         273.7067
   512.10         273.6931
   512.24         273.3285
   512.38         272.5745
   512.52         271.4062
   512.66         269.8585
   512.80         268.0496
   512.94         266.1484
   513.08         264.3008
   513.22         262.6001
   513.36         261.1075
   513.50         259.8644
   513.64         258.9012
   513.78         258.2390
   513.92         257.8643
   514.06         257.7202
   514.20         257.7370
   514.34         257.8574
   514.48         258.0361
   514.62         258.2098
   514.76         258.2851
   514.90         258.1908
   515.04         257.9408
   515.18         257.6266
   515.32         257.3583
   515.46         257.2168
   515.60         257.2392
   515.74         257.4298
   515.88         257.7669
   516.02         258.1680
   516.16         258.4732
   516.30         258.5014
   516.44         258.1047
   516.58         257.1851
   516.72         255.7383
   516.86         253.8867
   517.00         251.8507
   517.14         249.9044
   517.28         248.3406
   517.42         247.4373
   517.56         247.3795
   517.70         248.1768
   517.84         249.6699
   517.98         251.5917
   518.12         253.6230
   518.26         255.4397
   518.40         256.7334
   518.54         257.2302
   518.68         256.7579
   518.82         255.3204
   518.96         253.0908
   519.10         250.3420
   519.24         247.4031
   519.38         244.6327
   519.52         242.3496
   519.66         240.7351
   519.80         239.7921
   519.94         239.3999
   520.08         239.3964
   520.22         239.6253
   520.36         239.9887
   520.50         240.4743
   520.64         241.1039
   520.78         241.8641
   520.92         242.6850
   521.06         243.4834
   521.20         244.2237
   521.34         244.9429
   521.48         245.7330
   521.62         246.6934
   521.76         247.8612
   521.90         249.1394
   522.04         250.3052
   522.18         251.1113
   522.32         251.3817
   522.46         251.0561
   522.60         250.1712
   522.74         248.8039
   522.88         247.0615
   523.02         245.1122
   523.16         243.1619
   523.30         241.4058
   523.44         240.0132
   523.58         239.1376
   523.72         238.9218
   523.86         239.4554
   524.00         240.7148
   524.14         242.5441
   524.28         244.6816
   524.42         246.8256
   524.56         248.7238
   524.70         250.2436
   524.84         251.3565
   524.98         252.0728
   525.12         252.4106
   525.26         252.3875
   525.40         252.0317
   525.54         251.3854
   525.68         250.4569
   525.82         249.1820
   525.96         247.4759
   526.10         245.2948
   526.24         242.6338
   526.38         239.5311
   526.52         236.0934
   526.66         232.4899
   526.80         228.9241
   526.94         225.6239
   527.08         222.8460
   527.22         220.8406
   527.36         219.7793
   527.50         219.7128
   527.64         220.5789
   527.78         222.2312
   527.92         224.4770
   528.06         227.1212
   528.20         229.9910
   528.34         232.9483
   528.48         235.9016
   528.62         238.8046
   528.76         241.6246
   528.90         244.3104
   529.04         246.7900
   529.18         248.9885
   529.32         250.8359
   529.46         252.2729
   529.60         253.2698
   529.74         253.8282
   529.88         253.9539
   530.02         253.6566
   530.16         252.9935
   530.30         252.1025
   530.44         251.1826
   530.58         250.4242
   530.72         249.9277
   530.86         249.6713
   531.00         249.5599
   531.14         249.5030
   531.28         249.4547
   531.42         249.3939
   531.56         249.2841
   531.70         249.0656
   531.84         248.6771
   531.98         248.0553
   532.12         247.1321
   532.26         245.8755
   532.40         244.3363
   532.54         242.6384
   532.68         240.9313
   532.82         239.3428
   532.96         237.9510
   533.10         236.7879
   533.24         235.8556
   533.38         235.1390
   533.52         234.6384
   533.66         234.3978
   533.80         234.4785
   533.94         234.8912
   534.08         235.5590
   534.22         236.3593
   534.36         237.2042
   534.50         238.0803
   534.64         239.0305
   534.78         240.1267
   534.92         241.4482
   535.06         243.0463
   535.20         244.9113
   535.34         246.9536
   535.48         249.0083
   535.62         250.8720
   535.76         252.3565
   535.90         253.3235
   536.04         253.6959
   536.18         253.4465
   536.32         252.5657
   536.46         251.0682
   536.60         249.0397
   536.74         246.6631
   536.88         244.2018
   537.02         241.9393
   537.16         240.0966
   537.30         238.7854
   537.44         238.0320
   537.58         237.8145
   537.72         238.0777
   537.86         238.7319
   538.00         239.6483
   538.14         240.6809
   538.28         241.7074
   538.42         242.6457
   538.56         243.4395
   538.70         244.0425
   538.84         244.4081
   538.98         244.4900
   539.12         244.2667
   539.26         243.7661
   539.40         243.0453
   539.54         242.1387
   539.68         241.0316
   539.82         239.6853
   539.96         238.0927
   540.10         236.3129
   540.24         234.4521
   540.38         232.6376
   540.52         231.0022
   540.66         229.6511
   540.80         228.6314
   540.94         227.9438
   541.08         227.5766
   541.22         227.5167
   541.36         227.7429
   541.50         228.2124
   541.64         228.8502
   541.78         229.5682
   541.92         230.3004
   542.06         230.9927
   542.20         231.5672
   542.34         231.9435
   542.48         232.0961
   542.62         232.0533
   542.76         231.8552
   542.90         231.5502
   543.04         231.2151
   543.18         230.9409
   543.32         230.7967
   543.46         230.8333
   543.60         231.1038
   543.74         231.6313
   543.88         232.3603
   544.02         233.1745
   544.16         233.9584
   544.30         234.6438
   544.44         235.2199
   544.58         235.7099
   544.72         236.1175
   544.86         236.3997
   545.00         236.5149
   545.14         236.4795
   545.28         236.3573
   545.42         236.2251
   545.56         236.1480
   545.70         236.1533
   545.84         236.2316
   545.98         236.3507
   546.12         236.4673
   546.26         236.5444
   546.40         236.5622
   546.54         236.5284
   546.68         236.4832
   546.82         236.4636
   546.96         236.4464
   547.10         236.3322
   547.24         236.0004
   547.38         235.3874
   547.52         234.5218
   547.66         233.5174
   547.80         232.5315
   547.94         231.6962
   548.08         231.0762
   548.22         230.6871
   548.36         230.5378
   548.50         230.6440
   548.64         231.0006
   548.78         231.5652
   548.92         232.2619
   549.06         232.9770
   549.20         233.5804
   549.34         233.9663
   549.48         234.0688
   549.62         233.8653
   549.76         233.3947
   549.90         232.7551
   550.04         232.0555
   550.18         231.3715
   550.32         230.7319
   550.46         230.1296
   550.60         229.5471
   550.74         228.9774
   550.88         228.4429
   551.02         228.0054
   551.16         227.7476
   551.30         227.7495
   551.44         228.0600
   551.58         228.6779
   551.72         229.5568
   551.86         230.6096
   552.00         231.6911
   552.14         232.6102
   552.28         233.1998
   552.42         233.3796
   552.56         233.1513
   552.70         232.5557
   552.84         231.6486
   552.98         230.5044
   553.12         229.2365
   553.26         227.9937
   553.40         226.9264
   553.54         226.1600
   553.68         225.7670
   553.82         225.7446
   553.96         226.0255
   554.10         226.5030
   554.24         227.0656
   554.38         227.6260
   554.52         228.1268
   554.66         228.5453
   554.80         228.9020
   554.94         229.2495
   555.08         229.6295
   555.22         230.0437
   555.36         230.4626
   555.50         230.8582
   555.64         231.2267
   555.78         231.5638
   555.92         231.8341
   556.06         231.9816
   556.20         231.9539
   556.34         231.7179
   556.48         231.2723
   556.62         230.6479
   556.76         229.8901
   556.90         229.0471
   557.04         228.1662
   557.18         227.2913
   557.32         226.4674
   557.46         225.7409
   557.60         225.1549
   557.74         224.7437
   557.88         224.5212
   558.02         224.4569
   558.16         224.4633
   558.30         224.4185
   558.44         224.2144
   558.58         223.8005
   558.72         223.1837
   558.86         222.3955
   559.00         221.4820
   559.14         220.5000
   559.28         219.5053
   559.42         218.5496
   559.56         217.6841
   559.70         216.9587
   559.84         216.4228
   559.98         216.1252
   560.12         216.1012
   560.26         216.3607
   560.40         216.8837
   560.54         217.6190
   560.68         218.4944
   560.82         219.4241
   560.96         220.3197
   561.10         221.1126
   561.24         221.7590
   561.38         222.2292
   561.52         222.5081
   561.66         222.5965
   561.80         222.4956
   561.94         222.2081
   562.08         221.7677
   562.22         221.2553
   562.36         220.7805
   562.50         220.4460
   562.64         220.3193
   562.78         220.4176
   562.92         220.7026
   563.06         221.0931
   563.20         221.4867
   563.34         221.7768
   563.48         221.8698
   563.62         221.7176
   563.76         221.3405
   563.90         220.8008
   564.04         220.1632
   564.18         219.4834
   564.32         218.8111
   564.46         218.1958
   564.60         217.6924
   564.74         217.3525
   564.88         217.1927
   565.02         217.1636
   565.16         217.1517
   565.30         217.0093
   565.44         216.6063
   565.58         215.8652
   565.72         214.7558
   565.86         213.3039
   566.00         211.5965
   566.14         209.7530
   566.28         207.9022
   566.42         206.1843
   566.56         204.7560
   566.70         203.7700
   566.84         203.3358
   566.98         203.4867
   567.12         204.1812
   567.26         205.3290
   567.40         206.8049
   567.54         208.4391
   567.68         210.0210
   567.82         211.3510
   567.96         212.3003
   568.10         212.8190
   568.24         212.8916
   568.38         212.5218
   568.52         211.7648
   568.66         210.7302
   568.80         209.5662
   568.94         208.4529
   569.08         207.5809
   569.22         207.1004
   569.36         207.0664
   569.50         207.4312
   569.64         208.0903
   569.78         208.9269
   569.92         209.8114
   570.06         210.5844
   570.20         211.0792
   570.34         211.1735
   570.48         210.8264
   570.62         210.0733
   570.76         209.0026
   570.90         207.7536
   571.04         206.5064
   571.18         205.4421
   571.32         204.7058
   571.46         204.3939
   571.60         204.5472
   571.74         205.1542
   571.88         206.1501
   572.02         207.4184
   572.16         208.8315
   572.30         210.2772
   572.44         211.6507
   572.58         212.8517
   572.72         213.8048
   572.86         214.4793
   573.00         214.8804
   573.14         215.0436
   573.28         215.0330
   573.42         214.9193
   573.56         214.7465
   573.70         214.5267
   573.84         214.2699
   573.98         213.9974
   574.12         213.7253
   574.26         213.4582
   574.40         213.2013
   574.54         212.9540
   574.68         212.7127
   574.82         212.4875
   574.96         212.2944
   575.10         212.1454
   575.24         212.0482
   575.38         212.0102
   575.52         212.0356
   575.66         212.1140
   575.80         212.2260
   575.94         212.3509
   576.08         212.4612
   576.22         212.5274
   576.36         212.5347
   576.50         212.4805
   576.64         212.3573
   576.78         212.1594
   576.92         211.9054
   577.06         211.6258
   577.20         211.3220
   577.34         210.9437
   577.48         210.4137
   577.62         209.6726
   577.76         208.6987
   577.90         207.5072
   578.04         206.1505
   578.18         204.7096
   578.32         203.2846
   578.46         201.9818
   578.60         200.8888
   578.74         200.0563
   578.88         199.5016
   579.02         199.2277
   579.16         199.2203
   579.30         199.4375
   579.44         199.8165
   579.58         200.2815
   579.72         200.7475
   579.86         201.1235
   580.00         201.3440
   580.14         201.4119
   580.28         201.3871
   580.42         201.3418
   580.56         201.3435
   580.70         201.4536
   580.84         201.7079
   580.98         202.0970
   581.12         202.5804
   581.26         203.1245
   581.40         203.7060
   581.54         204.2970
   581.68         204.8680
   581.82         205.3843
   581.96         205.8055
   582.10         206.0977
   582.24         206.2414
   582.38         206.2373
   582.52         206.1082
   582.66         205.8976
   582.80         205.6597
   582.94         205.4506
   583.08         205.3299
   583.22         205.3486
   583.36         205.5244
   583.50         205.8369
   583.64         206.2424
   583.78         206.7020
   583.92         207.1842
   584.06         207.6454
   584.20         208.0383
   584.34         208.3320
   584.48         208.4951
   584.62         208.4775
   584.76         208.2378
   584.90         207.7633
   585.04         207.0573
   585.18         206.1317
   585.32         205.0237
   585.46         203.8020
   585.60         202.5493
   585.74         201.3556
   585.88         200.3151
   586.02         199.5100
   586.16         199.0046
   586.30         198.8453
   586.44         199.0607
   586.58         199.6482
   586.72         200.5591
   586.86         201.7038
   587.00         202.9588
   587.14         204.1779
   587.28         205.2301
   587.42         206.0324
   587.56         206.5399
   587.70         206.7245
   587.84         206.5813
   587.98         206.1171
   588.12         205.2911
   588.26         203.9965
   588.40         202.1602
   588.54         199.8206
   588.68         197.0702
   588.82         193.9801
   588.96         190.6270
   589.10         187.1630
   589.24         183.8084
   589.38         180.7954
   589.52         178.3426
   589.66         176.6432
   589.80         175.8405
   589.94         176.0030
   590.08         177.1031
   590.22         179.0159
   590.36         181.5471
   590.50         184.4676
   590.64         187.5212
   590.78         190.4460
   590.92         193.0526
   591.06         195.2727
   591.20         197.0947
   591.34         198.4801
   591.48         199.3996
   591.62         199.9143
   591.76         200.1556
   591.90         200.2406
   592.04         200.2389
   592.18         200.1855
   592.32         200.0804
   592.46         199.9001
   592.60         199.6334
   592.74         199.2876
   592.88         198.8858
   593.02         198.4723
   593.16         198.0878
   593.30         197.7494
   593.44         197.4643
   593.58         197.2450
   593.72         197.1080
   593.86         197.0521
   594.00         197.0453
   594.14         197.0318
   594.28         196.9574
   594.42         196.7842
   594.56         196.4887
   594.70         196.0636
   594.84         195.5281
   594.98         194.9279
   595.12         194.3262
   595.26         193.7848
   595.40         193.3452
   595.54         193.0346
   595.68         192.8645
   595.82         192.8166
   595.96         192.8563
   596.10         192.9525
   596.24         193.0822
   596.38         193.2231
   596.52         193.3494
   596.66         193.4436
   596.80         193.4932
   596.94         193.4786
   597.08         193.3888
   597.22         193.2433
   597.36         193.0793
   597.50         192.9182
   597.64         192.7498
   597.78         192.5494
   597.92         192.3024
   598.06         192.0076
   598.20         191.6688
   598.34         191.2799
   598.48         190.8301
   598.62         190.3338
   598.76         189.8307
   598.90         189.3543
   599.04         188.9257
   599.18         188.5566
   599.32         188.2443
   599.46         187.9831
   599.60         187.7742
   599.74         187.6330
   599.88         187.5756
   600.02         187.5811
   600.16         187.5946
   600.30         187.5704
   600.44         187.4960
   600.58         187.3664
   600.72         187.1770
   600.86         186.9412
   601.00         186.6783
   601.14         186.4151
   601.28         186.1783
   601.42         185.9723
   601.56         185.7844
   601.70         185.6034
   601.84         185.4218
   601.98         185.2399
   602.12         185.0650
   602.26         184.8938
   602.40         184.7242
   602.54         184.5647
   602.68         184.4223
   602.82         184.3089
   602.96         184.2430
   603.10         184.2317
   603.24         184.2628
   603.38         184.3305
   603.52         184.4340
   603.66         184.5558
   603.80         184.6789
   603.94         184.7934
   604.08         184.8994
   604.22         185.0017
   604.36         185.1009
   604.50         185.2027
   604.64         185.3209
   604.78         185.4703
   604.92         185.6643
   605.06         185.9106
   605.20         186.2010
   605.34         186.5091
   605.48         186.8105
   605.62         187.0895
   605.76         187.3341
   605.90         187.5384
   606.04         187.7032
   606.18         187.8317
   606.32         187.9195
   606.46         187.9502
   606.60         187.8999
   606.74         187.7481
   606.88         187.4888
   607.02         187.1261
   607.16         186.6693
   607.30         186.1335
   607.44         185.5389
   607.58         184.9085
   607.72         184.2698
   607.86         183.6620
   608.00         183.1355
   608.14         182.7397
   608.28         182.5017
   608.42         182.4206
   608.56         182.4702
   608.70         182.5912
   608.84         182.6947
   608.98         182.6923
   609.12         182.5350
   609.26         182.2230
   609.40         181.7872
   609.54         181.2743
   609.68         180.7372
   609.82         180.2266
   609.96         179.7856
   610.10         179.4419
   610.24         179.2035
   610.38         179.0669
   610.52         179.0220
   610.66         179.0418
   610.80         179.0785
   610.94         179.0741
   611.08         178.9789
   611.22         178.7698
   611.36         178.4487
   611.50         178.0398
   611.64         177.5930
   611.78         177.1714
   611.92         176.8259
   612.06         176.5869
   612.20         176.4583
   612.34         176.4020
   612.48         176.3492
   612.62         176.2383
   612.76         176.0220
   612.90         175.6546
   613.04         175.1149
   613.18         174.4205
   613.32         173.6045
   613.46         172.7012
   613.60         171.7530
   613.74         170.8265
   613.88         170.0080
   614.02         169.3764
   614.16         168.9870
   614.30         168.8673
   614.44         169.0178
   614.58         169.4139
   614.72         169.9979
   614.86         170.6648
   615.00         171.2898
   615.14         171.7832
   615.28         172.1028
   615.42         172.2273
   615.56         172.1512
   615.70         171.8924
   615.84         171.4750
   615.98         170.9248
   616.12         170.2879
   616.26         169.6390
   616.40         169.0639
   616.54         168.6315
   616.68         168.3777
   616.82         168.3093
   616.96         168.4191
   617.10         168.6911
   617.24         169.0950
   617.38         169.5817
   617.52         170.0915
   617.66         170.5776
   617.80         171.0116
   617.94         171.3698
   618.08         171.6326
   618.22         171.7946
   618.36         171.8673
   618.50         171.8903
   618.64         171.9275
   618.78         172.0288
   618.92         172.2088
   619.06         172.4588
   619.20         172.7683
   619.34         173.1271
   619.48         173.5214
   619.62         173.9351
   619.76         174.3494
   619.90         174.7406
   620.04         175.0768
   620.18         175.3186
   620.32         175.4416
   620.46         175.4479
   620.60         175.3553
   620.74         175.1817
   620.88         174.9404
   621.02         174.6487
   621.16         174.3345
   621.30         174.0273
   621.44         173.7445
   621.58         173.4956
   621.72         173.2816
   621.86         173.0828
   622.00         172.8672
   622.14         172.6119
   622.28         172.3083
   622.42         171.9487
   622.56         171.5120
   622.70         170.9684
   622.84         170.3143
   622.98         169.5930
   623.12         168.8611
   623.26         168.1465
   623.40         167.4408
   623.54         166.7233
   623.68         165.9971
   623.82         165.3023
   623.96         164.6863
   624.10         164.1688
   624.24         163.7413
   624.38         163.3961
   624.52         163.1494
   624.66         163.0442
   624.80         163.1228
   624.94         163.3904
   625.08         163.8001
   625.22         164.2580
   625.36         164.6757
   625.50         165.0234
   625.64         165.3000
   625.78         165.4824
   625.92         165.5348
   626.06         165.4561
   626.20         165.3007
   626.34         165.1511
   626.48         165.0570
   626.62         164.9903
   626.76         164.8697
   626.90         164.6153
   627.04         164.1720
   627.18         163.4989
   627.32         162.5726
   627.46         161.4095
   627.60         160.0719
   627.74         158.6646
   627.88         157.3296
   628.02         156.2376
   628.16         155.5457
   628.30         155.3412
   628.44         155.6410
   628.58         156.4176
   628.72         157.5990
   628.86         159.0521
   629.00         160.5953
   629.14         162.0443
   629.28         163.2549
   629.42         164.1470
   629.56         164.7009
   629.70         164.9403
   629.84         164.9212
   629.98         164.7297
   630.12         164.4638
   630.26         164.2003
   630.40         163.9801
   630.54         163.8122
   630.68         163.6832
   630.82         163.5738
   630.96         163.4662
   631.10         163.3440
   631.24         163.1997
   631.38         163.0451
   631.52         162.9174
   631.66         162.8732
   631.80         162.9647
   631.94         163.2124
   632.08         163.6028
   632.22         164.1011
   632.36         164.6557
   632.50         165.2057
   632.64         165.6944
   632.78         166.0772
   632.92         166.3208
   633.06         166.4077
   633.20         166.3394
   633.34         166.1327
   633.48         165.8126
   633.62         165.4101
   633.76         164.9682
   633.90         164.5425
   634.04         164.1852
   634.18         163.9294
   634.32         163.7874
   634.46         163.7551
   634.60         163.8190
   634.74         163.9622
   634.88         164.1598
   635.02         164.3763
   635.16         164.5794
   635.30         164.7461
   635.44         164.8523
   635.58         164.8657
   635.72         164.7501
   635.86         164.4742
   636.00         164.0268
   636.14         163.4408
   636.28         162.7930
   636.42         162.1740
   636.56         161.6589
   636.70         161.2919
   636.84         161.0880
   636.98         161.0434
   637.12         161.1433
   637.26         161.3637
   637.40         161.6763
   637.54         162.0502
   637.68         162.4527
   637.82         162.8523
   637.96         163.2141
   638.10         163.4968
   638.24         163.6636
   638.38         163.7054
   638.52         163.6488
   638.66         163.5373
   638.80         163.4099
   638.94         163.2874
   639.08         163.1766
   639.22         163.0785
   639.36         162.9846
   639.50         162.8834
   639.64         162.7694
   639.78         162.6396
   639.92         162.4870
   640.06         162.3061
   640.20         162.0940
   640.34         161.8427
   640.48         161.5359
   640.62         161.1650
   640.76         160.7373
   640.90         160.2776
   641.04         159.8293
   641.18         159.4396
   641.32         159.1425
   641.46         158.9638
   641.60         158.9215
   641.74         159.0085
   641.88         159.1845
   642.02         159.3880
   642.16         159.5669
   642.30         159.6928
   642.44         159.7465
   642.58         159.7082
   642.72         159.5640
   642.86         159.3234
   643.00         159.0242
   643.14         158.7212
   643.28         158.4758
   643.42         158.3380
   643.56         158.3373
   643.70         158.4824
   643.84         158.7572
   643.98         159.1184
   644.12         159.5011
   644.26         159.8193
   644.40         159.9795
   644.54         159.9190
   644.68         159.6322
   644.82         159.1602
   644.96         158.5478
   645.10         157.8308
   645.24         157.0638
   645.38         156.3278
   645.52         155.7097
   645.66         155.2683
   645.80         155.0192
   645.94         154.9534
   646.08         155.0552
   646.22         155.2999
   646.36         155.6511
   646.50         156.0694
   646.64         156.5113
   646.78         156.9237
   646.92         157.2584
   647.06         157.4959
   647.20         157.6520
   647.34         157.7556
   647.48         157.8243
   647.62         157.8643
   647.76         157.8759
   647.90         157.8397
   648.04         157.6979
   648.18         157.3665
   648.32         156.7700
   648.46         155.8747
   648.60         154.7134
   648.74         153.3793
   648.88         151.9999
   649.02         150.7182
   649.16         149.6802
   649.30         149.0126
   649.44         148.8054
   649.58         149.1115
   649.72         149.9412
   649.86         151.2528
   650.00         152.9494
   650.14         154.8751
   650.28         156.8230
   650.42         158.5724
   650.56         159.9489
   650.70         160.8647
   650.84         161.3224
   650.98         161.3964
   651.12         161.2057
   651.26         160.8784
   651.40         160.5148
   651.54         160.1779
   651.68         159.9051
   651.82         159.7149
   651.96         159.6100
   652.10         159.5826
   652.24         159.6205
   652.38         159.7025
   652.52         159.7977
   652.66         159.8759
   652.80         159.9149
   652.94         159.9092
   653.08         159.8775
   653.22         159.8520
   653.36         159.8491
   653.50         159.8575
   653.64         159.8502
   653.78         159.7960
   653.92         159.6589
   654.06         159.4008
   654.20         158.9916
   654.34         158.4085
   654.48         157.6193
   654.62         156.5683
   654.76         155.1707
   654.90         153.3093
   655.04         150.8738
   655.18         147.8404
   655.32         144.3116
   655.46         140.4939
   655.60         136.6514
   655.74         133.0718
   655.88         130.0406
   656.02         127.8087
   656.16         126.5619
   656.30         126.4019
   656.44         127.3346
   656.58         129.2712
   656.72         132.0405
   656.86         135.4051
   657.00         139.0830
   657.14         142.7762
   657.28         146.2077
   657.42         149.1642
   657.56         151.5356
   657.70         153.3348
   657.84         154.6554
   657.98         155.5905
   658.12         156.1987
   658.26         156.5238
   658.40         156.6182
   658.54         156.5430
   658.68         156.3631
   658.82         156.1461
   658.96         155.9534
   659.10         155.8268
   659.24         155.7824
   659.38         155.8132
   659.52         155.8970
   659.66         156.0088
   659.80         156.1285
   659.94         156.2378
   660.08         156.3170
   660.22         156.3498
   660.36         156.3260
   660.50         156.2473
   660.64         156.1334
   660.78         156.0236
   660.92         155.9646
   661.06         155.9856
   661.20         156.0885
   661.34         156.2550
   661.48         156.4540
   661.62         156.6482
   661.76         156.8062
   661.90         156.9077
   662.04         156.9402
   662.18         156.8983
   662.32         156.7863
   662.46         156.6164
   662.60         156.4014
   662.74         156.1566
   662.88         155.9017
   663.02         155.6497
   663.16         155.4010
   663.30         155.1458
   663.44         154.8761
   663.58         154.5933
   663.72         154.3050
   663.86         154.0207
   664.00         153.7537
   664.14         153.5215
   664.28         153.3384
   664.42         153.2064
   664.56         153.1168
   664.70         153.0620
   664.84         153.0369
   664.98         153.0267
   665.12         153.0047
   665.26         152.9423
   665.40         152.8209
   665.54         152.6339
   665.68         152.3868
   665.82         152.1016
   665.96         151.8108
   666.10         151.5430
   666.24         151.3130
   666.38         151.1185
   666.52         150.9403
   666.66         150.7530
   666.80         150.5397
   666.94         150.2983
   667.08         150.0355
   667.22         149.7649
   667.36         149.5050
   667.50         149.2762
   667.64         149.1004
   667.78         149.0044
   667.92         149.0119
   668.06         149.1293
   668.20         149.3408
   668.34         149.6158
   668.48         149.9153
   668.62         150.1924
   668.76         150.4052
   668.90         150.5269
   669.04         150.5466
   669.18         150.4678
   669.32         150.3102
   669.46         150.1097
   669.60         149.9041
   669.74         149.7160
   669.88         149.5537
   670.02         149.4185
   670.16         149.3047
   670.30         149.1970
   670.44         149.0715
   670.58         148.9021
   670.72         148.6730
   670.86         148.3890
   671.00         148.0778
   671.14         147.7753
   671.28         147.5158
   671.42         147.3341
   671.56         147.2545
   671.70         147.2832
   671.84         147.4118
   671.98         147.6245
   672.12         147.9016
   672.26         148.2145
   672.40         148.5254
   672.54         148.8019
   672.68         149.0238
   672.82         149.1769
   672.96         149.2477
   673.10         149.2310
   673.24         149.1363
   673.38         148.9884
   673.52         148.8147
   673.66         148.6300
   673.80         148.4292
   673.94         148.2050
   674.08         147.9629
   674.22         147.7080
   674.36         147.4382
   674.50         147.1516
   674.64         146.8571
   674.78         146.5729
   674.92         146.3138
   675.06         146.0901
   675.20         145.9114
   675.34         145.7791
   675.48         145.6846
   675.62         145.6189
   675.76         145.5786
   675.90         145.5632
   676.04         145.5711
   676.18         145.5980
   676.32         145.6428
   676.46         145.7137
   676.60         145.8276
   676.74         145.9948
   676.88         146.2041
   677.02         146.4306
   677.16         146.6493
   677.30         146.8379
   677.44         146.9748
   677.58         147.0445
   677.72         147.0430
   677.86         146.9715
   678.00         146.8303
   678.14         146.6245
   678.28         146.3700
   678.42         146.0913
   678.56         145.8164
   678.70         145.5720
   678.84         145.3819
   678.98         145.2629
   679.12         145.2148
   679.26         145.2229
   679.40         145.2636
   679.54         145.3072
   679.68         145.3294
   679.82         145.3219
   679.96         145.2909
   680.10         145.2498
   680.24         145.2092
   680.38         145.1680
   680.52         145.1154
   680.66         145.0411
   680.80         144.9394
   680.94         144.8131
   681.08         144.6706
   681.22         144.5202
   681.36         144.3624
   681.50         144.1878
   681.64         143.9808
   681.78         143.7299
   681.92         143.4358
   682.06         143.1048
   682.20         142.7462
   682.34         142.3782
   682.48         142.0224
   682.62         141.6913
   682.76         141.3862
   682.90         141.1004
   683.04         140.8226
   683.18         140.5421
   683.32         140.2533
   683.46         139.9586
   683.60         139.6652
   683.74         139.3816
   683.88         139.1184
   684.02         138.8921
   684.16         138.7248
   684.30         138.6324
   684.44         138.6156
   684.58         138.6609
   684.72         138.7441
   684.86         138.8393
   685.00         138.9244
   685.14         138.9759
   685.28         138.9670
   685.42         138.8528
   685.56         138.5480
   685.70         137.9334
   685.84         136.8941
   685.98         135.3560
   686.12         133.3032
   686.26         130.7804
   686.40         127.8903
   686.54         124.7865
   686.68         121.6578
   686.82         118.7100
   686.96         116.1524
   687.10         114.1827
   687.24         112.9545
   687.38         112.5430
   687.52         112.9318
   687.66         114.0187
   687.80         115.6313
   687.94         117.5527
   688.08         119.5438
   688.22         121.3830
   688.36         122.9170
   688.50         124.0776
   688.64         124.8676
   688.78         125.3314
   688.92         125.5305
   689.06         125.5408
   689.20         125.4493
   689.34         125.3417
   689.48         125.2888
   689.62         125.3316
   689.76         125.4732
   689.90         125.6937
   690.04         125.9709
   690.18         126.2840
   690.32         126.6155
   690.46         126.9546
   690.60         127.2895
   690.74         127.6010
   690.88         127.8796
   691.02         128.1326
   691.16         128.3679
   691.30         128.5914
   691.44         128.8124
   691.58         129.0456
   691.72         129.3054
   691.86         129.5948
   692.00         129.9079
   692.14         130.2323
   692.28         130.5513
   692.42         130.8545
   692.56         131.1416
   692.70         131.4104
   692.84         131.6518
   692.98         131.8612
   693.12         132.0426
   693.26         132.2010
   693.40         132.3443
   693.54         132.4858
   693.68         132.6274
   693.82         132.7578
   693.96         132.8703
   694.10         132.9678
   694.24         133.0509
   694.38         133.1096
   694.52         133.1310
   694.66         133.1079
   694.80         133.0396
   694.94         132.9319
   695.08         132.8032
   695.22         132.6835
   695.36         132.6092
   695.50         132.6216
   695.64         132.7602
   695.78         133.0497
   695.92         133.4929
   696.06         134.0731
   696.20         134.7483
   696.34         135.4493
   696.48         136.0992
   696.62         136.6275
   696.76         136.9760
   696.90         137.1091
   697.04         137.0230
   697.18         136.7469
   697.32         136.3350
   697.46         135.8505
   697.60         135.3569
   697.74         134.9152
   697.88         134.5689
   698.02         134.3302
   698.16         134.1857
   698.30         134.1108
   698.44         134.0770
   698.58         134.0486
   698.72         133.9841
   698.86         133.8466
   699.00         133.6168
   699.14         133.2939
   699.28         132.8879
   699.42         132.4241
   699.56         131.9487
   699.70         131.5147
   699.84         131.1615
   699.98         130.9105
   700.12         130.7724
   700.26         130.7536
   700.40         130.8460
   700.54         131.0256
   700.68         131.2686
   700.82         131.5587
   700.96         131.8778
   701.10         132.1932
   701.24         132.4613
   701.38         132.6458
   701.52         132.7285
   701.66         132.7065
   701.80         132.5907
   701.94         132.4068
   702.08         132.1928
   702.22         131.9857
   702.36         131.8044
   702.50         131.6499
   702.64         131.5181
   702.78         131.4066
   702.92         131.3131
   703.06         131.2368
   703.20         131.1873
   703.34         131.1775
   703.48         131.2095
   703.62         131.2773
   703.76         131.3730
   703.90         131.4885
   704.04         131.6129
   704.18         131.7322
   704.32         131.8356
   704.46         131.9174
   704.60         131.9722
   704.74         131.9941
   704.88         131.9745
   705.02         131.9035
   705.16         131.7771
   705.30         131.6011
   705.44         131.3836
   705.58         131.1288
   705.72         130.8453
   705.86         130.5551
   706.00         130.2840
   706.14         130.0533
   706.28         129.8782
   706.42         129.7634
   706.56         129.7085
   706.70         129.7115
   706.84         129.7728
   706.98         129.8945
   707.12         130.0726
   707.26         130.2908
   707.40         130.5246
   707.54         130.7494
   707.68         130.9426
   707.82         131.0864
   707.96         131.1692
   708.10         131.1840
   708.24         131.1318
   708.38         131.0264
   708.52         130.8885
   708.66         130.7346
   708.80         130.5795
   708.94         130.4424
   709.08         130.3437
   709.22         130.3004
   709.36         130.3229
   709.50         130.4112
   709.64         130.5481
   709.78         130.7035
   709.92         130.8424
   710.06         130.9341
   710.20         130.9599
   710.34         130.9144
   710.48         130.8071
   710.62         130.6523
   710.76         130.4608
   710.90         130.2446
   711.04         130.0232
   711.18         129.8243
   711.32         129.6759
   711.46         129.5996
   711.60         129.6021
   711.74         129.6683
   711.88         129.7703
   712.02         129.8834
   712.16         129.9915
   712.30         130.0896
   712.44         130.1856
   712.58         130.2989
   712.72         130.4490
   712.86         130.6359
   713.00         130.8421
   713.14         131.0431
   713.28         131.2101
   713.42         131.3120
   713.56         131.3239
   713.70         131.2394
   713.84         131.0679
   713.98         130.8244
   714.12         130.5274
   714.26         130.1952
   714.40         129.8546
   714.54         129.5515
   714.68         129.3339
   714.82         129.2284
   714.96         129.2314
   715.10         129.3105
   715.24         129.4162
   715.38         129.4905
   715.52         129.4813
   715.66         129.3624
   715.80         129.1233
   715.94         128.7502
   716.08         128.2326
   716.22         127.5822
   716.36         126.8343
   716.50         126.0237
   716.64         125.1805
   716.78         124.3339
   716.92         123.5079
   717.06         122.7188
   717.20         121.9624
   717.34         121.2013
   717.48         120.3850
   717.62         119.4917
   717.76         118.5405
   717.90         117.5679
   718.04         116.6092
   718.18         115.7008
   718.32         114.8906
   718.46         114.2307
   718.60         113.7606
   718.74         113.4948
   718.88         113.4167
   719.02         113.4955
   719.16         113.6937
   719.30         113.9633
   719.44         114.2521
   719.58         114.5216
   719.72         114.7636
   719.86         114.9966
   720.00         115.2620
   720.14         115.6193
   720.28         116.1283
   720.42         116.8181
   720.56         117.6765
   720.70         118.6717
   720.84         119.7593
   720.98         120.8670
   721.12         121.8938
   721.26         122.7323
   721.40         123.3023
   721.54         123.5809
   721.68         123.5992
   721.82         123.4079
   721.96         123.0578
   722.10         122.6007
   722.24         122.0914
   722.38         121.5868
   722.52         121.1335
   722.66         120.7554
   722.80         120.4473
   722.94         120.1838
   723.08         119.9340
   723.22         119.6704
   723.36         119.3767
   723.50         119.0579
   723.64         118.7451
   723.78         118.4817
   723.92         118.2990
   724.06         118.2015
   724.20         118.1731
   724.34         118.1936
   724.48         118.2487
   724.62         118.3309
   724.76         118.4399
   724.90         118.5808
   725.04         118.7482
   725.18         118.9063
   725.32         119.0003
   725.46         118.9901
   725.60         118.8732
   725.74         118.6826
   725.88         118.4618
   726.02         118.2485
   726.16         118.0563
   726.30         117.8645
   726.44         117.6329
   726.58         117.3342
   726.72         116.9773
   726.86         116.6028
   727.00         116.2577
   727.14         115.9764
   727.28         115.7833
   727.42         115.6878
   727.56         115.6725
   727.70         115.6974
   727.84         115.7200
   727.98         115.7175
   728.12         115.6822
   728.26         115.6094
   728.40         115.4991
   728.54         115.3587
   728.68         115.1998
   728.82         115.0280
   728.96         114.8466
   729.10         114.6668
   729.24         114.5095
   729.38         114.3969
   729.52         114.3317
   729.66         114.2936
   729.80         114.2546
   729.94         114.1904
   730.08         114.0856
   730.22         113.9462
   730.36         113.8040
   730.50         113.7057
   730.64         113.6960
   730.78         113.8043
   730.92         114.0436
   731.06         114.4101
   731.20         114.8727
   731.34         115.3715
   731.48         115.8428
   731.62         116.2458
   731.76         116.5659
   731.90         116.8018
   732.04         116.9531
   732.18         117.0226
   732.32         117.0261
   732.46         116.9914
   732.60         116.9554
   732.74         116.9554
   732.88         117.0133
   733.02         117.1279
   733.16         117.2868
   733.30         117.4787
   733.44         117.6960
   733.58         117.9328
   733.72         118.1783
   733.86         118.4157
   734.00         118.6284
   734.14         118.8047
   734.28         118.9330
   734.42         118.9950
   734.56         118.9755
   734.70         118.8760
   734.84         118.7102
   734.98         118.4931
   735.12         118.2387
   735.26         117.9709
   735.40         117.7171
   735.54         117.4921
   735.68         117.2990
   735.82         117.1356
   735.96         116.9973
   736.10         116.8824
   736.24         116.7916
   736.38         116.7200
   736.52         116.6560
   736.66         116.5873
   736.80         116.5061
   736.94         116.4101
   737.08         116.3038
   737.22         116.1974
   737.36         116.0927
   737.50         115.9741
   737.64         115.8156
   737.78         115.5922
   737.92         115.2859
   738.06         114.8929
   738.20         114.4291
   738.34         113.9295
   738.48         113.4355
   738.62         112.9828
   738.76         112.5991
   738.90         112.3011
   739.04         112.0968
   739.18         111.9933
   739.32         111.9933
   739.46         112.0826
   739.60         112.2263
   739.74         112.3720
   739.88         112.4565
   740.02         112.4221
   740.16         112.2332
   740.30         111.8804
   740.44         111.3771
   740.58         110.7554
   740.72         110.0610
   740.86         109.3418
   741.00         108.6366
   741.14         107.9709
   741.28         107.3684
   741.42         106.8606
   741.56         106.4788
   741.70         106.2444
   741.84         106.1603
   741.98         106.2034
   742.12         106.3304
   742.26         106.4980
   742.40         106.6729
   742.54         106.8296
   742.68         106.9484
   742.82         107.0131
   742.96         107.0131
   743.10         106.9484
   743.24         106.8296
   743.38         106.6729
   743.52         106.4980
   743.66         106.3304
   743.80         106.2034
   743.94         106.1603
   744.08         106.2444
   744.22         106.4788
