# File HD9167
# Wavelength [nm]    Normalized Amplitude
   349.70         146.6913
   349.84         146.0688
   349.98         145.5619
   350.12         145.1463
   350.26         144.8034
   350.40         144.5457
   350.54         144.3724
   350.68         144.2468
   350.82         144.1448
   350.96         144.0751
   351.10         144.0509
   351.24         144.0751
   351.38         144.1448
   351.52         144.2468
   351.66         144.3724
   351.80         144.5457
   351.94         144.8034
   352.08         145.1463
   352.22         145.5619
   352.36         146.0688
   352.50         146.6913
   352.64         147.4553
   352.78         148.3618
   352.92         149.3552
   353.06         150.3374
   353.20         151.2089
   353.34         151.9193
   353.48         152.4408
   353.62         152.7378
   353.76         152.7683
   353.90         152.4931
   354.04         151.8747
   354.18         150.8981
   354.32         149.5786
   354.46         147.9790
   354.60         146.2488
   354.74         144.6025
   354.88         143.2346
   355.02         142.2380
   355.16         141.5830
   355.30         141.1787
   355.44         140.9489
   355.58         140.8290
   355.72         140.7241
   355.86         140.5014
   356.00         140.0566
   356.14         139.3463
   356.28         138.3619
   356.42         137.1310
   356.56         135.7374
   356.70         134.3209
   356.84         133.0070
   356.98         131.9243
   357.12         131.2286
   357.26         130.9833
   357.40         131.1148
   357.54         131.4901
   357.68         131.9884
   357.82         132.5258
   357.96         133.0333
   358.10         133.4411
   358.24         133.6865
   358.38         133.7116
   358.52         133.5218
   358.66         133.2384
   358.80         132.9956
   358.94         132.8787
   359.08         132.9577
   359.22         133.2618
   359.36         133.7596
   359.50         134.3883
   359.64         135.1168
   359.78         135.9002
   359.92         136.6447
   360.06         137.2763
   360.20         137.7664
   360.34         138.1066
   360.48         138.2905
   360.62         138.3096
   360.76         138.1796
   360.90         137.9519
   361.04         137.6824
   361.18         137.4125
   361.32         137.1706
   361.46         136.9841
   361.60         136.8833
   361.74         136.8639
   361.88         136.8673
   362.02         136.8429
   362.16         136.7923
   362.30         136.7673
   362.44         136.8247
   362.58         137.0036
   362.72         137.3345
   362.86         137.7951
   363.00         138.2840
   363.14         138.6637
   363.28         138.8453
   363.42         138.8125
   363.56         138.6047
   363.70         138.3179
   363.84         138.0736
   363.98         137.9705
   364.12         138.0787
   364.26         138.4863
   364.40         139.2629
   364.54         140.4207
   364.68         141.9508
   364.82         143.8152
   364.96         145.9140
   365.10         148.0800
   365.24         150.1336
   365.38         151.9218
   365.52         153.3223
   365.66         154.2756
   365.80         154.8014
   365.94         154.9866
   366.08         154.9669
   366.22         154.9070
   366.36         154.9376
   366.50         155.0975
   366.64         155.3892
   366.78         155.8776
   366.92         156.6776
   367.06         157.8436
   367.20         159.3544
   367.34         161.1723
   367.48         163.2876
   367.62         165.7614
   367.76         168.6995
   367.90         172.1489
   368.04         176.0719
   368.18         180.3980
   368.32         185.0349
   368.46         189.8551
   368.60         194.7462
   368.74         199.6742
   368.88         204.6281
   369.02         209.5380
   369.16         214.2721
   369.30         218.6808
   369.44         222.6683
   369.58         226.2190
   369.72         229.3314
   369.86         231.9755
   370.00         234.1504
   370.14         235.9750
   370.28         237.7324
   370.42         239.8187
   370.56         242.6287
   370.70         246.4114
   370.84         251.1104
   370.98         256.3717
   371.12         261.8147
   371.26         267.2885
   371.40         272.8372
   371.54         278.5092
   371.68         284.2872
   371.82         290.1088
   371.96         295.8317
   372.10         301.1589
   372.24         305.6369
   372.38         308.8066
   372.52         310.4746
   372.66         310.9200
   372.80         310.8508
   372.94         311.1180
   373.08         312.3895
   373.22         314.9362
   373.36         318.6163
   373.50         323.0261
   373.64         327.6545
   373.78         332.0028
   373.92         335.6355
   374.06         338.2227
   374.20         339.6441
   374.34         339.9973
   374.48         339.4814
   374.62         338.3153
   374.76         336.8259
   374.90         335.6150
   375.04         335.5605
   375.18         337.5568
   375.32         342.1314
   375.46         349.1404
   375.60         357.7023
   375.74         366.4214
   375.88         373.7860
   376.02         378.5996
   376.16         380.3019
   376.30         379.1323
   376.44         376.1694
   376.58         373.0991
   376.72         371.7292
   376.86         373.5417
   377.00         379.4352
   377.14         389.7177
   377.28         404.2303
   377.42         422.3843
   377.56         443.2024
   377.70         465.3970
   377.84         487.4150
   377.98         507.5574
   378.12         524.1288
   378.26         535.6057
   378.40         540.8359
   378.54         539.2405
   378.68         530.9911
   378.82         517.0256
   378.96         498.9694
   379.10         478.9536
   379.24         459.2861
   379.38         442.1543
   379.52         429.4277
   379.66         422.5594
   379.80         422.4392
   379.94         429.1842
   380.08         442.0961
   380.22         459.8934
   380.36         480.9748
   380.50         503.5930
   380.64         525.9924
   380.78         546.4901
   380.92         563.6579
   381.06         576.5495
   381.20         584.8103
   381.34         588.6356
   381.48         588.5738
   381.62         585.2884
   381.76         579.3120
   381.90         570.8860
   382.04         559.9609
   382.18         546.2621
   382.32         529.4781
   382.46         509.5270
   382.60         486.8135
   382.74         462.3889
   382.88         437.9230
   383.02         415.4762
   383.16         397.1232
   383.30         384.5695
   383.44         378.9121
   383.58         380.6015
   383.72         389.4952
   383.86         404.9463
   384.00         425.9186
   384.14         451.0398
   384.28         478.6037
   384.42         506.6459
   384.56         533.1667
   384.70         556.4582
   384.84         575.4108
   384.98         589.6807
   385.12         599.6251
   385.26         605.9864
   385.40         609.6275
   385.54         611.4664
   385.68         612.3842
   385.82         613.0524
   385.96         613.8395
   386.10         614.8597
   386.24         616.0786
   386.38         617.3838
   386.52         618.5888
   386.66         619.3935
   386.80         619.3700
   386.94         618.0324
   387.08         614.9162
   387.22         609.5844
   387.36         601.5909
   387.50         590.4676
   387.64         575.7964
   387.78         557.4123
   387.92         535.6554
   388.06         511.4628
   388.20         486.2059
   388.34         461.4617
   388.48         438.8499
   388.62         419.8974
   388.76         405.9220
   388.90         397.9322
   389.04         396.4996
   389.18         401.6414
   389.32         412.8107
   389.46         429.0116
   389.60         448.9547
   389.74         471.1686
   389.88         494.0787
   390.02         516.1445
   390.16         536.0853
   390.30         553.0922
   390.44         566.8766
   390.58         577.5427
   390.72         585.3733
   390.86         590.6946
   391.00         593.8608
   391.14         595.2140
   391.28         595.0401
   391.42         593.5554
   391.56         590.8204
   391.70         586.6223
   391.84         580.4184
   391.98         571.3779
   392.12         558.6229
   392.26         541.5732
   392.40         520.2421
   392.54         495.4156
   392.68         468.6518
   392.82         442.1058
   392.96         418.1864
   393.10         399.1337
   393.24         386.7072
   393.38         381.9919
   393.52         385.2876
   393.66         396.0921
   393.80         413.1661
   393.94         434.6965
   394.08         458.5323
   394.22         482.4636
   394.36         504.5108
   394.50         523.1489
   394.64         537.5116
   394.78         547.4981
   394.92         553.5796
   395.06         556.4030
   395.20         556.3597
   395.34         553.2851
   395.48         546.4653
   395.62         534.9575
   395.76         518.0955
   395.90         495.9052
   396.04         469.2488
   396.18         439.7580
   396.32         409.6360
   396.46         381.4070
   396.60         357.6258
   396.74         340.5101
   396.88         331.6069
   397.02         331.6671
   397.16         340.6624
   397.30         357.8068
   397.44         381.6004
   397.58         409.9953
   397.72         440.6897
   397.86         471.4399
   398.00         500.3594
   398.14         526.1439
   398.28         548.1586
   398.42         566.3791
   398.56         581.1612
   398.70         592.9716
   398.84         602.2098
   398.98         609.1369
   399.12         613.8737
   399.26         616.4384
   399.40         616.9051
   399.54         615.5753
   399.68         612.9796
   399.82         609.7048
   399.96         606.2403
   400.10         602.9788
   400.24         600.2456
   400.38         598.3144
   400.52         597.3919
   400.66         597.5737
   400.80         598.8003
   400.94         600.8535
   401.08         603.3877
   401.22         605.9728
   401.36         608.1894
   401.50         609.6845
   401.64         610.1676
   401.78         609.4126
   401.92         607.3477
   402.06         604.1315
   402.20         600.0600
   402.34         595.4691
   402.48         590.7491
   402.62         586.3694
   402.76         582.8428
   402.90         580.6073
   403.04         579.8906
   403.18         580.6416
   403.32         582.5362
   403.46         585.0533
   403.60         587.6332
   403.74         589.8061
   403.88         591.2357
   404.02         591.7188
   404.16         591.1212
   404.30         589.4249
   404.44         586.8415
   404.58         583.8077
   404.72         580.8366
   404.86         578.3412
   405.00         576.5571
   405.14         575.5204
   405.28         575.1180
   405.42         575.1392
   405.56         575.3180
   405.70         575.3761
   405.84         575.0560
   405.98         574.2298
   406.12         572.9296
   406.26         571.2043
   406.40         568.9855
   406.54         566.1629
   406.68         562.7877
   406.82         559.1270
   406.96         555.5795
   407.10         552.4996
   407.24         550.0762
   407.38         548.3443
   407.52         547.2289
   407.66         546.6256
   407.80         546.4478
   407.94         546.6106
   408.08         546.9517
   408.22         547.1730
   408.36         546.8045
   408.50         545.1931
   408.64         541.5796
   408.78         535.1277
   408.92         525.0603
   409.06         511.0395
   409.20         493.4412
   409.34         473.3075
   409.48         452.0882
   409.62         431.4070
   409.76         412.9185
   409.90         398.1800
   410.04         388.4939
   410.18         384.7739
   410.32         387.4484
   410.46         396.3673
   410.60         410.7689
   410.74         429.3430
   410.88         450.3838
   411.02         472.0163
   411.16         492.4783
   411.30         510.3610
   411.44         524.7372
   411.58         535.2310
   411.72         541.9896
   411.86         545.4997
   412.00         546.4015
   412.14         545.3856
   412.28         543.1343
   412.42         540.3002
   412.56         537.5123
   412.70         535.3677
   412.84         534.3318
   412.98         534.6132
   413.12         536.1433
   413.26         538.6689
   413.40         541.8695
   413.54         545.4044
   413.68         548.9184
   413.82         552.0813
   413.96         554.6169
   414.10         556.3232
   414.24         557.1108
   414.38         557.0300
   414.52         556.2665
   414.66         555.0655
   414.80         553.6215
   414.94         552.0513
   415.08         550.4450
   415.22         548.9194
   415.36         547.5934
   415.50         546.5239
   415.64         545.7299
   415.78         545.1924
   415.92         544.7921
   416.06         544.2909
   416.20         543.3735
   416.34         541.7431
   416.48         539.1676
   416.62         535.4711
   416.76         530.6064
   416.90         524.7179
   417.04         518.1324
   417.18         511.3142
   417.32         504.7677
   417.46         498.9713
   417.60         494.3782
   417.74         491.3914
   417.88         490.2748
   418.02         491.0691
   418.16         493.5891
   418.30         497.4650
   418.44         502.1528
   418.58         507.0486
   418.72         511.6627
   418.86         515.6659
   419.00         518.8328
   419.14         521.0025
   419.28         522.1385
   419.42         522.3877
   419.56         521.9934
   419.70         521.2047
   419.84         520.2682
   419.98         519.4071
   420.12         518.8039
   420.26         518.5828
   420.40         518.7995
   420.54         519.4528
   420.68         520.5082
   420.82         521.9041
   420.96         523.5081
   421.10         525.0945
   421.24         526.3963
   421.38         527.1527
   421.52         527.1686
   421.66         526.4057
   421.80         525.0165
   421.94         523.2273
   422.08         521.1983
   422.22         519.0130
   422.36         516.7509
   422.50         514.5416
   422.64         512.5557
   422.78         510.9670
   422.92         509.9103
   423.06         509.4853
   423.20         509.7343
   423.34         510.5738
   423.48         511.7618
   423.62         512.9484
   423.76         513.7801
   423.90         513.9931
   424.04         513.4873
   424.18         512.3578
   424.32         510.8127
   424.46         509.0175
   424.60         507.0160
   424.74         504.8265
   424.88         502.5731
   425.02         500.4999
   425.16         498.8921
   425.30         497.9898
   425.44         497.9116
   425.58         498.6143
   425.72         499.9132
   425.86         501.5008
   426.00         503.0115
   426.14         504.1359
   426.28         504.7089
   426.42         504.7240
   426.56         504.2855
   426.70         503.5706
   426.84         502.7831
   426.98         502.0799
   427.12         501.5396
   427.26         501.1957
   427.40         501.0901
   427.54         501.2676
   427.68         501.6675
   427.82         502.0937
   427.96         502.2847
   428.10         501.9639
   428.24         500.9085
   428.38         499.0100
   428.52         496.2919
   428.66         492.8825
   428.80         488.9468
   428.94         484.6252
   429.08         480.0601
   429.22         475.4353
   429.36         470.9700
   429.50         466.8752
   429.64         463.3310
   429.78         460.5108
   429.92         458.5471
   430.06         457.4230
   430.20         456.9251
   430.34         456.7860
   430.48         456.8949
   430.62         457.2833
   430.76         457.9501
   430.90         458.8234
   431.04         459.8070
   431.18         460.7809
   431.32         461.5888
   431.46         462.1261
   431.60         462.4198
   431.74         462.5907
   431.88         462.7398
   432.02         462.8588
   432.16         462.8004
   432.30         462.2614
   432.44         460.7500
   432.58         457.5599
   432.72         451.9015
   432.86         443.2083
   433.00         431.3879
   433.14         416.8492
   433.28         400.4079
   433.42         383.1957
   433.56         366.5860
   433.70         352.0246
   433.84         340.7721
   433.98         333.7680
   434.12         331.6469
   434.26         334.7116
   434.40         342.8387
   434.54         355.4418
   434.68         371.5224
   434.82         389.7851
   434.96         408.8128
   435.10         427.2975
   435.24         444.2365
   435.38         459.0260
   435.52         471.4573
   435.66         481.6263
   435.80         489.7930
   435.94         496.2294
   436.08         501.0851
   436.22         504.3512
   436.36         505.9714
   436.50         506.0170
   436.64         504.8104
   436.78         502.8684
   436.92         500.6644
   437.06         498.4228
   437.20         496.1081
   437.34         493.5980
   437.48         490.8685
   437.62         488.0377
   437.76         485.2918
   437.90         482.7840
   438.04         480.5563
   438.18         478.5372
   438.32         476.6185
   438.46         474.7403
   438.60         472.8731
   438.74         470.9615
   438.88         469.0004
   439.02         467.1405
   439.16         465.6256
   439.30         464.6126
   439.44         464.0739
   439.58         463.8568
   439.72         463.8054
   439.86         463.8649
   440.00         464.1197
   440.14         464.6691
   440.28         465.4085
   440.42         465.9741
   440.56         465.9170
   440.70         464.9248
   440.84         462.9372
   440.98         460.1518
   441.12         456.9482
   441.26         453.7566
   441.40         450.9848
   441.54         449.0004
   441.68         448.0576
   441.82         448.2111
   441.96         449.3208
   442.10         451.1387
   442.24         453.3869
   442.38         455.7866
   442.52         458.1028
   442.66         460.1766
   442.80         461.8622
   442.94         462.9663
   443.08         463.3139
   443.22         462.8905
   443.36         461.8910
   443.50         460.5865
   443.64         459.2023
   443.78         457.9079
   443.92         456.8447
   444.06         456.1262
   444.20         455.8142
   444.34         455.9335
   444.48         456.5077
   444.62         457.5609
   444.76         459.0867
   444.90         461.0146
   445.04         463.1919
   445.18         465.3979
   445.32         467.3662
   445.46         468.7725
   445.60         469.3006
   445.74         468.8174
   445.88         467.4721
   446.02         465.5801
   446.16         463.4574
   446.30         461.3975
   446.44         459.6879
   446.58         458.5726
   446.72         458.1560
   446.86         458.3699
   447.00         459.0689
   447.14         460.1436
   447.28         461.5312
   447.42         463.1465
   447.56         464.8241
   447.70         466.3165
   447.84         467.3915
   447.98         467.9236
   448.12         467.9089
   448.26         467.4775
   448.40         466.8967
   448.54         466.4781
   448.68         466.4298
   448.82         466.8146
   448.96         467.5956
   449.10         468.6975
   449.24         470.0428
   449.38         471.5278
   449.52         473.0605
   449.66         474.6189
   449.80         476.2358
   449.94         477.8919
   450.08         479.4449
   450.22         480.6916
   450.36         481.4751
   450.50         481.7536
   450.64         481.5466
   450.78         480.8388
   450.92         479.5677
   451.06         477.6949
   451.20         475.2676
   451.34         472.4284
   451.48         469.3806
   451.62         466.3633
   451.76         463.6262
   451.90         461.3311
   452.04         459.5132
   452.18         458.1829
   452.32         457.3997
   452.46         457.2484
   452.60         457.7360
   452.74         458.7367
   452.88         460.0541
   453.02         461.4857
   453.16         462.8503
   453.30         463.9962
   453.44         464.7751
   453.58         465.0230
   453.72         464.6032
   453.86         463.4631
   454.00         461.5987
   454.14         458.9818
   454.28         455.6471
   454.42         451.7771
   454.56         447.6561
   454.70         443.6599
   454.84         440.2218
   454.98         437.6768
   455.12         436.1574
   455.26         435.6436
   455.40         436.0677
   455.54         437.3919
   455.68         439.5662
   455.82         442.4296
   455.96         445.6863
   456.10         448.9675
   456.24         451.9504
   456.38         454.4623
   456.52         456.4592
   456.66         457.9115
   456.80         458.7690
   456.94         458.9923
   457.08         458.5509
   457.22         457.4509
   457.36         455.7699
   457.50         453.6019
   457.64         451.0289
   457.78         448.2040
   457.92         445.3922
   458.06         442.8953
   458.20         440.9588
   458.34         439.7077
   458.48         439.1713
   458.62         439.3802
   458.76         440.4026
   458.90         442.2885
   459.04         444.9868
   459.18         448.3484
   459.32         452.1839
   459.46         456.2820
   459.60         460.4250
   459.74         464.4618
   459.88         468.3299
   460.02         471.9590
   460.16         475.2075
   460.30         477.8915
   460.44         479.8408
   460.58         480.9275
   460.72         481.0921
   460.86         480.3684
   461.00         478.8823
   461.14         476.8552
   461.28         474.5853
   461.42         472.3638
   461.56         470.3815
   461.70         468.7324
   461.84         467.4924
   461.98         466.6947
   462.12         466.2467
   462.26         465.9838
   462.40         465.7770
   462.54         465.5495
   462.68         465.2562
   462.82         464.8955
   462.96         464.5147
   463.10         464.2044
   463.24         464.1004
   463.38         464.3840
   463.52         465.2123
   463.66         466.6171
   463.80         468.5023
   463.94         470.6895
   464.08         472.9402
   464.22         474.9994
   464.36         476.6572
   464.50         477.7626
   464.64         478.2298
   464.78         478.0674
   464.92         477.3820
   465.06         476.3252
   465.20         475.0227
   465.34         473.5415
   465.48         471.9040
   465.62         470.1137
   465.76         468.1855
   465.90         466.1911
   466.04         464.2904
   466.18         462.6745
   466.32         461.4979
   466.46         460.8924
   466.60         460.9631
   466.74         461.7430
   466.88         463.1830
   467.02         465.1914
   467.16         467.6699
   467.30         470.5004
   467.44         473.4922
   467.58         476.3776
   467.72         478.9035
   467.86         480.8840
   468.00         482.1839
   468.14         482.7683
   468.28         482.7293
   468.42         482.2071
   468.56         481.3597
   468.70         480.3537
   468.84         479.2862
   468.98         478.1650
   469.12         476.9525
   469.26         475.6008
   469.40         474.0840
   469.54         472.4240
   469.68         470.6889
   469.82         468.9676
   469.96         467.3589
   470.10         465.9671
   470.24         464.8781
   470.38         464.1424
   470.52         463.7764
   470.66         463.7747
   470.80         464.1238
   470.94         464.7656
   471.08         465.5664
   471.22         466.3742
   471.36         467.0416
   471.50         467.3993
   471.64         467.2955
   471.78         466.6300
   471.92         465.3591
   472.06         463.5108
   472.20         461.1766
   472.34         458.4921
   472.48         455.6287
   472.62         452.7755
   472.76         450.1014
   472.90         447.7489
   473.04         445.8603
   473.18         444.5727
   473.32         443.9712
   473.46         444.0546
   473.60         444.7435
   473.74         445.8948
   473.88         447.3488
   474.02         448.9721
   474.16         450.6519
   474.30         452.3058
   474.44         453.8791
   474.58         455.3505
   474.72         456.7200
   474.86         457.9278
   475.00         458.8238
   475.14         459.2040
   475.28         458.8837
   475.42         457.7926
   475.56         456.0108
   475.70         453.7088
   475.84         451.0618
   475.98         448.2270
   476.12         445.3739
   476.26         442.6959
   476.40         440.3878
   476.54         438.6220
   476.68         437.4880
   476.82         436.9769
   476.96         437.0230
   477.10         437.5051
   477.24         438.2464
   477.38         439.0375
   477.52         439.6847
   477.66         440.0688
   477.80         440.1714
   477.94         440.0837
   478.08         439.9604
   478.22         439.8993
   478.36         439.8783
   478.50         439.7987
   478.64         439.5891
   478.78         439.2688
   478.92         438.9018
   479.06         438.5221
   479.20         438.1161
   479.34         437.6681
   479.48         437.2090
   479.62         436.7917
   479.76         436.4561
   479.90         436.2269
   480.04         436.1150
   480.18         436.1269
   480.32         436.2541
   480.46         436.4947
   480.60         436.8660
   480.74         437.3484
   480.88         437.8507
   481.02         438.2518
   481.16         438.4828
   481.30         438.5529
   481.44         438.4898
   481.58         438.2868
   481.72         437.9069
   481.86         437.3404
   482.00         436.6563
   482.14         435.9612
   482.28         435.3366
   482.42         434.8335
   482.56         434.4744
   482.70         434.2691
   482.84         434.2043
   482.98         434.2272
   483.12         434.2724
   483.26         434.2384
   483.40         433.9536
   483.54         433.2239
   483.68         431.9010
   483.82         429.9056
   483.96         427.1720
   484.10         423.5899
   484.24         418.9823
   484.38         413.1280
   484.52         405.8256
   484.66         396.9021
   484.80         386.1937
   484.94         373.6753
   485.08         359.6340
   485.22         344.6973
   485.36         329.7680
   485.50         315.8988
   485.64         304.1411
   485.78         295.3906
   485.92         290.2497
   486.06         288.9780
   486.20         291.5248
   486.34         297.5587
   486.48         306.4668
   486.62         317.3957
   486.76         329.3660
   486.90         341.4172
   487.04         352.7473
   487.18         362.7867
   487.32         371.2123
   487.46         378.0013
   487.60         383.4336
   487.74         387.9186
   487.88         391.8161
   488.02         395.3736
   488.16         398.7046
   488.30         401.8093
   488.44         404.6549
   488.58         407.2397
   488.72         409.5609
   488.86         411.6060
   489.00         413.3928
   489.14         414.9655
   489.28         416.3846
   489.42         417.7331
   489.56         419.0926
   489.70         420.4674
   489.84         421.7537
   489.98         422.8079
   490.12         423.5370
   490.26         423.9221
   490.40         423.9911
   490.54         423.8067
   490.68         423.4236
   490.82         422.8388
   490.96         421.9769
   491.10         420.7031
   491.24         418.8846
   491.38         416.4912
   491.52         413.6776
   491.66         410.7249
   491.80         407.9414
   491.94         405.6150
   492.08         403.9431
   492.22         402.9955
   492.36         402.7553
   492.50         403.1963
   492.64         404.3154
   492.78         406.0961
   492.92         408.4631
   493.06         411.2663
   493.20         414.3051
   493.34         417.3500
   493.48         420.1964
   493.62         422.7309
   493.76         424.9474
   493.90         426.9401
   494.04         428.8328
   494.18         430.6429
   494.32         432.2485
   494.46         433.4559
   494.60         434.0404
   494.74         433.8425
   494.88         432.8765
   495.02         431.2958
   495.16         429.3119
   495.30         427.1720
   495.44         425.1411
   495.58         423.4617
   495.72         422.2826
   495.86         421.6252
   496.00         421.4349
   496.14         421.6429
   496.28         422.1777
   496.42         422.9286
   496.56         423.7308
   496.70         424.3677
   496.84         424.6013
   496.98         424.2409
   497.12         423.1758
   497.26         421.4181
   497.40         419.1516
   497.54         416.6473
   497.68         414.1337
   497.82         411.7891
   497.96         409.7559
   498.10         408.1119
   498.24         406.8747
   498.38         406.0303
   498.52         405.5550
   498.66         405.4300
   498.80         405.6254
   498.94         406.0787
   499.08         406.6811
   499.22         407.2771
   499.36         407.6812
   499.50         407.7441
   499.64         407.4276
   499.78         406.8202
   499.92         406.0891
   500.06         405.3915
   500.20         404.7961
   500.34         404.2537
   500.48         403.6295
   500.62         402.7158
   500.76         401.2893
   500.90         399.2491
   501.04         396.6614
   501.18         393.6964
   501.32         390.6040
   501.46         387.6896
   501.60         385.2390
   501.74         383.4478
   501.88         382.4086
   502.02         382.1596
   502.16         382.7240
   502.30         384.0710
   502.44         386.0485
   502.58         388.3843
   502.72         390.7624
   502.86         392.8687
   503.00         394.4479
   503.14         395.3909
   503.28         395.7523
   503.42         395.7411
   503.56         395.6558
   503.70         395.7564
   503.84         396.1545
   503.98         396.8225
   504.12         397.6599
   504.26         398.5152
   504.40         399.2172
   504.54         399.6359
   504.68         399.7371
   504.82         399.5655
   504.96         399.1963
   505.10         398.7142
   505.24         398.2102
   505.38         397.7710
   505.52         397.4503
   505.66         397.2763
   505.80         397.2413
   505.94         397.2860
   506.08         397.3103
   506.22         397.2049
   506.36         396.8936
   506.50         396.3425
   506.64         395.5909
   506.78         394.7347
   506.92         393.8575
   507.06         393.0310
   507.20         392.3470
   507.34         391.9039
   507.48         391.7387
   507.62         391.8136
   507.76         392.0674
   507.90         392.4498
   508.04         392.9155
   508.18         393.4100
   508.32         393.8864
   508.46         394.3069
   508.60         394.6178
   508.74         394.7568
   508.88         394.7012
   509.02         394.4766
   509.16         394.1184
   509.30         393.6518
   509.44         393.1086
   509.58         392.5470
   509.72         392.0468
   509.86         391.6845
   510.00         391.5040
   510.14         391.5180
   510.28         391.7159
   510.42         392.0633
   510.56         392.5019
   510.70         392.9459
   510.84         393.2829
   510.98         393.3888
   511.12         393.1728
   511.26         392.6179
   511.40         391.7628
   511.54         390.6447
   511.68         389.2716
   511.82         387.6603
   511.96         385.8702
   512.10         384.0136
   512.24         382.2335
   512.38         380.6390
   512.52         379.2761
   512.66         378.1446
   512.80         377.2099
   512.94         376.4328
   513.08         375.8211
   513.22         375.4071
   513.36         375.1966
   513.50         375.1759
   513.64         375.3318
   513.78         375.6620
   513.92         376.1382
   514.06         376.6529
   514.20         377.0513
   514.34         377.2333
   514.48         377.2052
   514.62         377.0220
   514.76         376.7105
   514.90         376.2429
   515.04         375.5631
   515.18         374.6517
   515.32         373.5102
   515.46         372.0874
   515.60         370.2929
   515.74         368.0498
   515.88         365.3210
   516.02         362.1545
   516.16         358.7183
   516.30         355.2885
   516.44         352.1911
   516.58         349.7211
   516.72         348.1075
   516.86         347.5192
   517.00         348.0147
   517.14         349.4785
   517.28         351.6433
   517.42         354.1504
   517.56         356.6286
   517.70         358.7545
   517.84         360.2491
   517.98         360.8998
   518.12         360.6401
   518.26         359.5841
   518.40         357.9845
   518.54         356.1428
   518.68         354.3623
   518.82         352.9269
   518.96         352.0267
   519.10         351.7010
   519.24         351.8653
   519.38         352.3732
   519.52         353.0450
   519.66         353.7162
   519.80         354.3199
   519.94         354.8785
   520.08         355.4331
   520.22         356.0131
   520.36         356.6199
   520.50         357.2495
   520.64         357.9377
   520.78         358.7237
   520.92         359.6073
   521.06         360.5677
   521.20         361.5479
   521.34         362.4280
   521.48         363.0310
   521.62         363.1839
   521.76         362.7838
   521.90         361.7853
   522.04         360.1823
   522.18         358.0216
   522.32         355.4180
   522.46         352.5492
   522.60         349.6312
   522.74         346.8922
   522.88         344.5558
   523.02         342.8363
   523.16         341.9110
   523.30         341.8571
   523.44         342.6188
   523.58         344.0431
   523.72         345.9139
   523.86         347.9657
   524.00         349.9399
   524.14         351.6549
   524.28         353.0087
   524.42         353.9182
   524.56         354.3025
   524.70         354.1340
   524.84         353.4642
   524.98         352.3950
   525.12         351.0278
   525.26         349.4308
   525.40         347.6328
   525.54         345.6296
   525.68         343.4136
   525.82         341.0098
   525.96         338.4989
   526.10         335.9760
   526.24         333.4912
   526.38         331.0766
   526.52         328.8079
   526.66         326.8137
   526.80         325.2351
   526.94         324.1854
   527.08         323.7174
   527.22         323.8239
   527.36         324.4680
   527.50         325.5975
   527.64         327.1482
   527.78         329.0475
   527.92         331.2254
   528.06         333.6126
   528.20         336.1377
   528.34         338.7444
   528.48         341.3759
   528.62         343.9290
   528.76         346.2500
   528.90         348.2076
   529.04         349.7604
   529.18         350.9187
   529.32         351.6706
   529.46         351.9803
   529.60         351.8374
   529.74         351.2705
   529.88         350.3408
   530.02         349.1314
   530.16         347.7079
   530.30         346.0857
   530.44         344.2469
   530.58         342.2186
   530.72         340.1074
   530.86         338.0529
   531.00         336.1851
   531.14         334.5886
   531.28         333.2833
   531.42         332.2373
   531.56         331.4035
   531.70         330.7517
   531.84         330.2832
   531.98         330.0205
   532.12         329.9660
   532.26         330.0738
   532.40         330.2374
   532.54         330.3158
   532.68         330.2045
   532.82         329.8776
   532.96         329.3951
   533.10         328.8861
   533.24         328.5067
   533.38         328.3638
   533.52         328.4829
   533.66         328.8452
   533.80         329.4179
   533.94         330.1653
   534.08         331.0649
   534.22         332.1253
   534.36         333.3679
   534.50         334.7740
   534.64         336.2434
   534.78         337.6128
   534.92         338.7220
   535.06         339.4512
   535.20         339.7489
   535.34         339.6437
   535.48         339.1888
   535.62         338.4121
   535.76         337.3255
   535.90         335.9759
   536.04         334.4609
   536.18         332.8918
   536.32         331.3735
   536.46         330.0175
   536.60         328.9297
   536.74         328.1843
   536.88         327.8169
   537.02         327.8187
   537.16         328.1359
   537.30         328.6884
   537.44         329.4004
   537.58         330.2093
   537.72         331.0551
   537.86         331.8787
   538.00         332.6227
   538.14         333.2325
   538.28         333.6681
   538.42         333.9029
   538.56         333.9158
   538.70         333.7010
   538.84         333.2776
   538.98         332.6789
   539.12         331.9355
   539.26         331.0656
   539.40         330.0979
   539.54         329.0891
   539.68         328.1034
   539.82         327.1910
   539.96         326.3749
   540.10         325.6545
   540.24         325.0103
   540.38         324.4113
   540.52         323.8406
   540.66         323.3041
   540.80         322.8171
   540.94         322.3854
   541.08         321.9836
   541.22         321.5699
   541.36         321.1244
   541.50         320.6393
   541.64         320.0971
   541.78         319.5010
   541.92         318.8997
   542.06         318.3493
   542.20         317.8702
   542.34         317.4692
   542.48         317.1744
   542.62         317.0297
   542.76         317.0869
   542.90         317.3872
   543.04         317.9448
   543.18         318.7284
   543.32         319.6446
   543.46         320.5711
   543.60         321.3877
   543.74         321.9896
   543.88         322.3380
   544.02         322.4656
   544.16         322.4040
   544.30         322.1475
   544.44         321.6998
   544.58         321.1222
   544.72         320.5200
   544.86         320.0053
   545.00         319.6805
   545.14         319.6195
   545.28         319.8365
   545.42         320.2716
   545.56         320.8131
   545.70         321.3452
   545.84         321.7723
   545.98         322.0217
   546.12         322.0544
   546.26         321.8581
   546.40         321.4388
   546.54         320.8205
   546.68         320.0347
   546.82         319.1135
   546.96         318.1167
   547.10         317.1630
   547.24         316.3906
   547.38         315.8737
   547.52         315.5888
   547.66         315.4624
   547.80         315.4285
   547.94         315.4418
   548.08         315.4727
   548.22         315.5053
   548.36         315.5269
   548.50         315.5187
   548.64         315.4595
   548.78         315.3283
   548.92         315.1164
   549.06         314.8313
   549.20         314.4904
   549.34         314.1205
   549.48         313.7337
   549.62         313.3145
   549.76         312.8452
   549.90         312.3156
   550.04         311.7182
   550.18         311.0683
   550.32         310.4319
   550.46         309.9007
   550.60         309.5464
   550.74         309.4078
   550.88         309.5072
   551.02         309.8461
   551.16         310.3703
   551.30         310.9518
   551.44         311.4121
   551.58         311.5858
   551.72         311.3651
   551.86         310.7149
   552.00         309.6646
   552.14         308.2781
   552.28         306.6469
   552.42         304.9063
   552.56         303.2331
   552.70         301.7965
   552.84         300.7217
   552.98         300.0809
   553.12         299.8765
   553.26         300.0521
   553.40         300.5177
   553.54         301.1572
   553.68         301.8345
   553.82         302.4294
   553.96         302.8774
   554.10         303.1814
   554.24         303.3947
   554.38         303.5835
   554.52         303.7825
   554.66         303.9781
   554.80         304.1332
   554.94         304.2196
   555.08         304.2313
   555.22         304.1795
   555.36         304.0756
   555.50         303.9328
   555.64         303.7530
   555.78         303.5222
   555.92         303.2440
   556.06         302.9456
   556.20         302.6571
   556.34         302.4064
   556.48         302.2275
   556.62         302.1565
   556.76         302.2143
   556.90         302.3907
   557.04         302.6492
   557.18         302.9493
   557.32         303.2584
   557.46         303.5436
   557.60         303.7580
   557.74         303.8517
   557.88         303.7955
   558.02         303.5792
   558.16         303.1970
   558.30         302.6507
   558.44         301.9809
   558.58         301.2644
   558.72         300.5658
   558.86         299.9241
   559.00         299.3642
   559.14         298.8908
   559.28         298.4834
   559.42         298.1097
   559.56         297.7497
   559.70         297.4130
   559.84         297.1134
   559.98         296.8454
   560.12         296.5978
   560.26         296.3619
   560.40         296.1225
   560.54         295.8578
   560.68         295.5501
   560.82         295.1919
   560.96         294.7926
   561.10         294.3775
   561.24         293.9775
   561.38         293.6196
   561.52         293.3183
   561.66         293.0817
   561.80         292.9263
   561.94         292.8754
   562.08         292.9425
   562.22         293.1223
   562.36         293.4021
   562.50         293.7658
   562.64         294.2004
   562.78         294.6748
   562.92         295.1239
   563.06         295.4900
   563.20         295.7559
   563.34         295.9252
   563.48         296.0045
   563.62         296.0074
   563.76         295.9504
   563.90         295.8440
   564.04         295.6850
   564.18         295.4577
   564.32         295.1570
   564.46         294.7852
   564.60         294.3171
   564.74         293.7062
   564.88         292.9256
   565.02         291.9743
   565.16         290.8526
   565.30         289.5529
   565.44         288.0713
   565.58         286.4428
   565.72         284.7602
   565.86         283.1444
   566.00         281.7176
   566.14         280.5998
   566.28         279.8890
   566.42         279.6227
   566.56         279.7734
   566.70         280.2781
   566.84         281.0647
   566.98         282.0539
   567.12         283.1421
   567.26         284.2064
   567.40         285.1501
   567.54         285.9142
   567.68         286.4463
   567.82         286.7094
   567.96         286.6963
   568.10         286.4308
   568.24         285.9698
   568.38         285.3956
   568.52         284.8123
   568.66         284.3247
   568.80         284.0018
   568.94         283.8569
   569.08         283.8562
   569.22         283.9532
   569.36         284.1026
   569.50         284.2505
   569.64         284.3315
   569.78         284.2758
   569.92         284.0375
   570.06         283.6159
   570.20         283.0420
   570.34         282.3673
   570.48         281.6601
   570.62         280.9845
   570.76         280.3882
   570.90         279.9002
   571.04         279.5492
   571.18         279.3778
   571.32         279.3961
   571.46         279.5686
   571.60         279.8559
   571.74         280.2396
   571.88         280.7163
   572.02         281.2761
   572.16         281.8923
   572.30         282.5210
   572.44         283.1036
   572.58         283.5882
   572.72         283.9435
   572.86         284.1500
   573.00         284.1897
   573.14         284.0536
   573.28         283.7465
   573.42         283.2778
   573.56         282.6695
   573.70         281.9798
   573.84         281.2831
   573.98         280.6359
   574.12         280.0777
   574.26         279.6380
   574.40         279.3384
   574.54         279.1802
   574.68         279.1277
   574.82         279.1312
   574.96         279.1534
   575.10         279.1724
   575.24         279.1798
   575.38         279.1753
   575.52         279.1519
   575.66         279.0926
   575.80         278.9868
   575.94         278.8272
   576.08         278.5955
   576.22         278.2800
   576.36         277.8835
   576.50         277.3915
   576.64         276.7566
   576.78         275.9090
   576.92         274.7756
   577.06         273.3122
   577.20         271.5286
   577.34         269.5016
   577.48         267.3712
   577.62         265.2982
   577.76         263.4130
   577.90         261.8109
   578.04         260.5766
   578.18         259.7767
   578.32         259.4355
   578.46         259.5306
   578.60         260.0005
   578.74         260.7614
   578.88         261.7252
   579.02         262.8062
   579.16         263.9233
   579.30         265.0034
   579.44         265.9892
   579.58         266.8605
   579.72         267.6428
   579.86         268.3708
   580.00         269.0585
   580.14         269.7032
   580.28         270.2901
   580.42         270.8018
   580.56         271.2388
   580.70         271.6039
   580.84         271.8781
   580.98         272.0445
   581.12         272.1215
   581.26         272.1459
   581.40         272.1399
   581.54         272.0981
   581.68         271.9954
   581.82         271.8112
   581.96         271.5382
   582.10         271.1795
   582.24         270.7575
   582.38         270.3194
   582.52         269.9287
   582.66         269.6496
   582.80         269.5263
   582.94         269.5691
   583.08         269.7547
   583.22         270.0308
   583.36         270.3331
   583.50         270.6110
   583.64         270.8265
   583.78         270.9356
   583.92         270.8880
   584.06         270.6490
   584.20         270.2146
   584.34         269.6118
   584.48         268.9007
   584.62         268.1622
   584.76         267.4890
   584.90         266.9845
   585.04         266.7333
   585.18         266.7596
   585.32         267.0331
   585.46         267.5091
   585.60         268.1448
   585.74         268.9017
   585.88         269.7423
   586.02         270.6164
   586.16         271.4606
   586.30         272.2127
   586.44         272.8162
   586.58         273.2207
   586.72         273.3938
   586.86         273.3216
   587.00         272.9989
   587.14         272.4360
   587.28         271.6581
   587.42         270.6712
   587.56         269.3915
   587.70         267.6153
   587.84         265.1422
   587.98         261.9464
   588.12         258.1478
   588.26         253.8555
   588.40         249.1565
   588.54         244.2244
   588.68         239.3561
   588.82         234.9244
   588.96         231.3115
   589.10         228.8318
   589.24         227.6986
   589.38         228.0203
   589.52         229.7835
   589.66         232.8415
   589.80         236.9233
   589.94         241.6550
   590.08         246.5938
   590.22         251.2886
   590.36         255.3995
   590.50         258.7843
   590.64         261.4113
   590.78         263.2142
   590.92         264.1389
   591.06         264.2944
   591.20         263.9234
   591.34         263.2390
   591.48         262.3688
   591.62         261.4066
   591.76         260.4268
   591.90         259.4842
   592.04         258.6186
   592.18         257.8554
   592.32         257.2212
   592.46         256.7490
   592.60         256.4642
   592.74         256.3750
   592.88         256.4754
   593.02         256.7422
   593.16         257.1243
   593.30         257.5425
   593.44         257.9082
   593.58         258.1540
   593.72         258.2376
   593.86         258.1238
   594.00         257.7932
   594.14         257.2690
   594.28         256.6096
   594.42         255.8714
   594.56         255.1086
   594.70         254.3931
   594.84         253.8076
   594.98         253.4261
   595.12         253.2746
   595.26         253.3225
   595.40         253.5210
   595.54         253.8165
   595.68         254.1468
   595.82         254.4542
   595.96         254.6949
   596.10         254.8252
   596.24         254.8231
   596.38         254.7084
   596.52         254.4996
   596.66         254.1888
   596.80         253.7800
   596.94         253.3200
   597.08         252.8779
   597.22         252.5070
   597.36         252.2345
   597.50         252.0675
   597.64         251.9713
   597.78         251.8678
   597.92         251.6950
   598.06         251.4410
   598.20         251.1233
   598.34         250.7763
   598.48         250.4501
   598.62         250.1813
   598.76         249.9802
   598.90         249.8643
   599.04         249.8507
   599.18         249.9234
   599.32         250.0574
   599.46         250.2356
   599.60         250.4197
   599.74         250.5340
   599.88         250.4973
   600.02         250.2783
   600.16         249.8848
   600.30         249.3337
   600.44         248.6755
   600.58         247.9918
   600.72         247.3428
   600.86         246.7416
   601.00         246.1819
   601.14         245.6543
   601.28         245.1422
   601.42         244.6389
   601.56         244.1500
   601.70         243.6691
   601.84         243.1934
   601.98         242.7338
   602.12         242.2917
   602.26         241.8773
   602.40         241.5171
   602.54         241.2261
   602.68         241.0001
   602.82         240.8196
   602.96         240.6668
   603.10         240.5320
   603.24         240.4155
   603.38         240.3198
   603.52         240.2410
   603.66         240.1841
   603.80         240.1692
   603.94         240.2143
   604.08         240.3221
   604.22         240.4801
   604.36         240.6682
   604.50         240.8719
   604.64         241.0732
   604.78         241.2510
   604.92         241.4034
   605.06         241.5379
   605.20         241.6606
   605.34         241.7903
   605.48         241.9533
   605.62         242.1635
   605.76         242.4217
   605.90         242.7295
   606.04         243.0720
   606.18         243.4274
   606.32         243.7869
   606.46         244.1411
   606.60         244.4614
   606.74         244.7042
   606.88         244.8382
   607.02         244.8525
   607.16         244.7505
   607.30         244.5477
   607.44         244.2631
   607.58         243.9097
   607.72         243.4976
   607.86         243.0487
   608.00         242.5993
   608.14         242.1815
   608.28         241.8144
   608.42         241.5093
   608.56         241.2677
   608.70         241.0801
   608.84         240.9366
   608.98         240.8218
   609.12         240.7190
   609.26         240.6264
   609.40         240.5525
   609.54         240.5072
   609.68         240.4864
   609.82         240.4696
   609.96         240.4338
   610.10         240.3590
   610.24         240.2350
   610.38         240.0729
   610.52         239.9002
   610.66         239.7376
   610.80         239.5871
   610.94         239.4374
   611.08         239.2736
   611.22         239.0905
   611.36         238.8984
   611.50         238.7132
   611.64         238.5476
   611.78         238.4088
   611.92         238.2856
   612.06         238.1399
   612.20         237.9256
   612.34         237.6058
   612.48         237.1616
   612.62         236.5956
   612.76         235.9209
   612.90         235.1541
   613.04         234.3206
   613.18         233.4474
   613.32         232.5499
   613.46         231.6332
   613.60         230.6968
   613.74         229.7585
   613.88         228.8708
   614.02         228.0999
   614.16         227.4968
   614.30         227.0772
   614.44         226.8248
   614.58         226.7089
   614.72         226.7026
   614.86         226.7846
   615.00         226.9305
   615.14         227.1170
   615.28         227.3285
   615.42         227.5531
   615.56         227.7840
   615.70         228.0108
   615.84         228.2070
   615.98         228.3440
   616.12         228.4087
   616.26         228.4047
   616.40         228.3570
   616.54         228.3012
   616.68         228.2546
   616.82         228.2080
   616.96         228.1443
   617.10         228.0589
   617.24         227.9657
   617.38         227.8881
   617.52         227.8411
   617.66         227.8296
   617.80         227.8596
   617.94         227.9342
   618.08         228.0489
   618.22         228.1902
   618.36         228.3349
   618.50         228.4711
   618.64         228.6083
   618.78         228.7555
   618.92         228.9115
   619.06         229.0715
   619.20         229.2255
   619.34         229.3556
   619.48         229.4481
   619.62         229.5069
   619.76         229.5526
   619.90         229.6073
   620.04         229.6741
   620.18         229.7279
   620.32         229.7426
   620.46         229.7076
   620.60         229.6199
   620.74         229.4780
   620.88         229.2846
   621.02         229.0604
   621.16         228.8462
   621.30         228.6805
   621.44         228.5822
   621.58         228.5514
   621.72         228.5718
   621.86         228.6176
   622.00         228.6633
   622.14         228.6876
   622.28         228.6687
   622.42         228.5718
   622.56         228.3440
   622.70         227.9316
   622.84         227.3178
   622.98         226.5536
   623.12         225.7329
   623.26         224.9384
   623.40         224.2116
   623.54         223.5573
   623.68         222.9759
   623.82         222.4841
   623.96         222.0997
   624.10         221.8255
   624.24         221.6479
   624.38         221.5547
   624.52         221.5504
   624.66         221.6500
   624.80         221.8639
   624.94         222.1775
   625.08         222.5357
   625.22         222.8495
   625.36         223.0412
   625.50         223.0857
   625.64         222.9919
   625.78         222.7557
   625.92         222.3612
   626.06         221.8270
   626.20         221.2283
   626.34         220.6696
   626.48         220.2213
   626.62         219.8715
   626.76         219.5471
   626.90         219.1605
   627.04         218.6280
   627.18         217.8625
   627.32         216.7877
   627.46         215.3766
   627.60         213.6685
   627.74         211.7702
   627.88         209.8562
   628.02         208.1469
   628.16         206.8498
   628.30         206.1062
   628.44         205.9871
   628.58         206.5042
   628.72         207.6041
   628.86         209.1569
   629.00         210.9749
   629.14         212.8546
   629.28         214.6140
   629.42         216.1200
   629.56         217.2941
   629.70         218.1051
   629.84         218.5696
   629.98         218.7557
   630.12         218.7625
   630.26         218.6781
   630.40         218.5545
   630.54         218.4101
   630.68         218.2417
   630.82         218.0467
   630.96         217.8398
   631.10         217.6469
   631.24         217.4947
   631.38         217.4125
   631.52         217.4350
   631.66         217.5926
   631.80         217.8936
   631.94         218.3171
   632.08         218.8277
   632.22         219.3925
   632.36         219.9802
   632.50         220.5559
   632.64         221.0811
   632.78         221.5211
   632.92         221.8513
   633.06         222.0629
   633.20         222.1619
   633.34         222.1462
   633.48         221.9902
   633.62         221.6697
   633.76         221.1933
   633.90         220.5972
   634.04         219.9290
   634.18         219.2388
   634.32         218.5729
   634.46         217.9792
   634.60         217.5141
   634.74         217.2350
   634.88         217.1813
   635.02         217.3595
   635.16         217.7416
   635.30         218.2735
   635.44         218.8829
   635.58         219.4766
   635.72         219.9368
   635.86         220.1347
   636.00         219.9756
   636.14         219.4594
   636.28         218.6817
   636.42         217.7740
   636.56         216.8592
   636.70         216.0396
   636.84         215.3957
   636.98         214.9814
   637.12         214.8197
   637.26         214.9012
   637.40         215.1892
   637.54         215.6307
   637.68         216.1637
   637.82         216.7195
   637.96         217.2314
   638.10         217.6401
   638.24         217.9002
   638.38         217.9985
   638.52         217.9693
   638.66         217.8811
   638.80         217.8010
   638.94         217.7593
   639.08         217.7584
   639.22         217.7941
   639.36         217.8529
   639.50         217.9141
   639.64         217.9590
   639.78         217.9685
   639.92         217.9245
   640.06         217.8212
   640.20         217.6614
   640.34         217.4384
   640.48         217.1313
   640.62         216.7287
   640.76         216.2413
   640.90         215.6992
   641.04         215.1513
   641.18         214.6549
   641.32         214.2579
   641.46         213.9934
   641.60         213.8775
   641.74         213.8998
   641.88         214.0187
   642.02         214.1709
   642.16         214.3012
   642.30         214.3787
   642.44         214.3857
   642.58         214.3084
   642.72         214.1436
   642.86         213.9049
   643.00         213.6213
   643.14         213.3387
   643.28         213.1097
   643.42         212.9711
   643.56         212.9356
   643.70         212.9970
   643.84         213.1287
   643.98         213.2842
   644.12         213.4019
   644.26         213.3975
   644.40         213.1751
   644.54         212.6776
   644.68         211.9210
   644.82         210.9780
   644.96         209.9363
   645.10         208.8799
   645.24         207.8968
   645.38         207.0844
   645.52         206.5308
   645.66         206.2844
   645.80         206.3461
   645.94         206.6843
   646.08         207.2531
   646.22         207.9975
   646.36         208.8499
   646.50         209.7370
   646.64         210.5811
   646.78         211.2973
   646.92         211.8131
   647.06         212.1089
   647.20         212.2276
   647.34         212.2330
   647.48         212.1754
   647.62         212.0877
   647.76         211.9848
   647.90         211.8585
   648.04         211.6789
   648.18         211.4074
   648.32         211.0209
   648.46         210.5338
   648.60         209.9971
   648.74         209.4800
   648.88         209.0510
   649.02         208.7709
   649.16         208.6924
   649.30         208.8493
   649.44         209.2506
   649.58         209.8891
   649.72         210.7411
   649.86         211.7528
   650.00         212.8406
   650.14         213.8970
   650.28         214.7907
   650.42         215.3915
   650.56         215.6230
   650.70         215.4884
   650.84         215.0566
   650.98         214.4357
   651.12         213.7433
   651.26         213.0871
   651.40         212.5505
   651.54         212.1870
   651.68         212.0199
   651.82         212.0401
   651.96         212.2042
   652.10         212.4479
   652.24         212.7079
   652.38         212.9307
   652.52         213.0698
   652.66         213.0875
   652.80         212.9622
   652.94         212.7000
   653.08         212.3413
   653.22         211.9429
   653.36         211.5425
   653.50         211.1472
   653.64         210.7397
   653.78         210.2896
   653.92         209.7589
   654.06         209.0966
   654.20         208.2440
   654.34         207.1389
   654.48         205.7068
   654.62         203.8452
   654.76         201.4176
   654.90         198.2546
   655.04         194.2151
   655.18         189.2880
   655.32         183.6384
   655.46         177.5854
   655.60         171.5429
   655.74         165.9622
   655.88         161.2862
   656.02         157.9015
   656.16         156.0906
   656.30         156.0030
   656.44         157.6452
   656.58         160.8818
   656.72         165.4475
   656.86         170.9734
   657.00         177.0215
   657.14         183.1260
   657.28         188.8452
   657.42         193.8287
   657.56         197.8830
   657.70         201.0075
   657.84         203.3404
   657.98         205.0452
   658.12         206.2533
   658.26         207.0707
   658.40         207.5986
   658.54         207.9323
   658.68         208.1576
   658.82         208.3513
   658.96         208.5770
   659.10         208.8734
   659.24         209.2480
   659.38         209.6833
   659.52         210.1482
   659.66         210.6031
   659.80         211.0000
   659.94         211.2836
   660.08         211.4017
   660.22         211.3265
   660.36         211.0667
   660.50         210.6591
   660.64         210.1562
   660.78         209.6191
   660.92         209.1147
   661.06         208.7001
   661.20         208.4108
   661.34         208.2648
   661.48         208.2647
   661.62         208.3983
   661.76         208.6458
   661.90         208.9786
   662.04         209.3556
   662.18         209.7279
   662.32         210.0439
   662.46         210.2533
   662.60         210.3170
   662.74         210.2254
   662.88         210.0042
   663.02         209.6924
   663.16         209.3147
   663.30         208.8756
   663.44         208.3739
   663.58         207.8196
   663.72         207.2350
   663.86         206.6465
   664.00         206.0828
   664.14         205.5703
   664.28         205.1237
   664.42         204.7397
   664.56         204.4018
   664.70         204.0996
   664.84         203.8330
   664.98         203.5988
   665.12         203.3873
   665.26         203.1908
   665.40         203.0115
   665.54         202.8563
   665.68         202.7284
   665.82         202.6286
   665.96         202.5580
   666.10         202.5187
   666.24         202.5118
   666.38         202.5290
   666.52         202.5482
   666.66         202.5436
   666.80         202.4959
   666.94         202.3927
   667.08         202.2267
   667.22         202.0044
   667.36         201.7487
   667.50         201.4889
   667.64         201.2576
   667.78         201.0902
   667.92         201.0202
   668.06         201.0688
   668.20         201.2370
   668.34         201.5109
   668.48         201.8648
   668.62         202.2559
   668.76         202.6376
   668.90         202.9713
   669.04         203.2271
   669.18         203.3897
   669.32         203.4610
   669.46         203.4527
   669.60         203.3776
   669.74         203.2494
   669.88         203.0881
   670.02         202.9183
   670.16         202.7579
   670.30         202.6095
   670.44         202.4611
   670.58         202.2948
   670.72         202.0944
   670.86         201.8528
   671.00         201.5764
   671.14         201.2761
   671.28         200.9676
   671.42         200.6831
   671.56         200.4546
   671.70         200.3015
   671.84         200.2309
   671.98         200.2357
   672.12         200.3030
   672.26         200.4209
   672.40         200.5735
   672.54         200.7385
   672.68         200.8902
   672.82         201.0051
   672.96         201.0650
   673.10         201.0590
   673.24         200.9922
   673.38         200.8838
   673.52         200.7565
   673.66         200.6285
   673.80         200.5075
   673.94         200.4022
   674.08         200.3314
   674.22         200.3077
   674.36         200.3307
   674.50         200.3884
   674.64         200.4619
   674.78         200.5345
   674.92         200.5874
   675.06         200.5978
   675.20         200.5464
   675.34         200.4197
   675.48         200.2132
   675.62         199.9284
   675.76         199.5720
   675.90         199.1628
   676.04         198.7262
   676.18         198.2877
   676.32         197.8749
   676.46         197.5155
   676.60         197.2346
   676.74         197.0433
   676.88         196.9285
   677.02         196.8645
   677.16         196.8289
   677.30         196.8082
   677.44         196.7923
   677.58         196.7717
   677.72         196.7417
   677.86         196.7051
   678.00         196.6703
   678.14         196.6403
   678.28         196.6100
   678.42         196.5764
   678.56         196.5452
   678.70         196.5222
   678.84         196.5040
   678.98         196.4855
   679.12         196.4637
   679.26         196.4372
   679.40         196.4043
   679.54         196.3654
   679.68         196.3262
   679.82         196.2918
   679.96         196.2569
   680.10         196.2121
   680.24         196.1527
   680.38         196.0738
   680.52         195.9626
   680.66         195.7958
   680.80         195.5494
   680.94         195.2188
   681.08         194.8250
   681.22         194.3982
   681.36         193.9620
   681.50         193.5334
   681.64         193.1307
   681.78         192.7751
   681.92         192.4844
   682.06         192.2632
   682.20         192.1044
   682.34         191.9983
   682.48         191.9351
   682.62         191.9072
   682.76         191.9118
   682.90         191.9422
   683.04         191.9798
   683.18         191.9977
   683.32         191.9729
   683.46         191.8958
   683.60         191.7659
   683.74         191.5825
   683.88         191.3477
   684.02         191.0718
   684.16         190.7749
   684.30         190.4804
   684.44         190.2094
   684.58         189.9760
   684.72         189.7842
   684.86         189.6391
   685.00         189.5513
   685.14         189.5226
   685.28         189.5288
   685.42         189.5024
   685.56         189.3060
   685.70         188.7414
   685.84         187.6089
   685.98         185.7648
   686.12         183.1502
   686.26         179.7968
   686.40         175.8274
   686.54         171.4468
   686.68         166.9208
   686.82         162.5575
   686.96         158.6828
   687.10         155.6023
   687.24         153.5471
   687.38         152.6309
   687.52         152.8367
   687.66         154.0211
   687.80         155.9357
   687.94         158.2696
   688.08         160.6932
   688.22         162.9094
   688.36         164.7187
   688.50         166.0460
   688.64         166.9191
   688.78         167.4195
   688.92         167.6444
   689.06         167.7001
   689.20         167.6960
   689.34         167.7324
   689.48         167.8886
   689.62         168.2066
   689.76         168.6749
   689.90         169.2522
   690.04         169.9032
   690.18         170.6033
   690.32         171.3356
   690.46         172.1011
   690.60         172.9076
   690.74         173.7416
   690.88         174.5790
   691.02         175.3990
   691.16         176.1793
   691.30         176.9001
   691.44         177.5427
   691.58         178.0963
   691.72         178.5609
   691.86         178.9393
   692.00         179.2406
   692.14         179.4839
   692.28         179.6909
   692.42         179.8818
   692.56         180.0816
   692.70         180.3050
   692.84         180.5439
   692.98         180.7816
   693.12         181.0034
   693.26         181.1924
   693.40         181.3369
   693.54         181.4435
   693.68         181.5219
   693.82         181.5719
   693.96         181.5941
   694.10         181.5987
   694.24         181.5984
   694.38         181.5965
   694.52         181.5898
   694.66         181.5765
   694.80         181.5586
   694.94         181.5456
   695.08         181.5516
   695.22         181.5877
   695.36         181.6620
   695.50         181.7888
   695.64         181.9893
   695.78         182.2809
   695.92         182.6686
   696.06         183.1399
   696.20         183.6604
   696.34         184.1825
   696.48         184.6646
   696.62         185.0801
   696.76         185.4102
   696.90         185.6345
   697.04         185.7402
   697.18         185.7380
   697.32         185.6623
   697.46         185.5526
   697.60         185.4390
   697.74         185.3389
   697.88         185.2598
   698.02         185.1990
   698.16         185.1413
   698.30         185.0638
   698.44         184.9486
   698.58         184.7845
   698.72         184.5649
   698.86         184.2883
   699.00         183.9605
   699.14         183.5916
   699.28         183.1916
   699.42         182.7748
   699.56         182.3664
   699.70         182.0000
   699.84         181.7057
   699.98         181.5053
   700.12         181.4143
   700.26         181.4425
   700.40         181.5870
   700.54         181.8265
   700.68         182.1302
   700.82         182.4723
   700.96         182.8337
   701.10         183.1892
   701.24         183.4994
   701.38         183.7217
   701.52         183.8192
   701.66         183.7721
   701.80         183.5846
   701.94         183.2758
   702.08         182.8725
   702.22         182.4121
   702.36         181.9371
   702.50         181.4834
   702.64         181.0817
   702.78         180.7548
   702.92         180.5155
   703.06         180.3745
   703.20         180.3474
   703.34         180.4482
   703.48         180.6731
   703.62         180.9904
   703.76         181.3495
   703.90         181.6962
   704.04         181.9830
   704.18         182.1810
   704.32         182.2854
   704.46         182.2982
   704.60         182.2189
   704.74         182.0558
   704.88         181.8305
   705.02         181.5709
   705.16         181.3065
   705.30         181.0647
   705.44         180.8624
   705.58         180.7053
   705.72         180.5876
   705.86         180.4934
   706.00         180.4028
   706.14         180.2980
   706.28         180.1674
   706.42         180.0104
   706.56         179.8377
   706.70         179.6664
   706.84         179.5175
   706.98         179.4095
   707.12         179.3593
   707.26         179.3787
   707.40         179.4669
   707.54         179.6135
   707.68         179.7976
   707.82         179.9864
   707.96         180.1427
   708.10         180.2418
   708.24         180.2743
   708.38         180.2421
   708.52         180.1566
   708.66         180.0361
   708.80         179.9041
   708.94         179.7836
   709.08         179.6922
   709.22         179.6431
   709.36         179.6536
   709.50         179.7409
   709.64         179.9035
   709.78         180.1140
   709.92         180.3182
   710.06         180.4574
   710.20         180.4976
   710.34         180.4323
   710.48         180.2723
   710.62         180.0369
   710.76         179.7578
   710.90         179.4799
   711.04         179.2490
   711.18         179.1007
   711.32         179.0580
   711.46         179.1327
   711.60         179.3239
   711.74         179.6182
   711.88         179.9984
   712.02         180.4384
   712.16         180.8945
   712.30         181.3159
   712.44         181.6677
   712.58         181.9490
   712.72         182.1851
   712.86         182.4039
   713.00         182.6222
   713.14         182.8414
   713.28         183.0530
   713.42         183.2460
   713.56         183.4010
   713.70         183.4883
   713.84         183.4748
   713.98         183.3386
   714.12         183.0878
   714.26         182.7538
   714.40         182.3729
   714.54         181.9817
   714.68         181.6123
   714.82         181.2932
   714.96         181.0461
   715.10         180.8788
   715.24         180.7754
   715.38         180.6842
   715.52         180.5353
   715.66         180.2771
   715.80         179.8766
   715.94         179.3074
   716.08         178.5457
   716.22         177.5756
   716.36         176.3984
   716.50         175.0349
   716.64         173.5366
   716.78         171.9855
   716.92         170.4617
   717.06         169.0183
   717.20         167.6710
   717.34         166.3971
   717.48         165.1625
   717.62         163.9642
   717.76         162.8342
   717.90         161.7998
   718.04         160.8671
   718.18         160.0508
   718.32         159.3929
   718.46         158.9357
   718.60         158.6894
   718.74         158.6325
   718.88         158.7349
   719.02         158.9889
   719.16         159.3956
   719.30         159.9374
   719.44         160.5736
   719.58         161.2543
   719.72         161.9460
   719.86         162.6394
   720.00         163.3531
   720.14         164.1324
   720.28         165.0206
   720.42         166.0227
   720.56         167.1115
   720.70         168.2684
   720.84         169.4827
   720.98         170.7139
   721.12         171.8813
   721.26         172.8925
   721.40         173.6851
   721.54         174.2496
   721.68         174.6038
   721.82         174.7473
   721.96         174.6589
   722.10         174.3217
   722.24         173.7396
   722.38         172.9398
   722.52         171.9628
   722.66         170.8539
   722.80         169.6508
   722.94         168.3934
   723.08         167.1398
   723.22         165.9579
   723.36         164.9015
   723.50         164.0050
   723.64         163.3065
   723.78         162.8521
   723.92         162.6605
   724.06         162.6999
   724.20         162.9003
   724.34         163.1790
   724.48         163.4642
   724.62         163.7098
   724.76         163.9057
   724.90         164.0718
   725.04         164.2271
   725.18         164.3592
   725.32         164.4358
   725.46         164.4390
   725.60         164.3925
   725.74         164.3547
   725.88         164.3707
   726.02         164.4458
   726.16         164.5500
   726.30         164.6310
   726.44         164.6193
   726.58         164.4504
   726.72         164.1067
   726.86         163.6400
   727.00         163.1439
   727.14         162.7098
   727.28         162.4097
   727.42         162.2845
   727.56         162.3331
   727.70         162.5099
   727.84         162.7457
   727.98         162.9870
   728.12         163.1976
   728.26         163.3430
   728.40         163.3945
   728.54         163.3351
   728.68         163.1656
   728.82         162.9072
   728.96         162.5967
   729.10         162.2755
   729.24         161.9890
   729.38         161.7844
   729.52         161.6968
   729.66         161.7230
   729.80         161.8209
   729.94         161.9329
   730.08         161.9974
   730.22         161.9716
   730.36         161.8473
   730.50         161.6508
   730.64         161.4314
   730.78         161.2359
   730.92         161.1079
   731.06         161.0936
   731.20         161.2180
   731.34         161.4668
   731.48         161.8063
   731.62         162.2051
   731.76         162.6424
   731.90         163.1038
   732.04         163.5706
   732.18         164.0142
   732.32         164.3978
   732.46         164.6890
   732.60         164.8800
   732.74         164.9876
   732.88         165.0433
   733.02         165.0744
   733.16         165.0965
   733.30         165.1288
   733.44         165.2016
   733.58         165.3459
   733.72         165.5706
   733.86         165.8567
   734.00         166.1717
   734.14         166.4783
   734.28         166.7385
   734.42         166.9228
   734.56         167.0177
   734.70         167.0228
   734.84         166.9412
   734.98         166.7778
   735.12         166.5443
   735.26         166.2635
   735.40         165.9534
   735.54         165.6146
   735.68         165.2396
   735.82         164.8285
   735.96         164.3962
   736.10         163.9613
   736.24         163.5349
   736.38         163.1315
   736.52         162.7747
   736.66         162.4903
   736.80         162.3011
   736.94         162.2181
   737.08         162.2377
   737.22         162.3415
   737.36         162.4917
   737.50         162.6409
   737.64         162.7473
   737.78         162.7748
   737.92         162.6896
   738.06         162.4710
   738.20         162.1259
   738.34         161.6864
   738.48         161.1944
   738.62         160.6839
   738.76         160.1759
   738.90         159.6810
   739.04         159.2040
   739.18         158.7451
   739.32         158.3036
   739.46         157.8794
   739.60         157.4731
   739.74         157.0880
   739.88         156.7261
   740.02         156.3822
   740.16         156.0460
   740.30         155.7084
   740.44         155.3690
   740.58         155.0307
   740.72         154.6953
   740.86         154.3610
   741.00         154.0181
   741.14         153.6507
   741.28         153.2511
   741.42         152.8328
   741.56         152.4270
   741.70         152.0721
   741.84         151.8029
   741.98         151.6380
   742.12         151.5742
   742.26         151.5948
   742.40         151.6721
   742.54         151.7700
   742.68         151.8528
   742.82         151.8976
   742.96         151.8976
   743.10         151.8528
   743.24         151.7700
   743.38         151.6721
   743.52         151.5948
   743.66         151.5742
   743.80         151.6380
   743.94         151.8029
   744.08         152.0721
   744.22         152.4270
