# File HD9547
# Wavelength [nm]    Normalized Amplitude
   349.70         8.5210
   349.84         8.6043
   349.98         8.7188
   350.12         8.8580
   350.26         9.0135
   350.40         9.1742
   350.54         9.3283
   350.68         9.4646
   350.82         9.5710
   350.96         9.6377
   351.10         9.6603
   351.24         9.6377
   351.38         9.5710
   351.52         9.4646
   351.66         9.3283
   351.80         9.1742
   351.94         9.0135
   352.08         8.8580
   352.22         8.7188
   352.36         8.6043
   352.50         8.5210
   352.64         8.4734
   352.78         8.4603
   352.92         8.4735
   353.06         8.5016
   353.20         8.5332
   353.34         8.5577
   353.48         8.5674
   353.62         8.5600
   353.76         8.5385
   353.90         8.5061
   354.04         8.4671
   354.18         8.4274
   354.32         8.3956
   354.46         8.3802
   354.60         8.3863
   354.74         8.4163
   354.88         8.4688
   355.02         8.5377
   355.16         8.6132
   355.30         8.6835
   355.44         8.7385
   355.58         8.7707
   355.72         8.7746
   355.86         8.7450
   356.00         8.6799
   356.14         8.5825
   356.28         8.4600
   356.42         8.3218
   356.56         8.1791
   356.70         8.0461
   356.84         7.9377
   356.98         7.8658
   357.12         7.8354
   357.26         7.8433
   357.40         7.8804
   357.54         7.9347
   357.68         7.9935
   357.82         8.0453
   357.96         8.0817
   358.10         8.0984
   358.24         8.0944
   358.38         8.0713
   358.52         8.0351
   358.66         7.9963
   358.80         7.9651
   358.94         7.9475
   359.08         7.9459
   359.22         7.9609
   359.36         7.9914
   359.50         8.0336
   359.64         8.0825
   359.78         8.1328
   359.92         8.1809
   360.06         8.2243
   360.20         8.2623
   360.34         8.2957
   360.48         8.3249
   360.62         8.3500
   360.76         8.3717
   360.90         8.3891
   361.04         8.4008
   361.18         8.4067
   361.32         8.4079
   361.46         8.4047
   361.60         8.3992
   361.74         8.3954
   361.88         8.3971
   362.02         8.4045
   362.16         8.4151
   362.30         8.4242
   362.44         8.4267
   362.58         8.4189
   362.72         8.3996
   362.86         8.3707
   363.00         8.3359
   363.14         8.2985
   363.28         8.2613
   363.42         8.2263
   363.56         8.1951
   363.70         8.1701
   363.84         8.1534
   363.98         8.1466
   364.12         8.1488
   364.26         8.1582
   364.40         8.1735
   364.54         8.1940
   364.68         8.2192
   364.82         8.2505
   364.96         8.2903
   365.10         8.3405
   365.24         8.4002
   365.38         8.4663
   365.52         8.5336
   365.66         8.5955
   365.80         8.6461
   365.94         8.6836
   366.08         8.7092
   366.22         8.7245
   366.36         8.7314
   366.50         8.7309
   366.64         8.7221
   366.78         8.7033
   366.92         8.6755
   367.06         8.6425
   367.20         8.6069
   367.34         8.5707
   367.48         8.5351
   367.62         8.5012
   367.76         8.4690
   367.90         8.4392
   368.04         8.4136
   368.18         8.3952
   368.32         8.3874
   368.46         8.3915
   368.60         8.4069
   368.74         8.4301
   368.88         8.4575
   369.02         8.4873
   369.16         8.5172
   369.30         8.5451
   369.44         8.5719
   369.58         8.5993
   369.72         8.6276
   369.86         8.6544
   370.00         8.6768
   370.14         8.6937
   370.28         8.7079
   370.42         8.7268
   370.56         8.7596
   370.70         8.8114
   370.84         8.8809
   370.98         8.9607
   371.12         9.0407
   371.26         9.1131
   371.40         9.1740
   371.54         9.2246
   371.68         9.2703
   371.82         9.3172
   371.96         9.3673
   372.10         9.4172
   372.24         9.4588
   372.38         9.4835
   372.52         9.4881
   372.66         9.4771
   372.80         9.4620
   372.94         9.4573
   373.08         9.4752
   373.22         9.5200
   373.36         9.5867
   373.50         9.6657
   373.64         9.7458
   373.78         9.8155
   373.92         9.8662
   374.06         9.8953
   374.20         9.9051
   374.34         9.8990
   374.48         9.8794
   374.62         9.8488
   374.76         9.8141
   374.90         9.7905
   375.04         9.7997
   375.18         9.8621
   375.32         9.9859
   375.46         10.1644
   375.60         10.3769
   375.74         10.5919
   375.88         10.7728
   376.02         10.8881
   376.16         10.9216
   376.30         10.8757
   376.44         10.7720
   376.58         10.6460
   376.72         10.5389
   376.86         10.4882
   377.00         10.5227
   377.14         10.6624
   377.28         10.9165
   377.42         11.2809
   377.56         11.7364
   377.70         12.2489
   377.84         12.7732
   377.98         13.2614
   378.12         13.6701
   378.26         13.9615
   378.40         14.1055
   378.54         14.0841
   378.68         13.8977
   378.82         13.5666
   378.96         13.1270
   379.10         12.6268
   379.24         12.1217
   379.38         11.6673
   379.52         11.3118
   379.66         11.0943
   379.80         11.0424
   379.94         11.1652
   380.08         11.4523
   380.22         11.8783
   380.36         12.4096
   380.50         13.0077
   380.64         13.6321
   380.78         14.2414
   380.92         14.7963
   381.06         15.2673
   381.20         15.6385
   381.34         15.9057
   381.48         16.0712
   381.62         16.1384
   381.76         16.1099
   381.90         15.9855
   382.04         15.7609
   382.18         15.4309
   382.32         14.9939
   382.46         14.4551
   382.60         13.8294
   382.74         13.1444
   382.88         12.4409
   383.02         11.7679
   383.16         11.1767
   383.30         10.7157
   383.44         10.4247
   383.58         10.3294
   383.72         10.4403
   383.86         10.7517
   384.00         11.2435
   384.14         11.8839
   384.28         12.6323
   384.42         13.4422
   384.56         14.2653
   384.70         15.0560
   384.84         15.7787
   384.98         16.4129
   385.12         16.9537
   385.26         17.4061
   385.40         17.7797
   385.54         18.0858
   385.68         18.3377
   385.82         18.5493
   385.96         18.7297
   386.10         18.8795
   386.24         18.9922
   386.38         19.0587
   386.52         19.0704
   386.66         19.0183
   386.80         18.8947
   386.94         18.6956
   387.08         18.4203
   387.22         18.0689
   387.36         17.6426
   387.50         17.1434
   387.64         16.5735
   387.78         15.9379
   387.92         15.2498
   388.06         14.5333
   388.20         13.8217
   388.34         13.1517
   388.48         12.5578
   388.62         12.0697
   388.76         11.7135
   388.90         11.5109
   389.04         11.4765
   389.18         11.6135
   389.32         11.9116
   389.46         12.3475
   389.60         12.8880
   389.74         13.4963
   389.88         14.1373
   390.02         14.7809
   390.16         15.4042
   390.30         15.9928
   390.44         16.5406
   390.58         17.0459
   390.72         17.5083
   390.86         17.9272
   391.00         18.3027
   391.14         18.6378
   391.28         18.9359
   391.42         19.1982
   391.56         19.4211
   391.70         19.5940
   391.84         19.6992
   391.98         19.7135
   392.12         19.6136
   392.26         19.3853
   392.40         19.0301
   392.54         18.5669
   392.68         18.0295
   392.82         17.4632
   392.96         16.9183
   393.10         16.4423
   393.24         16.0778
   393.38         15.8586
   393.52         15.8026
   393.66         15.9083
   393.80         16.1534
   393.94         16.4988
   394.08         16.8949
   394.22         17.2894
   394.36         17.6336
   394.50         17.8874
   394.64         18.0261
   394.78         18.0438
   394.92         17.9519
   395.06         17.7693
   395.20         17.5116
   395.34         17.1855
   395.48         16.7879
   395.62         16.3081
   395.76         15.7371
   395.90         15.0765
   396.04         14.3410
   396.18         13.5587
   396.32         12.7707
   396.46         12.0277
   396.60         11.3840
   396.74         10.8890
   396.88         10.5805
   397.02         10.4801
   397.16         10.5929
   397.30         10.9103
   397.44         11.4098
   397.58         12.0549
   397.72         12.7996
   397.86         13.5965
   398.00         14.4030
   398.14         15.1818
   398.28         15.9045
   398.42         16.5545
   398.56         17.1265
   398.70         17.6238
   398.84         18.0539
   398.98         18.4244
   399.12         18.7399
   399.26         19.0019
   399.40         19.2110
   399.54         19.3708
   399.68         19.4897
   399.82         19.5790
   399.96         19.6515
   400.10         19.7176
   400.24         19.7851
   400.38         19.8588
   400.52         19.9428
   400.66         20.0387
   400.80         20.1446
   400.94         20.2570
   401.08         20.3718
   401.22         20.4852
   401.36         20.5934
   401.50         20.6923
   401.64         20.7771
   401.78         20.8426
   401.92         20.8847
   402.06         20.9025
   402.20         20.8983
   402.34         20.8764
   402.48         20.8434
   402.62         20.8073
   402.76         20.7749
   402.90         20.7503
   403.04         20.7356
   403.18         20.7301
   403.32         20.7296
   403.46         20.7277
   403.60         20.7192
   403.74         20.7018
   403.88         20.6760
   404.02         20.6441
   404.16         20.6084
   404.30         20.5692
   404.44         20.5258
   404.58         20.4786
   404.72         20.4316
   404.86         20.3905
   405.00         20.3602
   405.14         20.3404
   405.28         20.3248
   405.42         20.3033
   405.56         20.2660
   405.70         20.2080
   405.84         20.1302
   405.98         20.0371
   406.12         19.9344
   406.26         19.8264
   406.40         19.7128
   406.54         19.5886
   406.68         19.4477
   406.82         19.2878
   406.96         19.1117
   407.10         18.9260
   407.24         18.7384
   407.38         18.5554
   407.52         18.3800
   407.66         18.2112
   407.80         18.0451
   407.94         17.8759
   408.08         17.6973
   408.22         17.5016
   408.36         17.2799
   408.50         17.0181
   408.64         16.6973
   408.78         16.2978
   408.92         15.8055
   409.06         15.2184
   409.20         14.5509
   409.34         13.8349
   409.48         13.1137
   409.62         12.4340
   409.76         11.8401
   409.90         11.3707
   410.04         11.0557
   410.18         10.9144
   410.32         10.9544
   410.46         11.1702
   410.60         11.5441
   410.74         12.0475
   410.88         12.6420
   411.02         13.2834
   411.16         13.9288
   411.30         14.5423
   411.44         15.0988
   411.58         15.5855
   411.72         16.0004
   411.86         16.3477
   412.00         16.6346
   412.14         16.8692
   412.28         17.0609
   412.42         17.2219
   412.56         17.3677
   412.70         17.5136
   412.84         17.6727
   412.98         17.8528
   413.12         18.0547
   413.26         18.2735
   413.40         18.5007
   413.54         18.7264
   413.68         18.9402
   413.82         19.1325
   413.96         19.2958
   414.10         19.4247
   414.24         19.5150
   414.38         19.5640
   414.52         19.5723
   414.66         19.5452
   414.80         19.4933
   414.94         19.4301
   415.08         19.3685
   415.22         19.3183
   415.36         19.2852
   415.50         19.2711
   415.64         19.2765
   415.78         19.2993
   415.92         19.3326
   416.06         19.3661
   416.20         19.3886
   416.34         19.3917
   416.48         19.3708
   416.62         19.3235
   416.76         19.2505
   416.90         19.1557
   417.04         19.0470
   417.18         18.9358
   417.32         18.8350
   417.46         18.7556
   417.60         18.7040
   417.74         18.6833
   417.88         18.6940
   418.02         18.7337
   418.16         18.7977
   418.30         18.8789
   418.44         18.9659
   418.58         19.0462
   418.72         19.1128
   418.86         19.1646
   419.00         19.2024
   419.14         19.2252
   419.28         19.2327
   419.42         19.2272
   419.56         19.2130
   419.70         19.1953
   419.84         19.1806
   419.98         19.1748
   420.12         19.1816
   420.26         19.2023
   420.40         19.2374
   420.54         19.2859
   420.68         19.3443
   420.82         19.4075
   420.96         19.4676
   421.10         19.5149
   421.24         19.5408
   421.38         19.5396
   421.52         19.5074
   421.66         19.4438
   421.80         19.3545
   421.94         19.2481
   422.08         19.1330
   422.22         19.0167
   422.36         18.9056
   422.50         18.8035
   422.64         18.7124
   422.78         18.6329
   422.92         18.5669
   423.06         18.5175
   423.20         18.4877
   423.34         18.4772
   423.48         18.4823
   423.62         18.4967
   423.76         18.5134
   423.90         18.5274
   424.04         18.5369
   424.18         18.5441
   424.32         18.5527
   424.46         18.5647
   424.60         18.5787
   424.74         18.5916
   424.88         18.6017
   425.02         18.6108
   425.16         18.6229
   425.30         18.6420
   425.44         18.6695
   425.58         18.7042
   425.72         18.7421
   425.86         18.7755
   426.00         18.7950
   426.14         18.7926
   426.28         18.7653
   426.42         18.7156
   426.56         18.6509
   426.70         18.5815
   426.84         18.5175
   426.98         18.4656
   427.12         18.4282
   427.26         18.4045
   427.40         18.3921
   427.54         18.3881
   427.68         18.3884
   427.82         18.3858
   427.96         18.3705
   428.10         18.3349
   428.24         18.2764
   428.38         18.1962
   428.52         18.0972
   428.66         17.9837
   428.80         17.8600
   428.94         17.7304
   429.08         17.5986
   429.22         17.4688
   429.36         17.3439
   429.50         17.2246
   429.64         17.1094
   429.78         16.9981
   429.92         16.8932
   430.06         16.7988
   430.20         16.7175
   430.34         16.6506
   430.48         16.5993
   430.62         16.5661
   430.76         16.5519
   430.90         16.5533
   431.04         16.5623
   431.18         16.5682
   431.32         16.5598
   431.46         16.5275
   431.60         16.4657
   431.74         16.3731
   431.88         16.2493
   432.02         16.0920
   432.16         15.8972
   432.30         15.6607
   432.44         15.3784
   432.58         15.0446
   432.72         14.6519
   432.86         14.1941
   433.00         13.6724
   433.14         13.0991
   433.28         12.4967
   433.42         11.8945
   433.56         11.3264
   433.70         10.8271
   433.84         10.4298
   433.98         10.1616
   434.12         10.0402
   434.26         10.0740
   434.40         10.2608
   434.54         10.5872
   434.68         11.0299
   434.82         11.5578
   434.96         12.1372
   435.10         12.7363
   435.24         13.3280
   435.38         13.8927
   435.52         14.4181
   435.66         14.8995
   435.80         15.3369
   435.94         15.7329
   436.08         16.0898
   436.22         16.4074
   436.36         16.6841
   436.50         16.9186
   436.64         17.1121
   436.78         17.2682
   436.92         17.3920
   437.06         17.4877
   437.20         17.5549
   437.34         17.5917
   437.48         17.5984
   437.62         17.5800
   437.76         17.5431
   437.90         17.4949
   438.04         17.4416
   438.18         17.3886
   438.32         17.3417
   438.46         17.3079
   438.60         17.2938
   438.74         17.3025
   438.88         17.3321
   439.02         17.3774
   439.16         17.4328
   439.30         17.4933
   439.44         17.5550
   439.58         17.6136
   439.72         17.6649
   439.86         17.7067
   440.00         17.7410
   440.14         17.7709
   440.28         17.7972
   440.42         17.8175
   440.56         17.8285
   440.70         17.8286
   440.84         17.8188
   440.98         17.8017
   441.12         17.7793
   441.26         17.7514
   441.40         17.7161
   441.54         17.6725
   441.68         17.6227
   441.82         17.5716
   441.96         17.5240
   442.10         17.4825
   442.24         17.4476
   442.38         17.4194
   442.52         17.3998
   442.66         17.3913
   442.80         17.3946
   442.94         17.4075
   443.08         17.4256
   443.22         17.4455
   443.36         17.4651
   443.50         17.4821
   443.64         17.4927
   443.78         17.4935
   443.92         17.4833
   444.06         17.4630
   444.20         17.4341
   444.34         17.3983
   444.48         17.3572
   444.62         17.3124
   444.76         17.2665
   444.90         17.2219
   445.04         17.1810
   445.18         17.1453
   445.32         17.1142
   445.46         17.0848
   445.60         17.0535
   445.74         17.0193
   445.88         16.9861
   446.02         16.9594
   446.16         16.9422
   446.30         16.9350
   446.44         16.9384
   446.58         16.9523
   446.72         16.9736
   446.86         16.9964
   447.00         17.0143
   447.14         17.0237
   447.28         17.0233
   447.42         17.0136
   447.56         16.9970
   447.70         16.9759
   447.84         16.9520
   447.98         16.9266
   448.12         16.9021
   448.26         16.8834
   448.40         16.8761
   448.54         16.8841
   448.68         16.9086
   448.82         16.9480
   448.96         16.9993
   449.10         17.0586
   449.24         17.1220
   449.38         17.1853
   449.52         17.2458
   449.66         17.3028
   449.80         17.3562
   449.94         17.4052
   450.08         17.4485
   450.22         17.4842
   450.36         17.5104
   450.50         17.5251
   450.64         17.5263
   450.78         17.5125
   450.92         17.4823
   451.06         17.4348
   451.20         17.3706
   451.34         17.2908
   451.48         17.1968
   451.62         17.0913
   451.76         16.9799
   451.90         16.8679
   452.04         16.7583
   452.18         16.6532
   452.32         16.5573
   452.46         16.4784
   452.60         16.4240
   452.74         16.3970
   452.88         16.3958
   453.02         16.4165
   453.16         16.4532
   453.30         16.4994
   453.44         16.5485
   453.58         16.5933
   453.72         16.6259
   453.86         16.6398
   454.00         16.6308
   454.14         16.5978
   454.28         16.5418
   454.42         16.4653
   454.56         16.3723
   454.70         16.2708
   454.84         16.1720
   454.98         16.0870
   455.12         16.0231
   455.26         15.9824
   455.40         15.9634
   455.54         15.9645
   455.68         15.9845
   455.82         16.0224
   455.96         16.0753
   456.10         16.1384
   456.24         16.2064
   456.38         16.2755
   456.52         16.3422
   456.66         16.4025
   456.80         16.4514
   456.94         16.4831
   457.08         16.4929
   457.22         16.4787
   457.36         16.4425
   457.50         16.3870
   457.64         16.3146
   457.78         16.2291
   457.92         16.1361
   458.06         16.0421
   458.20         15.9555
   458.34         15.8854
   458.48         15.8388
   458.62         15.8192
   458.76         15.8284
   458.90         15.8657
   459.04         15.9272
   459.18         16.0065
   459.32         16.0950
   459.46         16.1831
   459.60         16.2628
   459.74         16.3303
   459.88         16.3862
   460.02         16.4311
   460.16         16.4641
   460.30         16.4844
   460.44         16.4925
   460.58         16.4891
   460.72         16.4758
   460.86         16.4554
   461.00         16.4315
   461.14         16.4075
   461.28         16.3863
   461.42         16.3684
   461.56         16.3529
   461.70         16.3391
   461.84         16.3275
   461.98         16.3182
   462.12         16.3097
   462.26         16.3011
   462.40         16.2928
   462.54         16.2848
   462.68         16.2767
   462.82         16.2682
   462.96         16.2596
   463.10         16.2521
   463.24         16.2479
   463.38         16.2496
   463.52         16.2588
   463.66         16.2750
   463.80         16.2957
   463.94         16.3162
   464.08         16.3327
   464.22         16.3442
   464.36         16.3514
   464.50         16.3561
   464.64         16.3595
   464.78         16.3630
   464.92         16.3695
   465.06         16.3815
   465.20         16.3994
   465.34         16.4198
   465.48         16.4369
   465.62         16.4450
   465.76         16.4390
   465.90         16.4167
   466.04         16.3789
   466.18         16.3286
   466.32         16.2713
   466.46         16.2129
   466.60         16.1572
   466.74         16.1065
   466.88         16.0638
   467.02         16.0328
   467.16         16.0163
   467.30         16.0146
   467.44         16.0264
   467.58         16.0491
   467.72         16.0781
   467.86         16.1076
   468.00         16.1339
   468.14         16.1555
   468.28         16.1728
   468.42         16.1872
   468.56         16.1997
   468.70         16.2096
   468.84         16.2133
   468.98         16.2066
   469.12         16.1858
   469.26         16.1495
   469.40         16.1018
   469.54         16.0496
   469.68         15.9989
   469.82         15.9519
   469.96         15.9087
   470.10         15.8692
   470.24         15.8335
   470.38         15.8020
   470.52         15.7774
   470.66         15.7619
   470.80         15.7558
   470.94         15.7579
   471.08         15.7674
   471.22         15.7823
   471.36         15.8001
   471.50         15.8174
   471.64         15.8315
   471.78         15.8397
   471.92         15.8391
   472.06         15.8297
   472.20         15.8124
   472.34         15.7869
   472.48         15.7527
   472.62         15.7102
   472.76         15.6628
   472.90         15.6160
   473.04         15.5745
   473.18         15.5407
   473.32         15.5156
   473.46         15.5005
   473.60         15.4953
   473.74         15.4989
   473.88         15.5090
   474.02         15.5221
   474.16         15.5353
   474.30         15.5465
   474.44         15.5542
   474.58         15.5582
   474.72         15.5602
   474.86         15.5608
   475.00         15.5580
   475.14         15.5492
   475.28         15.5328
   475.42         15.5099
   475.56         15.4815
   475.70         15.4482
   475.84         15.4117
   475.98         15.3753
   476.12         15.3416
   476.26         15.3114
   476.40         15.2858
   476.54         15.2658
   476.68         15.2535
   476.82         15.2509
   476.96         15.2582
   477.10         15.2735
   477.24         15.2926
   477.38         15.3095
   477.52         15.3168
   477.66         15.3072
   477.80         15.2768
   477.94         15.2269
   478.08         15.1622
   478.22         15.0890
   478.36         15.0138
   478.50         14.9433
   478.64         14.8835
   478.78         14.8378
   478.92         14.8069
   479.06         14.7904
   479.20         14.7866
   479.34         14.7919
   479.48         14.8012
   479.62         14.8095
   479.76         14.8117
   479.90         14.8041
   480.04         14.7850
   480.18         14.7560
   480.32         14.7206
   480.46         14.6829
   480.60         14.6452
   480.74         14.6076
   480.88         14.5684
   481.02         14.5255
   481.16         14.4774
   481.30         14.4240
   481.44         14.3669
   481.58         14.3099
   481.72         14.2576
   481.86         14.2138
   482.00         14.1805
   482.14         14.1576
   482.28         14.1418
   482.42         14.1279
   482.56         14.1101
   482.70         14.0845
   482.84         14.0480
   482.98         13.9980
   483.12         13.9331
   483.26         13.8523
   483.40         13.7556
   483.54         13.6449
   483.68         13.5231
   483.82         13.3933
   483.96         13.2580
   484.10         13.1169
   484.24         12.9663
   484.38         12.8013
   484.52         12.6176
   484.66         12.4117
   484.80         12.1803
   484.94         11.9194
   485.08         11.6255
   485.22         11.2961
   485.36         10.9312
   485.50         10.5352
   485.64         10.1185
   485.78         9.6976
   485.92         9.2938
   486.06         8.9310
   486.20         8.6322
   486.34         8.4168
   486.48         8.2988
   486.62         8.2839
   486.76         8.3699
   486.90         8.5483
   487.04         8.8064
   487.18         9.1284
   487.32         9.4947
   487.46         9.8831
   487.60         10.2710
   487.74         10.6403
   487.88         10.9793
   488.02         11.2837
   488.16         11.5541
   488.30         11.7929
   488.44         12.0038
   488.58         12.1903
   488.72         12.3554
   488.86         12.5024
   489.00         12.6353
   489.14         12.7573
   489.28         12.8706
   489.42         12.9774
   489.56         13.0788
   489.70         13.1752
   489.84         13.2677
   489.98         13.3569
   490.12         13.4419
   490.26         13.5212
   490.40         13.5927
   490.54         13.6553
   490.68         13.7098
   490.82         13.7579
   490.96         13.8008
   491.10         13.8381
   491.24         13.8690
   491.38         13.8921
   491.52         13.9051
   491.66         13.9056
   491.80         13.8933
   491.94         13.8712
   492.08         13.8447
   492.22         13.8193
   492.36         13.8003
   492.50         13.7918
   492.64         13.7936
   492.78         13.8022
   492.92         13.8144
   493.06         13.8279
   493.20         13.8421
   493.34         13.8557
   493.48         13.8665
   493.62         13.8728
   493.76         13.8744
   493.90         13.8735
   494.04         13.8734
   494.18         13.8778
   494.32         13.8903
   494.46         13.9130
   494.60         13.9460
   494.74         13.9882
   494.88         14.0360
   495.02         14.0836
   495.16         14.1241
   495.30         14.1528
   495.44         14.1678
   495.58         14.1684
   495.72         14.1540
   495.86         14.1259
   496.00         14.0872
   496.14         14.0414
   496.28         13.9926
   496.42         13.9454
   496.56         13.9046
   496.70         13.8745
   496.84         13.8578
   496.98         13.8551
   497.12         13.8651
   497.26         13.8844
   497.40         13.9061
   497.54         13.9214
   497.68         13.9216
   497.82         13.9019
   497.96         13.8614
   498.10         13.8018
   498.24         13.7272
   498.38         13.6447
   498.52         13.5631
   498.66         13.4905
   498.80         13.4336
   498.94         13.3966
   499.08         13.3788
   499.22         13.3731
   499.36         13.3702
   499.50         13.3629
   499.64         13.3453
   499.78         13.3129
   499.92         13.2627
   500.06         13.1952
   500.20         13.1155
   500.34         13.0316
   500.48         12.9525
   500.62         12.8867
   500.76         12.8403
   500.90         12.8160
   501.04         12.8116
   501.18         12.8205
   501.32         12.8357
   501.46         12.8519
   501.60         12.8657
   501.74         12.8754
   501.88         12.8818
   502.02         12.8893
   502.16         12.9020
   502.30         12.9213
   502.44         12.9491
   502.58         12.9869
   502.72         13.0344
   502.86         13.0893
   503.00         13.1468
   503.14         13.2005
   503.28         13.2437
   503.42         13.2704
   503.56         13.2768
   503.70         13.2623
   503.84         13.2311
   503.98         13.1898
   504.12         13.1452
   504.26         13.1006
   504.40         13.0569
   504.54         13.0153
   504.68         12.9772
   504.82         12.9438
   504.96         12.9165
   505.10         12.8964
   505.24         12.8829
   505.38         12.8750
   505.52         12.8725
   505.66         12.8752
   505.80         12.8812
   505.94         12.8870
   506.08         12.8896
   506.22         12.8881
   506.36         12.8827
   506.50         12.8725
   506.64         12.8564
   506.78         12.8335
   506.92         12.8047
   507.06         12.7714
   507.20         12.7360
   507.34         12.7013
   507.48         12.6700
   507.62         12.6451
   507.76         12.6294
   507.90         12.6243
   508.04         12.6292
   508.18         12.6423
   508.32         12.6602
   508.46         12.6803
   508.60         12.7022
   508.74         12.7273
   508.88         12.7559
   509.02         12.7863
   509.16         12.8158
   509.30         12.8418
   509.44         12.8630
   509.58         12.8796
   509.72         12.8930
   509.86         12.9049
   510.00         12.9167
   510.14         12.9291
   510.28         12.9420
   510.42         12.9562
   510.56         12.9718
   510.70         12.9884
   510.84         13.0052
   510.98         13.0212
   511.12         13.0352
   511.26         13.0460
   511.40         13.0520
   511.54         13.0529
   511.68         13.0490
   511.82         13.0413
   511.96         13.0303
   512.10         13.0161
   512.24         12.9978
   512.38         12.9734
   512.52         12.9421
   512.66         12.9046
   512.80         12.8626
   512.94         12.8185
   513.08         12.7733
   513.22         12.7262
   513.36         12.6769
   513.50         12.6274
   513.64         12.5811
   513.78         12.5408
   513.92         12.5082
   514.06         12.4839
   514.20         12.4678
   514.34         12.4591
   514.48         12.4558
   514.62         12.4545
   514.76         12.4515
   514.90         12.4443
   515.04         12.4329
   515.18         12.4188
   515.32         12.4031
   515.46         12.3857
   515.60         12.3669
   515.74         12.3466
   515.88         12.3244
   516.02         12.2993
   516.16         12.2688
   516.30         12.2290
   516.44         12.1759
   516.58         12.1083
   516.72         12.0293
   516.86         11.9450
   517.00         11.8632
   517.14         11.7918
   517.28         11.7378
   517.42         11.7068
   517.56         11.7007
   517.70         11.7177
   517.84         11.7529
   517.98         11.7996
   518.12         11.8514
   518.26         11.9020
   518.40         11.9444
   518.54         11.9720
   518.68         11.9808
   518.82         11.9701
   518.96         11.9419
   519.10         11.9009
   519.24         11.8544
   519.38         11.8100
   519.52         11.7732
   519.66         11.7466
   519.80         11.7297
   519.94         11.7201
   520.08         11.7151
   520.22         11.7127
   520.36         11.7135
   520.50         11.7194
   520.64         11.7308
   520.78         11.7470
   520.92         11.7653
   521.06         11.7832
   521.20         11.8005
   521.34         11.8184
   521.48         11.8384
   521.62         11.8615
   521.76         11.8866
   521.90         11.9105
   522.04         11.9280
   522.18         11.9340
   522.32         11.9244
   522.46         11.8978
   522.60         11.8559
   522.74         11.8019
   522.88         11.7401
   523.02         11.6770
   523.16         11.6194
   523.30         11.5728
   523.44         11.5413
   523.58         11.5277
   523.72         11.5330
   523.86         11.5559
   524.00         11.5928
   524.14         11.6389
   524.28         11.6887
   524.42         11.7369
   524.56         11.7802
   524.70         11.8172
   524.84         11.8478
   524.98         11.8727
   525.12         11.8923
   525.26         11.9061
   525.40         11.9125
   525.54         11.9102
   525.68         11.8977
   525.82         11.8726
   525.96         11.8325
   526.10         11.7761
   526.24         11.7039
   526.38         11.6181
   526.52         11.5227
   526.66         11.4229
   526.80         11.3244
   526.94         11.2327
   527.08         11.1533
   527.22         11.0908
   527.36         11.0483
   527.50         11.0268
   527.64         11.0248
   527.78         11.0397
   527.92         11.0680
   528.06         11.1068
   528.20         11.1541
   528.34         11.2077
   528.48         11.2650
   528.62         11.3239
   528.76         11.3824
   528.90         11.4392
   529.04         11.4927
   529.18         11.5409
   529.32         11.5817
   529.46         11.6134
   529.60         11.6345
   529.74         11.6455
   529.88         11.6473
   530.02         11.6415
   530.16         11.6308
   530.30         11.6181
   530.44         11.6066
   530.58         11.5979
   530.72         11.5914
   530.86         11.5848
   531.00         11.5748
   531.14         11.5591
   531.28         11.5371
   531.42         11.5083
   531.56         11.4718
   531.70         11.4276
   531.84         11.3765
   531.98         11.3204
   532.12         11.2612
   532.26         11.2022
   532.40         11.1472
   532.54         11.1007
   532.68         11.0663
   532.82         11.0458
   532.96         11.0383
   533.10         11.0413
   533.24         11.0524
   533.38         11.0697
   533.52         11.0922
   533.66         11.1186
   533.80         11.1475
   533.94         11.1762
   534.08         11.2025
   534.22         11.2249
   534.36         11.2431
   534.50         11.2578
   534.64         11.2709
   534.78         11.2854
   534.92         11.3041
   535.06         11.3288
   535.20         11.3594
   535.34         11.3936
   535.48         11.4269
   535.62         11.4546
   535.76         11.4728
   535.90         11.4787
   536.04         11.4706
   536.18         11.4473
   536.32         11.4099
   536.46         11.3613
   536.60         11.3056
   536.74         11.2472
   536.88         11.1901
   537.02         11.1382
   537.16         11.0942
   537.30         11.0603
   537.44         11.0370
   537.58         11.0240
   537.72         11.0216
   537.86         11.0289
   538.00         11.0435
   538.14         11.0618
   538.28         11.0810
   538.42         11.0999
   538.56         11.1188
   538.70         11.1376
   538.84         11.1548
   538.98         11.1681
   539.12         11.1742
   539.26         11.1706
   539.40         11.1560
   539.54         11.1310
   539.68         11.0965
   539.82         11.0544
   539.96         11.0074
   540.10         10.9587
   540.24         10.9115
   540.38         10.8682
   540.52         10.8302
   540.66         10.7979
   540.80         10.7715
   540.94         10.7505
   541.08         10.7338
   541.22         10.7211
   541.36         10.7123
   541.50         10.7067
   541.64         10.7031
   541.78         10.6998
   541.92         10.6960
   542.06         10.6922
   542.20         10.6887
   542.34         10.6859
   542.48         10.6848
   542.62         10.6867
   542.76         10.6922
   542.90         10.7015
   543.04         10.7144
   543.18         10.7301
   543.32         10.7479
   543.46         10.7666
   543.60         10.7854
   543.74         10.8037
   543.88         10.8194
   544.02         10.8287
   544.16         10.8284
   544.30         10.8182
   544.44         10.8005
   544.58         10.7788
   544.72         10.7552
   544.86         10.7307
   545.00         10.7063
   545.14         10.6835
   545.28         10.6638
   545.42         10.6490
   545.56         10.6399
   545.70         10.6366
   545.84         10.6388
   545.98         10.6448
   546.12         10.6531
   546.26         10.6621
   546.40         10.6708
   546.54         10.6794
   546.68         10.6886
   546.82         10.6983
   546.96         10.7068
   547.10         10.7117
   547.24         10.7119
   547.38         10.7082
   547.52         10.7027
   547.66         10.6978
   547.80         10.6960
   547.94         10.6988
   548.08         10.7065
   548.22         10.7180
   548.36         10.7319
   548.50         10.7471
   548.64         10.7626
   548.78         10.7768
   548.92         10.7884
   549.06         10.7954
   549.20         10.7956
   549.34         10.7873
   549.48         10.7708
   549.62         10.7485
   549.76         10.7244
   549.90         10.7021
   550.04         10.6832
   550.18         10.6682
   550.32         10.6574
   550.46         10.6507
   550.60         10.6471
   550.74         10.6450
   550.88         10.6426
   551.02         10.6398
   551.16         10.6365
   551.30         10.6325
   551.44         10.6271
   551.58         10.6206
   551.72         10.6138
   551.86         10.6077
   552.00         10.6027
   552.14         10.5986
   552.28         10.5945
   552.42         10.5893
   552.56         10.5818
   552.70         10.5705
   552.84         10.5541
   552.98         10.5321
   553.12         10.5051
   553.26         10.4753
   553.40         10.4454
   553.54         10.4177
   553.68         10.3937
   553.82         10.3745
   553.96         10.3608
   554.10         10.3540
   554.24         10.3557
   554.38         10.3667
   554.52         10.3860
   554.66         10.4119
   554.80         10.4428
   554.94         10.4769
   555.08         10.5117
   555.22         10.5441
   555.36         10.5711
   555.50         10.5909
   555.64         10.6029
   555.78         10.6068
   555.92         10.6011
   556.06         10.5828
   556.20         10.5506
   556.34         10.5053
   556.48         10.4491
   556.62         10.3849
   556.76         10.3172
   556.90         10.2505
   557.04         10.1887
   557.18         10.1351
   557.32         10.0929
   557.46         10.0647
   557.60         10.0515
   557.74         10.0523
   557.88         10.0644
   558.02         10.0841
   558.16         10.1070
   558.30         10.1281
   558.44         10.1418
   558.58         10.1437
   558.72         10.1324
   558.86         10.1101
   559.00         10.0806
   559.14         10.0477
   559.28         10.0155
   559.42         9.9871
   559.56         9.9645
   559.70         9.9485
   559.84         9.9398
   559.98         9.9380
   560.12         9.9420
   560.26         9.9500
   560.40         9.9605
   560.54         9.9724
   560.68         9.9845
   560.82         9.9946
   560.96         10.0002
   561.10         9.9999
   561.24         9.9941
   561.38         9.9846
   561.52         9.9729
   561.66         9.9596
   561.80         9.9450
   561.94         9.9289
   562.08         9.9125
   562.22         9.8976
   562.36         9.8862
   562.50         9.8792
   562.64         9.8761
   562.78         9.8758
   562.92         9.8762
   563.06         9.8738
   563.20         9.8650
   563.34         9.8470
   563.48         9.8192
   563.62         9.7834
   563.76         9.7435
   563.90         9.7037
   564.04         9.6677
   564.18         9.6385
   564.32         9.6180
   564.46         9.6074
   564.60         9.6067
   564.74         9.6153
   564.88         9.6310
   565.02         9.6505
   565.16         9.6696
   565.30         9.6842
   565.44         9.6906
   565.58         9.6860
   565.72         9.6696
   565.86         9.6428
   566.00         9.6087
   566.14         9.5703
   566.28         9.5314
   566.42         9.4963
   566.56         9.4694
   566.70         9.4541
   566.84         9.4514
   566.98         9.4604
   567.12         9.4784
   567.26         9.5032
   567.40         9.5324
   567.54         9.5630
   567.68         9.5920
   567.82         9.6162
   567.96         9.6329
   568.10         9.6405
   568.24         9.6383
   568.38         9.6265
   568.52         9.6057
   568.66         9.5775
   568.80         9.5452
   568.94         9.5138
   569.08         9.4876
   569.22         9.4686
   569.36         9.4568
   569.50         9.4515
   569.64         9.4522
   569.78         9.4588
   569.92         9.4696
   570.06         9.4809
   570.20         9.4887
   570.34         9.4900
   570.48         9.4830
   570.62         9.4672
   570.76         9.4432
   570.90         9.4133
   571.04         9.3809
   571.18         9.3499
   571.32         9.3244
   571.46         9.3079
   571.60         9.3024
   571.74         9.3077
   571.88         9.3217
   572.02         9.3418
   572.16         9.3659
   572.30         9.3916
   572.44         9.4164
   572.58         9.4378
   572.72         9.4551
   572.86         9.4681
   573.00         9.4763
   573.14         9.4788
   573.28         9.4755
   573.42         9.4669
   573.56         9.4540
   573.70         9.4370
   573.84         9.4165
   573.98         9.3934
   574.12         9.3684
   574.26         9.3424
   574.40         9.3164
   574.54         9.2920
   574.68         9.2710
   574.82         9.2553
   574.96         9.2465
   575.10         9.2453
   575.24         9.2507
   575.38         9.2602
   575.52         9.2706
   575.66         9.2794
   575.80         9.2851
   575.94         9.2870
   576.08         9.2846
   576.22         9.2780
   576.36         9.2678
   576.50         9.2561
   576.64         9.2455
   576.78         9.2388
   576.92         9.2385
   577.06         9.2465
   577.20         9.2627
   577.34         9.2856
   577.48         9.3126
   577.62         9.3404
   577.76         9.3652
   577.90         9.3834
   578.04         9.3933
   578.18         9.3945
   578.32         9.3878
   578.46         9.3744
   578.60         9.3556
   578.74         9.3328
   578.88         9.3083
   579.02         9.2846
   579.16         9.2629
   579.30         9.2432
   579.44         9.2247
   579.58         9.2068
   579.72         9.1893
   579.86         9.1724
   580.00         9.1571
   580.14         9.1450
   580.28         9.1371
   580.42         9.1339
   580.56         9.1359
   580.70         9.1435
   580.84         9.1567
   580.98         9.1740
   581.12         9.1933
   581.26         9.2128
   581.40         9.2306
   581.54         9.2442
   581.68         9.2509
   581.82         9.2485
   581.96         9.2361
   582.10         9.2139
   582.24         9.1832
   582.38         9.1464
   582.52         9.1058
   582.66         9.0630
   582.80         9.0202
   582.94         8.9803
   583.08         8.9466
   583.22         8.9219
   583.36         8.9083
   583.50         8.9062
   583.64         8.9143
   583.78         8.9306
   583.92         8.9528
   584.06         8.9786
   584.20         9.0055
   584.34         9.0321
   584.48         9.0568
   584.62         9.0777
   584.76         9.0933
   584.90         9.1025
   585.04         9.1040
   585.18         9.0965
   585.32         9.0805
   585.46         9.0580
   585.60         9.0310
   585.74         9.0012
   585.88         8.9710
   586.02         8.9431
   586.16         8.9201
   586.30         8.9035
   586.44         8.8942
   586.58         8.8930
   586.72         8.8994
   586.86         8.9122
   587.00         8.9289
   587.14         8.9462
   587.28         8.9602
   587.42         8.9687
   587.56         8.9700
   587.70         8.9640
   587.84         8.9517
   587.98         8.9338
   588.12         8.9085
   588.26         8.8724
   588.40         8.8245
   588.54         8.7663
   588.68         8.7009
   588.82         8.6305
   588.96         8.5574
   589.10         8.4857
   589.24         8.4203
   589.38         8.3662
   589.52         8.3279
   589.66         8.3086
   589.80         8.3102
   589.94         8.3341
   590.08         8.3794
   590.22         8.4427
   590.36         8.5183
   590.50         8.5997
   590.64         8.6799
   590.78         8.7524
   590.92         8.8134
   591.06         8.8618
   591.20         8.8972
   591.34         8.9188
   591.48         8.9257
   591.62         8.9194
   591.76         8.9029
   591.90         8.8791
   592.04         8.8511
   592.18         8.8223
   592.32         8.7960
   592.46         8.7743
   592.60         8.7589
   592.74         8.7503
   592.88         8.7484
   593.02         8.7523
   593.16         8.7594
   593.30         8.7661
   593.44         8.7694
   593.58         8.7670
   593.72         8.7574
   593.86         8.7394
   594.00         8.7115
   594.14         8.6740
   594.28         8.6297
   594.42         8.5828
   594.56         8.5373
   594.70         8.4965
   594.84         8.4636
   594.98         8.4408
   595.12         8.4283
   595.26         8.4250
   595.40         8.4279
   595.54         8.4336
   595.68         8.4393
   595.82         8.4436
   595.96         8.4459
   596.10         8.4462
   596.24         8.4443
   596.38         8.4408
   596.52         8.4370
   596.66         8.4338
   596.80         8.4320
   596.94         8.4313
   597.08         8.4311
   597.22         8.4307
   597.36         8.4299
   597.50         8.4286
   597.64         8.4262
   597.78         8.4214
   597.92         8.4129
   598.06         8.4004
   598.20         8.3849
   598.34         8.3674
   598.48         8.3488
   598.62         8.3302
   598.76         8.3127
   598.90         8.2967
   599.04         8.2825
   599.18         8.2704
   599.32         8.2603
   599.46         8.2528
   599.60         8.2492
   599.74         8.2506
   599.88         8.2574
   600.02         8.2688
   600.16         8.2831
   600.30         8.2980
   600.44         8.3117
   600.58         8.3230
   600.72         8.3312
   600.86         8.3356
   601.00         8.3353
   601.14         8.3296
   601.28         8.3183
   601.42         8.3011
   601.56         8.2782
   601.70         8.2510
   601.84         8.2211
   601.98         8.1910
   602.12         8.1636
   602.26         8.1414
   602.40         8.1263
   602.54         8.1194
   602.68         8.1207
   602.82         8.1295
   602.96         8.1438
   603.10         8.1610
   603.24         8.1780
   603.38         8.1923
   603.52         8.2021
   603.66         8.2063
   603.80         8.2047
   603.94         8.1979
   604.08         8.1871
   604.22         8.1734
   604.36         8.1583
   604.50         8.1436
   604.64         8.1316
   604.78         8.1240
   604.92         8.1211
   605.06         8.1226
   605.20         8.1278
   605.34         8.1360
   605.48         8.1462
   605.62         8.1569
   605.76         8.1676
   605.90         8.1778
   606.04         8.1875
   606.18         8.1957
   606.32         8.2016
   606.46         8.2040
   606.60         8.2018
   606.74         8.1938
   606.88         8.1801
   607.02         8.1614
   607.16         8.1397
   607.30         8.1165
   607.44         8.0929
   607.58         8.0697
   607.72         8.0470
   607.86         8.0245
   608.00         8.0019
   608.14         7.9795
   608.28         7.9580
   608.42         7.9385
   608.56         7.9219
   608.70         7.9085
   608.84         7.8977
   608.98         7.8891
   609.12         7.8821
   609.26         7.8769
   609.40         7.8742
   609.54         7.8747
   609.68         7.8792
   609.82         7.8876
   609.96         7.8990
   610.10         7.9119
   610.24         7.9247
   610.38         7.9358
   610.52         7.9448
   610.66         7.9519
   610.80         7.9572
   610.94         7.9595
   611.08         7.9570
   611.22         7.9482
   611.36         7.9328
   611.50         7.9117
   611.64         7.8868
   611.78         7.8605
   611.92         7.8349
   612.06         7.8122
   612.20         7.7939
   612.34         7.7800
   612.48         7.7694
   612.62         7.7609
   612.76         7.7537
   612.90         7.7464
   613.04         7.7386
   613.18         7.7302
   613.32         7.7211
   613.46         7.7109
   613.60         7.6997
   613.74         7.6893
   613.88         7.6822
   614.02         7.6806
   614.16         7.6852
   614.30         7.6953
   614.44         7.7096
   614.58         7.7270
   614.72         7.7465
   614.86         7.7659
   615.00         7.7832
   615.14         7.7966
   615.28         7.8057
   615.42         7.8104
   615.56         7.8112
   615.70         7.8088
   615.84         7.8036
   615.98         7.7955
   616.12         7.7851
   616.26         7.7731
   616.40         7.7598
   616.54         7.7451
   616.68         7.7288
   616.82         7.7109
   616.96         7.6918
   617.10         7.6722
   617.24         7.6533
   617.38         7.6356
   617.52         7.6196
   617.66         7.6058
   617.80         7.5949
   617.94         7.5872
   618.08         7.5830
   618.22         7.5825
   618.36         7.5851
   618.50         7.5899
   618.64         7.5958
   618.78         7.6017
   618.92         7.6067
   619.06         7.6106
   619.20         7.6132
   619.34         7.6148
   619.48         7.6156
   619.62         7.6159
   619.76         7.6163
   619.90         7.6175
   620.04         7.6199
   620.18         7.6235
   620.32         7.6279
   620.46         7.6327
   620.60         7.6374
   620.74         7.6415
   620.88         7.6443
   621.02         7.6450
   621.16         7.6436
   621.30         7.6402
   621.44         7.6353
   621.58         7.6290
   621.72         7.6208
   621.86         7.6095
   622.00         7.5945
   622.14         7.5760
   622.28         7.5549
   622.42         7.5329
   622.56         7.5112
   622.70         7.4907
   622.84         7.4723
   622.98         7.4574
   623.12         7.4470
   623.26         7.4409
   623.40         7.4381
   623.54         7.4368
   623.68         7.4348
   623.82         7.4308
   623.96         7.4240
   624.10         7.4149
   624.24         7.4039
   624.38         7.3924
   624.52         7.3814
   624.66         7.3723
   624.80         7.3666
   624.94         7.3644
   625.08         7.3638
   625.22         7.3607
   625.36         7.3514
   625.50         7.3344
   625.64         7.3099
   625.78         7.2791
   625.92         7.2432
   626.06         7.2049
   626.20         7.1679
   626.34         7.1372
   626.48         7.1173
   626.62         7.1101
   626.76         7.1148
   626.90         7.1284
   627.04         7.1469
   627.18         7.1657
   627.32         7.1804
   627.46         7.1877
   627.60         7.1857
   627.74         7.1740
   627.88         7.1546
   628.02         7.1318
   628.16         7.1107
   628.30         7.0949
   628.44         7.0863
   628.58         7.0855
   628.72         7.0924
   628.86         7.1060
   629.00         7.1243
   629.14         7.1442
   629.28         7.1622
   629.42         7.1753
   629.56         7.1823
   629.70         7.1834
   629.84         7.1798
   629.98         7.1731
   630.12         7.1652
   630.26         7.1577
   630.40         7.1522
   630.54         7.1499
   630.68         7.1511
   630.82         7.1556
   630.96         7.1620
   631.10         7.1690
   631.24         7.1753
   631.38         7.1804
   631.52         7.1843
   631.66         7.1876
   631.80         7.1901
   631.94         7.1916
   632.08         7.1914
   632.22         7.1894
   632.36         7.1858
   632.50         7.1807
   632.64         7.1738
   632.78         7.1656
   632.92         7.1569
   633.06         7.1483
   633.20         7.1403
   633.34         7.1323
   633.48         7.1239
   633.62         7.1154
   633.76         7.1076
   633.90         7.1013
   634.04         7.0970
   634.18         7.0951
   634.32         7.0954
   634.46         7.0978
   634.60         7.1028
   634.74         7.1112
   634.88         7.1236
   635.02         7.1403
   635.16         7.1603
   635.30         7.1812
   635.44         7.2006
   635.58         7.2162
   635.72         7.2263
   635.86         7.2294
   636.00         7.2246
   636.14         7.2122
   636.28         7.1939
   636.42         7.1721
   636.56         7.1493
   636.70         7.1272
   636.84         7.1063
   636.98         7.0865
   637.12         7.0675
   637.26         7.0494
   637.40         7.0320
   637.54         7.0159
   637.68         7.0013
   637.82         6.9886
   637.96         6.9789
   638.10         6.9738
   638.24         6.9743
   638.38         6.9810
   638.52         6.9940
   638.66         7.0132
   638.80         7.0379
   638.94         7.0659
   639.08         7.0939
   639.22         7.1179
   639.36         7.1346
   639.50         7.1427
   639.64         7.1428
   639.78         7.1367
   639.92         7.1265
   640.06         7.1136
   640.20         7.0990
   640.34         7.0830
   640.48         7.0654
   640.62         7.0452
   640.76         7.0221
   640.90         6.9963
   641.04         6.9695
   641.18         6.9433
   641.32         6.9188
   641.46         6.8967
   641.60         6.8782
   641.74         6.8644
   641.88         6.8568
   642.02         6.8564
   642.16         6.8625
   642.30         6.8740
   642.44         6.8895
   642.58         6.9076
   642.72         6.9265
   642.86         6.9442
   643.00         6.9582
   643.14         6.9662
   643.28         6.9677
   643.42         6.9635
   643.56         6.9542
   643.70         6.9405
   643.84         6.9232
   643.98         6.9036
   644.12         6.8834
   644.26         6.8644
   644.40         6.8473
   644.54         6.8322
   644.68         6.8191
   644.82         6.8084
   644.96         6.8006
   645.10         6.7956
   645.24         6.7917
   645.38         6.7869
   645.52         6.7800
   645.66         6.7706
   645.80         6.7596
   645.94         6.7480
   646.08         6.7375
   646.22         6.7292
   646.36         6.7241
   646.50         6.7228
   646.64         6.7253
   646.78         6.7311
   646.92         6.7389
   647.06         6.7473
   647.20         6.7548
   647.34         6.7601
   647.48         6.7619
   647.62         6.7598
   647.76         6.7540
   647.90         6.7445
   648.04         6.7313
   648.18         6.7139
   648.32         6.6922
   648.46         6.6662
   648.60         6.6369
   648.74         6.6062
   648.88         6.5762
   649.02         6.5493
   649.16         6.5281
   649.30         6.5144
   649.44         6.5093
   649.58         6.5137
   649.72         6.5282
   649.86         6.5523
   650.00         6.5845
   650.14         6.6227
   650.28         6.6635
   650.42         6.7021
   650.56         6.7345
   650.70         6.7585
   650.84         6.7741
   650.98         6.7831
   651.12         6.7882
   651.26         6.7914
   651.40         6.7940
   651.54         6.7962
   651.68         6.7976
   651.82         6.7970
   651.96         6.7932
   652.10         6.7854
   652.24         6.7732
   652.38         6.7557
   652.52         6.7322
   652.66         6.7023
   652.80         6.6667
   652.94         6.6269
   653.08         6.5846
   653.22         6.5421
   653.36         6.5005
   653.50         6.4603
   653.64         6.4207
   653.78         6.3802
   653.92         6.3371
   654.06         6.2898
   654.20         6.2368
   654.34         6.1761
   654.48         6.1058
   654.62         6.0236
   654.76         5.9268
   654.90         5.8124
   655.04         5.6782
   655.18         5.5245
   655.32         5.3550
   655.46         5.1764
   655.60         4.9982
   655.74         4.8311
   655.88         4.6860
   656.02         4.5732
   656.16         4.5008
   656.30         4.4738
   656.44         4.4941
   656.58         4.5596
   656.72         4.6652
   656.86         4.8029
   657.00         4.9626
   657.14         5.1332
   657.28         5.3047
   657.42         5.4682
   657.56         5.6176
   657.70         5.7499
   657.84         5.8645
   657.98         5.9627
   658.12         6.0462
   658.26         6.1163
   658.40         6.1746
   658.54         6.2225
   658.68         6.2622
   658.82         6.2959
   658.96         6.3256
   659.10         6.3529
   659.24         6.3795
   659.38         6.4056
   659.52         6.4306
   659.66         6.4532
   659.80         6.4730
   659.94         6.4900
   660.08         6.5040
   660.22         6.5147
   660.36         6.5213
   660.50         6.5237
   660.64         6.5222
   660.78         6.5177
   660.92         6.5109
   661.06         6.5033
   661.20         6.4961
   661.34         6.4905
   661.48         6.4869
   661.62         6.4857
   661.76         6.4872
   661.90         6.4905
   662.04         6.4939
   662.18         6.4964
   662.32         6.4985
   662.46         6.5011
   662.60         6.5047
   662.74         6.5087
   662.88         6.5125
   663.02         6.5154
   663.16         6.5171
   663.30         6.5174
   663.44         6.5161
   663.58         6.5129
   663.72         6.5076
   663.86         6.5000
   664.00         6.4901
   664.14         6.4785
   664.28         6.4663
   664.42         6.4538
   664.56         6.4414
   664.70         6.4298
   664.84         6.4201
   664.98         6.4125
   665.12         6.4065
   665.26         6.4014
   665.40         6.3970
   665.54         6.3938
   665.68         6.3919
   665.82         6.3919
   665.96         6.3939
   666.10         6.3974
   666.24         6.4017
   666.38         6.4058
   666.52         6.4085
   666.66         6.4090
   666.80         6.4068
   666.94         6.4014
   667.08         6.3923
   667.22         6.3790
   667.36         6.3624
   667.50         6.3435
   667.64         6.3242
   667.78         6.3063
   667.92         6.2921
   668.06         6.2829
   668.20         6.2792
   668.34         6.2804
   668.48         6.2854
   668.62         6.2932
   668.76         6.3026
   668.90         6.3126
   669.04         6.3225
   669.18         6.3317
   669.32         6.3399
   669.46         6.3466
   669.60         6.3515
   669.74         6.3546
   669.88         6.3563
   670.02         6.3568
   670.16         6.3560
   670.30         6.3536
   670.44         6.3490
   670.58         6.3416
   670.72         6.3307
   670.86         6.3162
   671.00         6.2985
   671.14         6.2783
   671.28         6.2571
   671.42         6.2366
   671.56         6.2184
   671.70         6.2036
   671.84         6.1928
   671.98         6.1861
   672.12         6.1835
   672.26         6.1851
   672.40         6.1904
   672.54         6.1982
   672.68         6.2070
   672.82         6.2149
   672.96         6.2199
   673.10         6.2208
   673.24         6.2177
   673.38         6.2115
   673.52         6.2040
   673.66         6.1969
   673.80         6.1912
   673.94         6.1872
   674.08         6.1844
   674.22         6.1821
   674.36         6.1792
   674.50         6.1748
   674.64         6.1683
   674.78         6.1597
   674.92         6.1495
   675.06         6.1381
   675.20         6.1266
   675.34         6.1160
   675.48         6.1076
   675.62         6.1022
   675.76         6.1002
   675.90         6.1019
   676.04         6.1069
   676.18         6.1140
   676.32         6.1210
   676.46         6.1256
   676.60         6.1268
   676.74         6.1239
   676.88         6.1160
   677.02         6.1026
   677.16         6.0843
   677.30         6.0624
   677.44         6.0392
   677.58         6.0170
   677.72         5.9975
   677.86         5.9819
   678.00         5.9698
   678.14         5.9604
   678.28         5.9532
   678.42         5.9484
   678.56         5.9462
   678.70         5.9464
   678.84         5.9484
   678.98         5.9517
   679.12         5.9556
   679.26         5.9598
   679.40         5.9639
   679.54         5.9683
   679.68         5.9733
   679.82         5.9797
   679.96         5.9874
   680.10         5.9961
   680.24         6.0053
   680.38         6.0144
   680.52         6.0226
   680.66         6.0294
   680.80         6.0346
   680.94         6.0385
   681.08         6.0408
   681.22         6.0414
   681.36         6.0396
   681.50         6.0348
   681.64         6.0267
   681.78         6.0153
   681.92         6.0015
   682.06         5.9865
   682.20         5.9714
   682.34         5.9570
   682.48         5.9441
   682.62         5.9340
   682.76         5.9279
   682.90         5.9261
   683.04         5.9283
   683.18         5.9334
   683.32         5.9400
   683.46         5.9469
   683.60         5.9527
   683.74         5.9565
   683.88         5.9577
   684.02         5.9561
   684.16         5.9522
   684.30         5.9470
   684.44         5.9414
   684.58         5.9356
   684.72         5.9294
   684.86         5.9221
   685.00         5.9137
   685.14         5.9042
   685.28         5.8931
   685.42         5.8794
   685.56         5.8601
   685.70         5.8303
   685.84         5.7847
   685.98         5.7195
   686.12         5.6327
   686.26         5.5246
   686.40         5.3985
   686.54         5.2603
   686.68         5.1184
   686.82         4.9829
   686.96         4.8641
   687.10         4.7714
   687.24         4.7122
   687.38         4.6900
   687.52         4.7040
   687.66         4.7497
   687.80         4.8190
   687.94         4.9019
   688.08         4.9876
   688.22         5.0659
   688.36         5.1294
   688.50         5.1752
   688.64         5.2037
   688.78         5.2175
   688.92         5.2201
   689.06         5.2162
   689.20         5.2108
   689.34         5.2079
   689.48         5.2103
   689.62         5.2198
   689.76         5.2363
   689.90         5.2587
   690.04         5.2853
   690.18         5.3146
   690.32         5.3452
   690.46         5.3757
   690.60         5.4052
   690.74         5.4326
   690.88         5.4574
   691.02         5.4803
   691.16         5.5016
   691.30         5.5214
   691.44         5.5394
   691.58         5.5550
   691.72         5.5679
   691.86         5.5775
   692.00         5.5836
   692.14         5.5866
   692.28         5.5870
   692.42         5.5853
   692.56         5.5814
   692.70         5.5750
   692.84         5.5658
   692.98         5.5538
   693.12         5.5396
   693.26         5.5248
   693.40         5.5107
   693.54         5.4986
   693.68         5.4886
   693.82         5.4803
   693.96         5.4735
   694.10         5.4684
   694.24         5.4656
   694.38         5.4655
   694.52         5.4683
   694.66         5.4743
   694.80         5.4833
   694.94         5.4945
   695.08         5.5062
   695.22         5.5173
   695.36         5.5276
   695.50         5.5376
   695.64         5.5480
   695.78         5.5597
   695.92         5.5728
   696.06         5.5871
   696.20         5.6027
   696.34         5.6191
   696.48         5.6358
   696.62         5.6523
   696.76         5.6675
   696.90         5.6798
   697.04         5.6874
   697.18         5.6894
   697.32         5.6861
   697.46         5.6784
   697.60         5.6672
   697.74         5.6539
   697.88         5.6405
   698.02         5.6289
   698.16         5.6203
   698.30         5.6152
   698.44         5.6135
   698.58         5.6148
   698.72         5.6182
   698.86         5.6223
   699.00         5.6252
   699.14         5.6254
   699.28         5.6222
   699.42         5.6151
   699.56         5.6043
   699.70         5.5912
   699.84         5.5775
   699.98         5.5646
   700.12         5.5531
   700.26         5.5427
   700.40         5.5328
   700.54         5.5229
   700.68         5.5123
   700.82         5.5003
   700.96         5.4872
   701.10         5.4734
   701.24         5.4597
   701.38         5.4466
   701.52         5.4347
   701.66         5.4247
   701.80         5.4173
   701.94         5.4131
   702.08         5.4121
   702.22         5.4140
   702.36         5.4172
   702.50         5.4206
   702.64         5.4238
   702.78         5.4268
   702.92         5.4301
   703.06         5.4344
   703.20         5.4405
   703.34         5.4491
   703.48         5.4598
   703.62         5.4714
   703.76         5.4827
   703.90         5.4924
   704.04         5.4999
   704.18         5.5048
   704.32         5.5069
   704.46         5.5056
   704.60         5.5005
   704.74         5.4911
   704.88         5.4781
   705.02         5.4634
   705.16         5.4489
   705.30         5.4368
   705.44         5.4285
   705.58         5.4242
   705.72         5.4237
   705.86         5.4268
   706.00         5.4327
   706.14         5.4405
   706.28         5.4496
   706.42         5.4593
   706.56         5.4685
   706.70         5.4756
   706.84         5.4788
   706.98         5.4766
   707.12         5.4689
   707.26         5.4574
   707.40         5.4442
   707.54         5.4316
   707.68         5.4207
   707.82         5.4115
   707.96         5.4034
   708.10         5.3955
   708.24         5.3873
   708.38         5.3787
   708.52         5.3699
   708.66         5.3612
   708.80         5.3537
   708.94         5.3485
   709.08         5.3468
   709.22         5.3498
   709.36         5.3582
   709.50         5.3721
   709.64         5.3909
   709.78         5.4136
   709.92         5.4386
   710.06         5.4635
   710.20         5.4862
   710.34         5.5053
   710.48         5.5206
   710.62         5.5320
   710.76         5.5394
   710.90         5.5428
   711.04         5.5422
   711.18         5.5373
   711.32         5.5284
   711.46         5.5162
   711.60         5.5015
   711.74         5.4848
   711.88         5.4666
   712.02         5.4477
   712.16         5.4289
   712.30         5.4108
   712.44         5.3941
   712.58         5.3797
   712.72         5.3683
   712.86         5.3605
   713.00         5.3560
   713.14         5.3544
   713.28         5.3553
   713.42         5.3578
   713.56         5.3609
   713.70         5.3634
   713.84         5.3643
   713.98         5.3636
   714.12         5.3615
   714.26         5.3584
   714.40         5.3545
   714.54         5.3504
   714.68         5.3461
   714.82         5.3410
   714.96         5.3345
   715.10         5.3267
   715.24         5.3186
   715.38         5.3107
   715.52         5.3029
   715.66         5.2952
   715.80         5.2872
   715.94         5.2778
   716.08         5.2659
   716.22         5.2506
   716.36         5.2317
   716.50         5.2091
   716.64         5.1825
   716.78         5.1520
   716.92         5.1188
   717.06         5.0836
   717.20         5.0471
   717.34         5.0102
   717.48         4.9738
   717.62         4.9390
   717.76         4.9081
   717.90         4.8830
   718.04         4.8642
   718.18         4.8514
   718.32         4.8437
   718.46         4.8404
   718.60         4.8402
   718.74         4.8411
   718.88         4.8409
   719.02         4.8388
   719.16         4.8346
   719.30         4.8290
   719.44         4.8231
   719.58         4.8175
   719.72         4.8129
   719.86         4.8105
   720.00         4.8120
   720.14         4.8196
   720.28         4.8356
   720.42         4.8615
   720.56         4.8974
   720.70         4.9423
   720.84         4.9949
   720.98         5.0528
   721.12         5.1123
   721.26         5.1683
   721.40         5.2161
   721.54         5.2524
   721.68         5.2753
   721.82         5.2834
   721.96         5.2758
   722.10         5.2529
   722.24         5.2166
   722.38         5.1705
   722.52         5.1199
   722.66         5.0695
   722.80         5.0229
   722.94         4.9817
   723.08         4.9466
   723.22         4.9173
   723.36         4.8938
   723.50         4.8752
   723.64         4.8610
   723.78         4.8507
   723.92         4.8436
   724.06         4.8391
   724.20         4.8367
   724.34         4.8360
   724.48         4.8360
   724.62         4.8359
   724.76         4.8363
   724.90         4.8381
   725.04         4.8420
   725.18         4.8464
   725.32         4.8491
   725.46         4.8482
   725.60         4.8436
   725.74         4.8376
   725.88         4.8328
   726.02         4.8309
   726.16         4.8321
   726.30         4.8350
   726.44         4.8377
   726.58         4.8380
   726.72         4.8357
   726.86         4.8328
   727.00         4.8321
   727.14         4.8353
   727.28         4.8437
   727.42         4.8580
   727.56         4.8771
   727.70         4.8987
   727.84         4.9201
   727.98         4.9396
   728.12         4.9560
   728.26         4.9680
   728.40         4.9743
   728.54         4.9742
   728.68         4.9670
   728.82         4.9530
   728.96         4.9332
   729.10         4.9094
   729.24         4.8840
   729.38         4.8599
   729.52         4.8395
   729.66         4.8227
   729.80         4.8085
   729.94         4.7959
   730.08         4.7844
   730.22         4.7739
   730.36         4.7656
   730.50         4.7613
   730.64         4.7626
   730.78         4.7702
   730.92         4.7842
   731.06         4.8032
   731.20         4.8248
   731.34         4.8454
   731.48         4.8624
   731.62         4.8750
   731.76         4.8837
   731.90         4.8886
   732.04         4.8899
   732.18         4.8877
   732.32         4.8822
   732.46         4.8741
   732.60         4.8649
   732.74         4.8562
   732.88         4.8495
   733.02         4.8450
   733.16         4.8411
   733.30         4.8369
   733.44         4.8324
   733.58         4.8281
   733.72         4.8247
   733.86         4.8237
   734.00         4.8271
   734.14         4.8367
   734.28         4.8525
   734.42         4.8727
   734.56         4.8951
   734.70         4.9185
   734.84         4.9416
   734.98         4.9630
   735.12         4.9810
   735.26         4.9943
   735.40         5.0015
   735.54         5.0009
   735.68         4.9918
   735.82         4.9746
   735.96         4.9515
   736.10         4.9248
   736.24         4.8963
   736.38         4.8675
   736.52         4.8402
   736.66         4.8159
   736.80         4.7958
   736.94         4.7809
   737.08         4.7715
   737.22         4.7672
   737.36         4.7669
   737.50         4.7694
   737.64         4.7735
   737.78         4.7780
   737.92         4.7819
   738.06         4.7842
   738.20         4.7844
   738.34         4.7828
   738.48         4.7796
   738.62         4.7752
   738.76         4.7694
   738.90         4.7625
   739.04         4.7547
   739.18         4.7469
   739.32         4.7398
   739.46         4.7341
   739.60         4.7297
   739.74         4.7265
   739.88         4.7242
   740.02         4.7222
   740.16         4.7194
   740.30         4.7144
   740.44         4.7064
   740.58         4.6957
   740.72         4.6828
   740.86         4.6682
   741.00         4.6515
   741.14         4.6326
   741.28         4.6116
   741.42         4.5891
   741.56         4.5661
   741.70         4.5433
   741.84         4.5217
   741.98         4.5018
   742.12         4.4836
   742.26         4.4669
   742.40         4.4517
   742.54         4.4384
   742.68         4.4284
   742.82         4.4229
   742.96         4.4229
   743.10         4.4284
   743.24         4.4384
   743.38         4.4517
   743.52         4.4669
   743.66         4.4836
   743.80         4.5018
   743.94         4.5217
   744.08         4.5433
   744.22         4.5661
