# File HD9973
# Wavelength [nm]    Normalized Amplitude
   349.70         224.2413
   349.84         222.6186
   349.98         220.6242
   350.12         218.3319
   350.26         215.8165
   350.40         213.1788
   350.54         210.5926
   350.68         208.2592
   350.82         206.3825
   350.96         205.1604
   351.10         204.7354
   351.24         205.1604
   351.38         206.3825
   351.52         208.2592
   351.66         210.5926
   351.80         213.1788
   351.94         215.8165
   352.08         218.3319
   352.22         220.6242
   352.36         222.6186
   352.50         224.2413
   352.64         225.4927
   352.78         226.4629
   352.92         227.2813
   353.06         228.0705
   353.20         228.9039
   353.34         229.7976
   353.48         230.7430
   353.62         231.7460
   353.76         232.8234
   353.90         233.9694
   354.04         235.1458
   354.18         236.3036
   354.32         237.4047
   354.46         238.4452
   354.60         239.4102
   354.74         240.2497
   354.88         240.9329
   355.02         241.4604
   355.16         241.8363
   355.30         242.0191
   355.44         241.8882
   355.58         241.2754
   355.72         240.0326
   355.86         238.0934
   356.00         235.4713
   356.14         232.2310
   356.28         228.4871
   356.42         224.3826
   356.56         220.0515
   356.70         215.6301
   356.84         211.2971
   356.98         207.2402
   357.12         203.5743
   357.26         200.3206
   357.40         197.4681
   357.54         195.0236
   357.68         192.9646
   357.82         191.2343
   357.96         189.8036
   358.10         188.7117
   358.24         188.0609
   358.38         187.9873
   358.52         188.6258
   358.66         190.0623
   358.80         192.3005
   358.94         195.2398
   359.08         198.6619
   359.22         202.2703
   359.36         205.7788
   359.50         208.9194
   359.64         211.3966
   359.78         212.9467
   359.92         213.4536
   360.06         212.9762
   360.20         211.7092
   360.34         209.9269
   360.48         207.9261
   360.62         205.9886
   360.76         204.3611
   360.90         203.2302
   361.04         202.6883
   361.18         202.7411
   361.32         203.3521
   361.46         204.4683
   361.60         206.0007
   361.74         207.8076
   361.88         209.7136
   362.02         211.5483
   362.16         213.1731
   362.30         214.5258
   362.44         215.6459
   362.58         216.6336
   362.72         217.5913
   362.86         218.5804
   363.00         219.5805
   363.14         220.5022
   363.28         221.2583
   363.42         221.7772
   363.56         221.9831
   363.70         221.8319
   363.84         221.3720
   363.98         220.7268
   364.12         219.9980
   364.26         219.2633
   364.40         218.6690
   364.54         218.4592
   364.68         218.9024
   364.82         220.1615
   364.96         222.2109
   365.10         224.8683
   365.24         227.8888
   365.38         231.0233
   365.52         234.0174
   365.66         236.6251
   365.80         238.6861
   365.94         240.1949
   366.08         241.2931
   366.22         242.2150
   366.36         243.2099
   366.50         244.4558
   366.64         246.0257
   366.78         247.9386
   366.92         250.2525
   367.06         253.0225
   367.20         256.1611
   367.34         259.4652
   367.48         262.7627
   367.62         266.0088
   367.76         269.3042
   367.90         272.8297
   368.04         276.7549
   368.18         281.1891
   368.32         286.1590
   368.46         291.6192
   368.60         297.5159
   368.74         303.8074
   368.88         310.3884
   369.02         316.9923
   369.16         323.2143
   369.30         328.6730
   369.44         333.1350
   369.58         336.4889
   369.72         338.6592
   369.86         339.6219
   370.00         339.5477
   370.14         338.8464
   370.28         338.1016
   370.42         338.0162
   370.56         339.2222
   370.70         342.0062
   370.84         346.1995
   370.98         351.3075
   371.12         356.8073
   371.26         362.3752
   371.40         367.8396
   371.54         373.0524
   371.68         377.8930
   371.82         382.3112
   371.96         386.2466
   372.10         389.4701
   372.24         391.5759
   372.38         392.1815
   372.52         391.2178
   372.66         389.1096
   372.80         386.6414
   372.94         384.6329
   373.08         383.6806
   373.22         383.9630
   373.36         385.2040
   373.50         386.8953
   373.64         388.5230
   373.78         389.6649
   373.92         390.0535
   374.06         389.6218
   374.20         388.5394
   374.34         387.1000
   374.48         385.4943
   374.62         383.7672
   374.76         382.0286
   374.90         380.6979
   375.04         380.4995
   375.18         382.2072
   375.32         386.2639
   375.46         392.4719
   375.60         399.9772
   375.74         407.5488
   375.88         413.9087
   376.02         418.0995
   376.16         419.7803
   376.30         419.2807
   376.44         417.5863
   376.58         416.2268
   376.72         416.9009
   376.86         420.9790
   377.00         429.1904
   377.14         441.6284
   377.28         457.8721
   377.42         477.0747
   377.56         498.0319
   377.70         519.2741
   377.84         539.2201
   377.98         556.3178
   378.12         569.1567
   378.26         576.5959
   378.40         577.8907
   378.54         572.8221
   378.68         561.9108
   378.82         546.5006
   378.96         528.6189
   379.10         510.7043
   379.24         495.1437
   379.38         483.7831
   379.52         477.7521
   379.66         477.6683
   379.80         483.6822
   379.94         495.2657
   380.08         511.2000
   380.22         529.8523
   380.36         549.5702
   380.50         568.8764
   380.64         586.4076
   380.78         600.9373
   380.92         611.5867
   381.06         618.0174
   381.20         620.4317
   381.34         619.4095
   381.48         615.6720
   381.62         609.8559
   381.76         602.3850
   381.90         593.3814
   382.04         582.6705
   382.18         569.9580
   382.32         555.0171
   382.46         537.7433
   382.60         518.3259
   382.74         497.5305
   382.88         476.7947
   383.02         458.0321
   383.16         443.1506
   383.30         433.6079
   383.44         430.2392
   383.58         433.2269
   383.72         442.1312
   383.86         456.0395
   384.00         473.8274
   384.14         494.3122
   384.28         516.1776
   384.42         537.9412
   384.56         558.1395
   384.70         575.6756
   384.84         590.1201
   384.98         601.7109
   385.12         611.0671
   385.26         618.9169
   385.40         626.0113
   385.54         633.0941
   385.68         640.7670
   385.82         649.2531
   385.96         658.2584
   386.10         667.1330
   386.24         675.2154
   386.38         682.0088
   386.52         687.1375
   386.66         690.2410
   386.80         690.9605
   386.94         689.0077
   387.08         684.1785
   387.22         676.3288
   387.36         665.3528
   387.50         651.1565
   387.64         633.7308
   387.78         613.3693
   387.92         590.8625
   388.06         567.4316
   388.20         544.3865
   388.34         522.8850
   388.48         503.8868
   388.62         488.1736
   388.76         476.4299
   388.90         469.2215
   389.04         466.7930
   389.18         468.9099
   389.32         474.9182
   389.46         483.9226
   389.60         494.9730
   389.74         507.2220
   389.88         519.9554
   390.02         532.5235
   390.16         544.3205
   390.30         554.8482
   390.44         563.7141
   390.58         570.5589
   390.72         575.0300
   390.86         576.8191
   391.00         575.7954
   391.14         572.0497
   391.28         565.7918
   391.42         557.2512
   391.56         546.5722
   391.70         533.6489
   391.84         518.0778
   391.98         499.3719
   392.12         477.2200
   392.26         451.6305
   392.40         422.9477
   392.54         391.8708
   392.68         359.6138
   392.82         327.9849
   392.96         299.2158
   393.10         275.6365
   393.24         259.3568
   393.38         251.9631
   393.52         254.2041
   393.66         265.8306
   393.80         285.6450
   393.94         311.7222
   394.08         341.7754
   394.22         373.4807
   394.36         404.6504
   394.50         433.4057
   394.64         458.4040
   394.78         478.9188
   394.92         494.6413
   395.06         505.4309
   395.20         511.1526
   395.34         511.5334
   395.48         506.1333
   395.62         494.5288
   395.76         476.6157
   395.90         452.8830
   396.04         424.5120
   396.18         393.3397
   396.32         361.8144
   396.46         332.8250
   396.60         309.3465
   396.74         293.9624
   396.88         288.3731
   397.02         293.1798
   397.16         308.0118
   397.30         331.7600
   397.44         362.6409
   397.58         398.2549
   397.72         435.9335
   397.86         473.1561
   398.00         507.8901
   398.14         538.7752
   398.28         565.0710
   398.42         586.5258
   398.56         603.2870
   398.70         615.8414
   398.84         624.8956
   398.98         631.1916
   399.12         635.3565
   399.26         637.8037
   399.40         638.7850
   399.54         638.5939
   399.68         637.7144
   399.82         636.7790
   399.96         636.3701
   400.10         636.8566
   400.24         638.4485
   400.38         641.3185
   400.52         645.6076
   400.66         651.3438
   400.80         658.3077
   400.94         666.0337
   401.08         673.9494
   401.22         681.5145
   401.36         688.3349
   401.50         694.1428
   401.64         698.6673
   401.78         701.5537
   401.92         702.4005
   402.06         700.9829
   402.20         697.4044
   402.34         692.0383
   402.48         685.4952
   402.62         678.5920
   402.76         672.2181
   402.90         667.1881
   403.04         664.0926
   403.18         663.1545
   403.32         664.1825
   403.46         666.7060
   403.60         670.1605
   403.74         673.9784
   403.88         677.6697
   404.02         680.8223
   404.16         682.9962
   404.30         683.7285
   404.44         682.7436
   404.58         680.2249
   404.72         676.8614
   404.86         673.5377
   405.00         670.9379
   405.14         669.3423
   405.28         668.6924
   405.42         668.7528
   405.56         669.2520
   405.70         669.9549
   405.84         670.5946
   405.98         670.8894
   406.12         670.6387
   406.26         669.6398
   406.40         667.5693
   406.54         664.0418
   406.68         658.8346
   406.82         652.1438
   406.96         644.6215
   407.10         637.1326
   407.24         630.4405
   407.38         624.9947
   407.52         620.9522
   407.66         618.3924
   407.80         617.4756
   407.94         618.4309
   408.08         621.3619
   408.22         626.0489
   408.36         631.8856
   408.50         637.8982
   408.64         642.8994
   408.78         645.6203
   408.92         644.7928
   409.06         639.4576
   409.20         629.3978
   409.34         615.2921
   409.48         598.4535
   409.62         580.3989
   409.76         562.5680
   409.90         546.3230
   410.04         533.0466
   410.18         524.1206
   410.32         520.6907
   410.46         523.3092
   410.60         531.7192
   410.74         544.8749
   410.88         561.1659
   411.02         578.7127
   411.16         595.6636
   411.30         610.4596
   411.44         621.9569
   411.58         629.5009
   411.72         633.0096
   411.86         632.8902
   412.00         629.7889
   412.14         624.4566
   412.28         617.7865
   412.42         610.8483
   412.56         604.8275
   412.70         600.9066
   412.84         599.9853
   412.98         602.3485
   413.12         607.6172
   413.26         614.9983
   413.40         623.6272
   413.54         632.7274
   413.68         641.5503
   413.82         649.3540
   413.96         655.4983
   414.10         659.5101
   414.24         661.1543
   414.38         660.5177
   414.52         658.0421
   414.66         654.4457
   414.80         650.5083
   414.94         646.8648
   415.08         643.9158
   415.22         641.8920
   415.36         640.9401
   415.50         641.0349
   415.64         641.9693
   415.78         643.4759
   415.92         645.2129
   416.06         646.6732
   416.20         647.1799
   416.34         646.0591
   416.48         642.8156
   416.62         637.2030
   416.76         629.2837
   416.90         619.4828
   417.04         608.5359
   417.18         597.3219
   417.32         586.6808
   417.46         577.3289
   417.60         569.9140
   417.74         565.0484
   417.88         563.2096
   418.02         564.5797
   418.16         568.9600
   418.30         575.8151
   418.44         584.3272
   418.58         593.4998
   418.72         602.3859
   418.86         610.2715
   419.00         616.6681
   419.14         621.2322
   419.28         623.7876
   419.42         624.3898
   419.56         623.3029
   419.70         620.9016
   419.84         617.6497
   419.98         614.1651
   420.12         611.1482
   420.26         609.1762
   420.40         608.5727
   420.54         609.4177
   420.68         611.6380
   420.82         615.0611
   420.96         619.3655
   421.10         624.0298
   421.24         628.4110
   421.38         631.8654
   421.52         633.8866
   421.66         634.2787
   421.80         633.2554
   421.94         631.2913
   422.08         628.8466
   422.22         626.2707
   422.36         623.7944
   422.50         621.5677
   422.64         619.7169
   422.78         618.3299
   422.92         617.4615
   423.06         617.2123
   423.20         617.7166
   423.34         618.9821
   423.48         620.7529
   423.62         622.5538
   423.76         623.8820
   423.90         624.3969
   424.04         624.0530
   424.18         623.1241
   424.32         622.0344
   424.46         621.0955
   424.60         620.3364
   424.74         619.6286
   424.88         618.9609
   425.02         618.5490
   425.16         618.7835
   425.30         620.0937
   425.44         622.7859
   425.58         626.8901
   425.72         632.0974
   425.86         637.7700
   426.00         643.0515
   426.14         647.1279
   426.28         649.4785
   426.42         649.9444
   426.56         648.6609
   426.70         645.9812
   426.84         642.3719
   426.98         638.2799
   427.12         634.0709
   427.26         630.0608
   427.40         626.5405
   427.54         623.7262
   427.68         621.6439
   427.82         620.0586
   427.96         618.5725
   428.10         616.7550
   428.24         614.1635
   428.38         610.4350
   428.52         605.4268
   428.66         599.2384
   428.80         592.1080
   428.94         584.3212
   429.08         576.1731
   429.22         567.9597
   429.36         559.9924
   429.50         552.5850
   429.64         546.0295
   429.78         540.6495
   429.92         536.7877
   430.06         534.6252
   430.20         534.0932
   430.34         535.0070
   430.48         537.2790
   430.62         540.9413
   430.76         545.9233
   430.90         551.9330
   431.04         558.5980
   431.18         565.5241
   431.32         572.2224
   431.46         578.2270
   431.60         583.3462
   431.74         587.6722
   431.88         591.3443
   432.02         594.4133
   432.16         596.8391
   432.30         598.4787
   432.44         598.9973
   432.58         597.7377
   432.72         593.8132
   432.86         586.4855
   433.00         575.5209
   433.14         561.3054
   433.28         544.7267
   433.42         527.0480
   433.56         509.8298
   433.70         494.6866
   433.84         482.9515
   433.98         475.5513
   434.12         473.0838
   434.26         475.8803
   434.40         483.8897
   434.54         496.5581
   434.68         512.9116
   434.82         531.6710
   434.96         551.4215
   435.10         570.8451
   435.24         588.9401
   435.38         605.1696
   435.52         619.3827
   435.66         631.6422
   435.80         642.0817
   435.94         650.7758
   436.08         657.6415
   436.22         662.3834
   436.36         664.6166
   436.50         664.2050
   436.64         661.5023
   436.78         657.2661
   436.92         652.3574
   437.06         647.3791
   437.20         642.5236
   437.34         637.7244
   437.48         632.9193
   437.62         628.2174
   437.76         623.7892
   437.90         619.7246
   438.04         615.9916
   438.18         612.4219
   438.32         608.8121
   438.46         605.0722
   438.60         601.2146
   438.74         597.2310
   438.88         593.1372
   439.02         589.1543
   439.16         585.6844
   439.30         583.0695
   439.44         581.4224
   439.58         580.6305
   439.72         580.4646
   439.86         580.7451
   440.00         581.4641
   440.14         582.7027
   440.28         584.3417
   440.42         585.8518
   440.56         586.4726
   440.70         585.5657
   440.84         582.8302
   440.98         578.3779
   441.12         572.6827
   441.26         566.4403
   441.40         560.4382
   441.54         555.4863
   441.68         552.2850
   441.82         551.2336
   441.96         552.3426
   442.10         555.2756
   442.24         559.4631
   442.38         564.2871
   442.52         569.2949
   442.66         574.2202
   442.80         578.8154
   442.94         582.7276
   443.08         585.5370
   443.22         587.0170
   443.36         587.2829
   443.50         586.6701
   443.64         585.5612
   443.78         584.2542
   443.92         582.9600
   444.06         581.8214
   444.20         580.9035
   444.34         580.2091
   444.48         579.7147
   444.62         579.4010
   444.76         579.2445
   444.90         579.2163
   445.04         579.2981
   445.18         579.4602
   445.32         579.5492
   445.46         579.2488
   445.60         578.1695
   445.74         576.0710
   445.88         573.1118
   446.02         569.7863
   446.16         566.6736
   446.30         564.2753
   446.44         562.9919
   446.58         563.1561
   446.72         564.9359
   446.86         568.1892
   447.00         572.5301
   447.14         577.5682
   447.28         583.0108
   447.42         588.5937
   447.56         593.9847
   447.70         598.7306
   447.84         602.3439
   447.98         604.4467
   448.12         604.8596
   448.26         603.6385
   448.40         601.1347
   448.54         597.9793
   448.68         594.8773
   448.82         592.3651
   448.96         590.7209
   449.10         590.0812
   449.24         590.5386
   449.38         592.1232
   449.52         594.7616
   449.66         598.3739
   449.80         602.9566
   449.94         608.4387
   450.08         614.5504
   450.22         620.8147
   450.36         626.6721
   450.50         631.6789
   450.64         635.5380
   450.78         637.9986
   450.92         638.8270
   451.06         637.8710
   451.20         635.1067
   451.34         630.6285
   451.48         624.6618
   451.62         617.5702
   451.76         609.8271
   451.90         601.8983
   452.04         594.1220
   452.18         586.7103
   452.32         579.9502
   452.46         574.2943
   452.60         570.1469
   452.74         567.6823
   452.88         566.8438
   453.02         567.4761
   453.16         569.4057
   453.30         572.4097
   453.44         576.1909
   453.58         580.3409
   453.72         584.3363
   453.86         587.6577
   454.00         589.8717
   454.14         590.5952
   454.28         589.4987
   454.42         586.4929
   454.56         581.8481
   454.70         576.1132
   454.84         570.0189
   454.98         564.3668
   455.12         559.7813
   455.26         556.5800
   455.40         554.9107
   455.54         554.8904
   455.68         556.5976
   455.82         559.9519
   455.96         564.6390
   456.10         570.1720
   456.24         576.0011
   456.38         581.6241
   456.52         586.6699
   456.66         590.8503
   456.80         593.8989
   456.94         595.6083
   457.08         595.8760
   457.22         594.7462
   457.36         592.4045
   457.50         589.0947
   457.64         585.0488
   457.78         580.5416
   457.92         575.9925
   458.06         571.9057
   458.20         568.7273
   458.34         566.7570
   458.48         566.1450
   458.62         566.9396
   458.76         569.1088
   458.90         572.5106
   459.04         576.8872
   459.18         581.9031
   459.32         587.2042
   459.46         592.4910
   459.60         597.5709
   459.74         602.4009
   459.88         607.0856
   460.02         611.6942
   460.16         616.1132
   460.30         620.1144
   460.44         623.4498
   460.58         625.8908
   460.72         627.2606
   460.86         627.5305
   461.00         626.8707
   461.14         625.5819
   461.28         623.9665
   461.42         622.2499
   461.56         620.5932
   461.70         619.1156
   461.84         617.9142
   461.98         617.0810
   462.12         616.6252
   462.26         616.4139
   462.40         616.2588
   462.54         616.0272
   462.68         615.6776
   462.82         615.2742
   462.96         614.9820
   463.10         615.0055
   463.24         615.5409
   463.38         616.7514
   463.52         618.7101
   463.66         621.3092
   463.80         624.2767
   463.94         627.2690
   464.08         629.9445
   464.22         632.0134
   464.36         633.2601
   464.50         633.5887
   464.64         633.0526
   464.78         631.8264
   464.92         630.1595
   465.06         628.3282
   465.20         626.5495
   465.34         624.8528
   465.48         623.0489
   465.62         620.8271
   465.76         617.8911
   465.90         614.1302
   466.04         609.7240
   466.18         605.0854
   466.32         600.7529
   466.46         597.2854
   466.60         595.0966
   466.74         594.3754
   466.88         595.1467
   467.02         597.3504
   467.16         600.8959
   467.30         605.6240
   467.44         611.2197
   467.58         617.1899
   467.72         622.9635
   467.86         628.0379
   468.00         632.0598
   468.14         634.9138
   468.28         636.7456
   468.42         637.8485
   468.56         638.5170
   468.70         638.9347
   468.84         639.1397
   468.98         639.0477
   469.12         638.5137
   469.26         637.4216
   469.40         635.7254
   469.54         633.4240
   469.68         630.5444
   469.82         627.1946
   469.96         623.5804
   470.10         619.9107
   470.24         616.3342
   470.38         613.0112
   470.52         610.1705
   470.66         608.0502
   470.80         606.8272
   470.94         606.5733
   471.08         607.2378
   471.22         608.6947
   471.36         610.7893
   471.50         613.2878
   471.64         615.8621
   471.78         618.1692
   471.92         619.9055
   472.06         620.8084
   472.20         620.6933
   472.34         619.5346
   472.48         617.4631
   472.62         614.6932
   472.76         611.4927
   472.90         608.2188
   473.04         605.3153
   473.18         603.2034
   473.32         602.1922
   473.46         602.4505
   473.60         603.9863
   473.74         606.6545
   473.88         610.1739
   474.02         614.1490
   474.16         618.1042
   474.30         621.5766
   474.44         624.2158
   474.58         625.8248
   474.72         626.3660
   474.86         625.8453
   475.00         624.1937
   475.14         621.2915
   475.28         617.1211
   475.42         611.8923
   475.56         605.9892
   475.70         599.8465
   475.84         593.8821
   475.98         588.4982
   476.12         584.0821
   476.26         580.9545
   476.40         579.3466
   476.54         579.3503
   476.68         580.8533
   476.82         583.5556
   476.96         587.0688
   477.10         591.0170
   477.24         595.0213
   477.38         598.6553
   477.52         601.4818
   477.66         603.2111
   477.80         603.8416
   477.94         603.6300
   478.08         602.9525
   478.22         602.1488
   478.36         601.4403
   478.50         600.9462
   478.64         600.7018
   478.78         600.6768
   478.92         600.7984
   479.06         600.9346
   479.20         600.8540
   479.34         600.2956
   479.48         599.1317
   479.62         597.4141
   479.76         595.2879
   479.90         592.9084
   480.04         590.4389
   480.18         588.0981
   480.32         586.1605
   480.46         584.8833
   480.60         584.4420
   480.74         584.9158
   480.88         586.2379
   481.02         588.1123
   481.16         590.0298
   481.30         591.4512
   481.44         592.0249
   481.58         591.6123
   481.72         590.1889
   481.86         587.8319
   482.00         584.7881
   482.14         581.4376
   482.28         578.1546
   482.42         575.2255
   482.56         572.8576
   482.70         571.2159
   482.84         570.4113
   482.98         570.4482
   483.12         571.1844
   483.26         572.3509
   483.40         573.5983
   483.54         574.5018
   483.68         574.6151
   483.82         573.6407
   483.96         571.5504
   484.10         568.4571
   484.24         564.3446
   484.38         558.9956
   484.52         552.1317
   484.66         543.5131
   484.80         532.9124
   484.94         520.1201
   485.08         505.1064
   485.22         488.2019
   485.36         470.1167
   485.50         451.8307
   485.64         434.4772
   485.78         419.1906
   485.92         406.9182
   486.06         398.3231
   486.20         393.7723
   486.34         393.3473
   486.48         396.8455
   486.62         403.7691
   486.76         413.3631
   486.90         424.7067
   487.04         436.8302
   487.18         448.7945
   487.32         459.7624
   487.46         469.1540
   487.60         476.7584
   487.74         482.7037
   487.88         487.2851
   488.02         490.8081
   488.16         493.5675
   488.30         495.8355
   488.44         497.8323
   488.58         499.7401
   488.72         501.7254
   488.86         503.9185
   489.00         506.3960
   489.14         509.1975
   489.28         512.3506
   489.42         515.8287
   489.56         519.4865
   489.70         523.0790
   489.84         526.3435
   489.98         529.1278
   490.12         531.4590
   490.26         533.4505
   490.40         535.1854
   490.54         536.6793
   490.68         537.8881
   490.82         538.6877
   490.96         538.8503
   491.10         538.0814
   491.24         536.1559
   491.38         533.1053
   491.52         529.2800
   491.66         525.2524
   491.80         521.6532
   491.94         518.9997
   492.08         517.5549
   492.22         517.3342
   492.36         518.2197
   492.50         520.0236
   492.64         522.5266
   492.78         525.5018
   492.92         528.6945
   493.06         531.8303
   493.20         534.6548
   493.34         537.0023
   493.48         538.8842
   493.62         540.4955
   493.76         542.1520
   493.90         544.2216
   494.04         546.9773
   494.18         550.4224
   494.32         554.2573
   494.46         557.9662
   494.60         560.9831
   494.74         562.9084
   494.88         563.6410
   495.02         563.3337
   495.16         562.2587
   495.30         560.7099
   495.44         558.9422
   495.58         557.1363
   495.72         555.3935
   495.86         553.7562
   496.00         552.2767
   496.14         551.0657
   496.28         550.2376
   496.42         549.8327
   496.56         549.7967
   496.70         549.9705
   496.84         550.0770
   496.98         549.7389
   497.12         548.5938
   497.26         546.4791
   497.40         543.4711
   497.54         539.7664
   497.68         535.5890
   497.82         531.1674
   497.96         526.7390
   498.10         522.5909
   498.24         519.0959
   498.38         516.6420
   498.52         515.4816
   498.66         515.6152
   498.80         516.7948
   498.94         518.6021
   499.08         520.5303
   499.22         522.0413
   499.36         522.6317
   499.50         522.0075
   499.64         520.2088
   499.78         517.5322
   499.92         514.3418
   500.06         510.8856
   500.20         507.2456
   500.34         503.4267
   500.48         499.4365
   500.62         495.3204
   500.76         491.2055
   500.90         487.3051
   501.04         483.8607
   501.18         481.0953
   501.32         479.2186
   501.46         478.4353
   501.60         478.8943
   501.74         480.6174
   501.88         483.5014
   502.02         487.3818
   502.16         492.0392
   502.30         497.0922
   502.44         501.9798
   502.58         506.1134
   502.72         509.0338
   502.86         510.5306
   503.00         510.6920
   503.14         509.8512
   503.28         508.4984
   503.42         507.1644
   503.56         506.2833
   503.70         506.0818
   503.84         506.5756
   503.98         507.6726
   504.12         509.2680
   504.26         511.2846
   504.40         513.6650
   504.54         516.3649
   504.68         519.3337
   504.82         522.4859
   504.96         525.6855
   505.10         528.7448
   505.24         531.4689
   505.38         533.7211
   505.52         535.4335
   505.66         536.5590
   505.80         537.0052
   505.94         536.6187
   506.08         535.2485
   506.22         532.8519
   506.36         529.5291
   506.50         525.5143
   506.64         521.1298
   506.78         516.7079
   506.92         512.5512
   507.06         508.9196
   507.20         506.0133
   507.34         503.9383
   507.48         502.6984
   507.62         502.2332
   507.76         502.4776
   507.90         503.3999
   508.04         504.9783
   508.18         507.1015
   508.32         509.5335
   508.46         511.9624
   508.60         514.0495
   508.74         515.5104
   508.88         516.2006
   509.02         516.1228
   509.16         515.3767
   509.30         514.1261
   509.44         512.5866
   509.58         511.0117
   509.72         509.6422
   509.86         508.6628
   510.00         508.2222
   510.14         508.4476
   510.28         509.4107
   510.42         511.0693
   510.56         513.2157
   510.70         515.5005
   510.84         517.4879
   510.98         518.7639
   511.12         519.0572
   511.26         518.2716
   511.40         516.4617
   511.54         513.7758
   511.68         510.3661
   511.82         506.3515
   511.96         501.8983
   512.10         497.2998
   512.24         492.9137
   512.38         489.0335
   512.52         485.8539
   512.66         483.5088
   512.80         482.0848
   512.94         481.5956
   513.08         481.9405
   513.22         482.9154
   513.36         484.2935
   513.50         485.9017
   513.64         487.6075
   513.78         489.2589
   513.92         490.6603
   514.06         491.6019
   514.20         491.9660
   514.34         491.8176
   514.48         491.3551
   514.62         490.7811
   514.76         490.2312
   514.90         489.7664
   515.04         489.3956
   515.18         489.0397
   515.32         488.4741
   515.46         487.3526
   515.60         485.3168
   515.74         482.1270
   515.88         477.7474
   516.02         472.4064
   516.16         466.5819
   516.30         460.8835
   516.44         455.9602
   516.58         452.4463
   516.72         450.8530
   516.86         451.4399
   517.00         454.1073
   517.14         458.3606
   517.28         463.4666
   517.42         468.6547
   517.56         473.1982
   517.70         476.4486
   517.84         477.8850
   517.98         477.2556
   518.12         474.6817
   518.26         470.6164
   518.40         465.7004
   518.54         460.6413
   518.68         456.1487
   518.82         452.7910
   518.96         450.8437
   519.10         450.2561
   519.24         450.7103
   519.38         451.7647
   519.52         453.0215
   519.66         454.2155
   519.80         455.2487
   519.94         456.1839
   520.08         457.1348
   520.22         458.1698
   520.36         459.3280
   520.50         460.6801
   520.64         462.3757
   520.78         464.5976
   520.92         467.4678
   521.06         470.9816
   521.20         474.9315
   521.34         478.8522
   521.48         482.1427
   521.62         484.3154
   521.76         485.1093
   521.90         484.4636
   522.04         482.4686
   522.18         479.3087
   522.32         475.2471
   522.46         470.6428
   522.60         465.9122
   522.74         461.4848
   522.88         457.7649
   523.02         455.1353
   523.16         453.9279
   523.30         454.3064
   523.44         456.1806
   523.58         459.2240
   523.72         462.9609
   523.86         466.8625
   524.00         470.4932
   524.14         473.6173
   524.28         476.1200
   524.42         477.8876
   524.56         478.8452
   524.70         479.0218
   524.84         478.5136
   524.98         477.4113
   525.12         475.7392
   525.26         473.4520
   525.40         470.4933
   525.54         466.8092
   525.68         462.3900
   525.82         457.3174
   525.96         451.7454
   526.10         445.8735
   526.24         439.9172
   526.38         434.1309
   526.52         428.8445
   526.66         424.4352
   526.80         421.2529
   526.94         419.5213
   527.08         419.2904
   527.22         420.4452
   527.36         422.7483
   527.50         425.9218
   527.64         429.7352
   527.78         434.0486
   527.92         438.7713
   528.06         443.8012
   528.20         449.0016
   528.34         454.2070
   528.48         459.2213
   528.62         463.8138
   528.76         467.7535
   528.90         470.8773
   529.04         473.1401
   529.18         474.5873
   529.32         475.2886
   529.46         475.3107
   529.60         474.7234
   529.74         473.6681
   529.88         472.3852
   530.02         471.1311
   530.16         470.0600
   530.30         469.1594
   530.44         468.2912
   530.58         467.2909
   530.72         466.0834
   530.86         464.7132
   531.00         463.2649
   531.14         461.7853
   531.28         460.2731
   531.42         458.6877
   531.56         456.9522
   531.70         454.9882
   531.84         452.8066
   531.98         450.5355
   532.12         448.3332
   532.26         446.3206
   532.40         444.5576
   532.54         443.0205
   532.68         441.6299
   532.82         440.3321
   532.96         439.1681
   533.10         438.3125
   533.24         438.0038
   533.38         438.4039
   533.52         439.5224
   533.66         441.2255
   533.80         443.3274
   533.94         445.6929
   534.08         448.2628
   534.22         451.0371
   534.36         454.0465
   534.50         457.3026
   534.64         460.7276
   534.78         464.1165
   534.92         467.1831
   535.06         469.6263
   535.20         471.2116
   535.34         471.8355
   535.48         471.4959
   535.62         470.2241
   535.76         468.0641
   535.90         465.0826
   536.04         461.4394
   536.18         457.4437
   536.32         453.5075
   536.46         450.0735
   536.60         447.5017
   536.74         445.9625
   536.88         445.4262
   537.02         445.7196
   537.16         446.6150
   537.30         447.8858
   537.44         449.3173
   537.58         450.7317
   537.72         452.0099
   537.86         453.1002
   538.00         454.0005
   538.14         454.7165
   538.28         455.2446
   538.42         455.5780
   538.56         455.7269
   538.70         455.7302
   538.84         455.6169
   538.98         455.3413
   539.12         454.7567
   539.26         453.6592
   539.40         451.9072
   539.54         449.5297
   539.68         446.7221
   539.82         443.7723
   539.96         440.9625
   540.10         438.4980
   540.24         436.4901
   540.38         434.9831
   540.52         433.9978
   540.66         433.5276
   540.80         433.5209
   540.94         433.8814
   541.08         434.4865
   541.22         435.2187
   541.36         435.9890
   541.50         436.7199
   541.64         437.3207
   541.78         437.7149
   541.92         437.8810
   542.06         437.8475
   542.20         437.6631
   542.34         437.3905
   542.48         437.1348
   542.62         437.0435
   542.76         437.2621
   542.90         437.8947
   543.04         438.9849
   543.18         440.4744
   543.32         442.1694
   543.46         443.8017
   543.60         445.1371
   543.74         446.0430
   543.88         446.5177
   544.02         446.6529
   544.16         446.5140
   544.30         446.0808
   544.44         445.3177
   544.58         444.2794
   544.72         443.1280
   544.86         442.0731
   545.00         441.3155
   545.14         440.9837
   545.28         441.0900
   545.42         441.5334
   545.56         442.1577
   545.70         442.8224
   545.84         443.4308
   545.98         443.9229
   546.12         444.2887
   546.26         444.5520
   546.40         444.6708
   546.54         444.5155
   546.68         443.9352
   546.82         442.8305
   546.96         441.2349
   547.10         439.3446
   547.24         437.4517
   547.38         435.8101
   547.52         434.5697
   547.66         433.8023
   547.80         433.5342
   547.94         433.7536
   548.08         434.4134
   548.22         435.4505
   548.36         436.7731
   548.50         438.2229
   548.64         439.5941
   548.78         440.6940
   548.92         441.3682
   549.06         441.5216
   549.20         441.1785
   549.34         440.4519
   549.48         439.4461
   549.62         438.2204
   549.76         436.7957
   549.90         435.1953
   550.04         433.4928
   550.18         431.8421
   550.32         430.4617
   550.46         429.5839
   550.60         429.3932
   550.74         429.9736
   550.88         431.2968
   551.02         433.2208
   551.16         435.4923
   551.30         437.7699
   551.44         439.6518
   551.58         440.7477
   551.72         440.8075
   551.86         439.7756
   552.00         437.7332
   552.14         434.8296
   552.28         431.2885
   552.42         427.4610
   552.56         423.8118
   552.70         420.8044
   552.84         418.7736
   552.98         417.8645
   553.12         418.0403
   553.26         419.1238
   553.40         420.8521
   553.54         422.9425
   553.68         425.1334
   553.82         427.1906
   553.96         428.9321
   554.10         430.2804
   554.24         431.2826
   554.38         432.0794
   554.52         432.8181
   554.66         433.5856
   554.80         434.4181
   554.94         435.3482
   555.08         436.4036
   555.22         437.5364
   555.36         438.5900
   555.50         439.3642
   555.64         439.6942
   555.78         439.4816
   555.92         438.7067
   556.06         437.4229
   556.20         435.7460
   556.34         433.8348
   556.48         431.8578
   556.62         429.9960
   556.76         428.4393
   556.90         427.3499
   557.04         426.8372
   557.18         426.9190
   557.32         427.4764
   557.46         428.2676
   557.60         429.0034
   557.74         429.4438
   557.88         429.4507
   558.02         428.9730
   558.16         428.0325
   558.30         426.7138
   558.44         425.1460
   558.58         423.4791
   558.72         421.8633
   558.86         420.4439
   559.00         419.3405
   559.14         418.6377
   559.28         418.4035
   559.42         418.6667
   559.56         419.4040
   559.70         420.5596
   559.84         422.0334
   559.98         423.6821
   560.12         425.3485
   560.26         426.8852
   560.40         428.1746
   560.54         429.1339
   560.68         429.7164
   560.82         429.9297
   560.96         429.8333
   561.10         429.4845
   561.24         428.9157
   561.38         428.1768
   561.52         427.3550
   561.66         426.5586
   561.80         425.9087
   561.94         425.5159
   562.08         425.4377
   562.22         425.6750
   562.36         426.1635
   562.50         426.7548
   562.64         427.2538
   562.78         427.4866
   562.92         427.3733
   563.06         426.9621
   563.20         426.3681
   563.34         425.7033
   563.48         425.0578
   563.62         424.5004
   563.76         424.0812
   563.90         423.8343
   564.04         423.7868
   564.18         423.9329
   564.32         424.1778
   564.46         424.3241
   564.60         424.1230
   564.74         423.3489
   564.88         421.8594
   565.02         419.5966
   565.16         416.6074
   565.30         413.0749
   565.44         409.2754
   565.58         405.5070
   565.72         402.0469
   565.86         399.1378
   566.00         396.9831
   566.14         395.7299
   566.28         395.4426
   566.42         396.0879
   566.56         397.5400
   566.70         399.6186
   566.84         402.0817
   566.98         404.6252
   567.12         406.9774
   567.26         408.9734
   567.40         410.5375
   567.54         411.6380
   567.68         412.2704
   567.82         412.4835
   567.96         412.3733
   568.10         412.0407
   568.24         411.5990
   568.38         411.2007
   568.52         411.0046
   568.66         411.1087
   568.80         411.5237
   568.94         412.1803
   569.08         412.9409
   569.22         413.6219
   569.36         414.0274
   569.50         413.9694
   569.64         413.3153
   569.78         412.0431
   569.92         410.2454
   570.06         408.1072
   570.20         405.8771
   570.34         403.8303
   570.48         402.2234
   570.62         401.2547
   570.76         401.0464
   570.90         401.6313
   571.04         402.9615
   571.18         404.9190
   571.32         407.3136
   571.46         409.9044
   571.60         412.4378
   571.74         414.6797
   571.88         416.4483
   572.02         417.6403
   572.16         418.2403
   572.30         418.3168
   572.44         417.9913
   572.58         417.4121
   572.72         416.7222
   572.86         416.0234
   573.00         415.3887
   573.14         414.8628
   573.28         414.4511
   573.42         414.1235
   573.56         413.8163
   573.70         413.4721
   573.84         413.0496
   573.98         412.4960
   574.12         411.7616
   574.26         410.8414
   574.40         409.7938
   574.54         408.7174
   574.68         407.7171
   574.82         406.8814
   574.96         406.2491
   575.10         405.8180
   575.24         405.5995
   575.38         405.6144
   575.52         405.8622
   575.66         406.3034
   575.80         406.8424
   575.94         407.3525
   576.08         407.7095
   576.22         407.8151
   576.36         407.6137
   576.50         407.0607
   576.64         406.0889
   576.78         404.6217
   576.92         402.6257
   577.06         400.1417
   577.20         397.2611
   577.34         394.1202
   577.48         390.8912
   577.62         387.7559
   577.76         384.9280
   577.90         382.6204
   578.04         380.9705
   578.18         380.0301
   578.32         379.7733
   578.46         380.1087
   578.60         380.9087
   578.74         382.0392
   578.88         383.3570
   579.02         384.7073
   579.16         385.9388
   579.30         386.9354
   579.44         387.6675
   579.58         388.2065
   579.72         388.6558
   579.86         389.0780
   580.00         389.4976
   580.14         389.9098
   580.28         390.2977
   580.42         390.6676
   580.56         391.0325
   580.70         391.3953
   580.84         391.7509
   580.98         392.0937
   581.12         392.4327
   581.26         392.8060
   581.40         393.2609
   581.54         393.8109
   581.68         394.4345
   581.82         395.0889
   581.96         395.7232
   582.10         396.2891
   582.24         396.7342
   582.38         397.0047
   582.52         397.0794
   582.66         396.9875
   582.80         396.7860
   582.94         396.5443
   583.08         396.3234
   583.22         396.1465
   583.36         396.0076
   583.50         395.9005
   583.64         395.8257
   583.78         395.7672
   583.92         395.6571
   584.06         395.3813
   584.20         394.8302
   584.34         393.9295
   584.48         392.6542
   584.62         391.0533
   584.76         389.2387
   584.90         387.3461
   585.04         385.5210
   585.18         383.9028
   585.32         382.6091
   585.46         381.7180
   585.60         381.2712
   585.74         381.2916
   585.88         381.7899
   586.02         382.7593
   586.16         384.1407
   586.30         385.7993
   586.44         387.5440
   586.58         389.2030
   586.72         390.6950
   586.86         392.0118
   587.00         393.1474
   587.14         394.0729
   587.28         394.7403
   587.42         395.0369
   587.56         394.7352
   587.70         393.4940
   587.84         391.0281
   587.98         387.2644
   588.12         382.2674
   588.26         376.1344
   588.40         369.0119
   588.54         361.2301
   588.68         353.3169
   588.82         345.8802
   588.96         339.5289
   589.10         334.8111
   589.24         332.1598
   589.38         331.8185
   589.52         333.7857
   589.66         337.8097
   589.80         343.4340
   589.94         350.0658
   590.08         357.0448
   590.22         363.7451
   590.36         369.7081
   590.50         374.7176
   590.64         378.6701
   590.78         381.4605
   590.92         383.0845
   591.06         383.7367
   591.20         383.7594
   591.34         383.4525
   591.48         382.9908
   591.62         382.4665
   591.76         381.9166
   591.90         381.3629
   592.04         380.8207
   592.18         380.2818
   592.32         379.7266
   592.46         379.1568
   592.60         378.5937
   592.74         378.0586
   592.88         377.5579
   593.02         377.0757
   593.16         376.5801
   593.30         376.0105
   593.44         375.2970
   593.58         374.3708
   593.72         373.1554
   593.86         371.5975
   594.00         369.6882
   594.14         367.4901
   594.28         365.1366
   594.42         362.7876
   594.56         360.6201
   594.70         358.8075
   594.84         357.4899
   594.98         356.7624
   595.12         356.6621
   595.26         357.1658
   595.40         358.1948
   595.54         359.6235
   595.68         361.3122
   595.82         363.1250
   595.96         364.8972
   596.10         366.4636
   596.24         367.7020
   596.38         368.5362
   596.52         368.9422
   596.66         368.9420
   596.80         368.5893
   596.94         367.9058
   597.08         366.8724
   597.22         365.5110
   597.36         363.9054
   597.50         362.1652
   597.64         360.3908
   597.78         358.6343
   597.92         356.9090
   598.06         355.2416
   598.20         353.6907
   598.34         352.3473
   598.48         351.2880
   598.62         350.5309
   598.76         350.0549
   598.90         349.8202
   599.04         349.7675
   599.18         349.8338
   599.32         349.9662
   599.46         350.1160
   599.60         350.2357
   599.74         350.3038
   599.88         350.3379
   600.02         350.3650
   600.16         350.3883
   600.30         350.4018
   600.44         350.4129
   600.58         350.4485
   600.72         350.5253
   600.86         350.6133
   601.00         350.6499
   601.14         350.5563
   601.28         350.2636
   601.42         349.7420
   601.56         349.0105
   601.70         348.1333
   601.84         347.1936
   601.98         346.2744
   602.12         345.4559
   602.26         344.8186
   602.40         344.4256
   602.54         344.2888
   602.68         344.3528
   602.82         344.4973
   602.96         344.5532
   603.10         344.3553
   603.24         343.7954
   603.38         342.8471
   603.52         341.5741
   603.66         340.0993
   603.80         338.5876
   603.94         337.2188
   604.08         336.1375
   604.22         335.4362
   604.36         335.1586
   604.50         335.3104
   604.64         335.8708
   604.78         336.7899
   604.92         337.9765
   605.06         339.2990
   605.20         340.5923
   605.34         341.6986
   605.48         342.5295
   605.62         343.0905
   605.76         343.4659
   605.90         343.7603
   606.04         344.0495
   606.18         344.3765
   606.32         344.7574
   606.46         345.1935
   606.60         345.6556
   606.74         346.0867
   606.88         346.4411
   607.02         346.6831
   607.16         346.7722
   607.30         346.6715
   607.44         346.3549
   607.58         345.8062
   607.72         345.0318
   607.86         344.0666
   608.00         342.9842
   608.14         341.8812
   608.28         340.8301
   608.42         339.8820
   608.56         339.0912
   608.70         338.4869
   608.84         338.0358
   608.98         337.6638
   609.12         337.3055
   609.26         336.9296
   609.40         336.5222
   609.54         336.0636
   609.68         335.5496
   609.82         335.0139
   609.96         334.5177
   610.10         334.1228
   610.24         333.8639
   610.38         333.7608
   610.52         333.8350
   610.66         334.0807
   610.80         334.4402
   610.94         334.8305
   611.08         335.1809
   611.22         335.4291
   611.36         335.5078
   611.50         335.3697
   611.64         335.0246
   611.78         334.5461
   611.92         334.0281
   612.06         333.5338
   612.20         333.0830
   612.34         332.6671
   612.48         332.2395
   612.62         331.7165
   612.76         331.0032
   612.90         330.0072
   613.04         328.6886
   613.18         327.0947
   613.32         325.3112
   613.46         323.4090
   613.60         321.4586
   613.74         319.5731
   613.88         317.9071
   614.02         316.6143
   614.16         315.8129
   614.30         315.5700
   614.44         315.8929
   614.58         316.7049
   614.72         317.8500
   614.86         319.1255
   615.00         320.3180
   615.14         321.2591
   615.28         321.8612
   615.42         322.1217
   615.56         322.0909
   615.70         321.8363
   615.84         321.4203
   615.98         320.8773
   616.12         320.2264
   616.26         319.5244
   616.40         318.8822
   616.54         318.4025
   616.68         318.1367
   616.82         318.0925
   616.96         318.2562
   617.10         318.6095
   617.24         319.1295
   617.38         319.7923
   617.52         320.5649
   617.66         321.4021
   617.80         322.2638
   617.94         323.1081
   618.08         323.8828
   618.22         324.5209
   618.36         324.9722
   618.50         325.2458
   618.64         325.3873
   618.78         325.4382
   618.92         325.4315
   619.06         325.3951
   619.20         325.3506
   619.34         325.3173
   619.48         325.3183
   619.62         325.3796
   619.76         325.5176
   619.90         325.7390
   620.04         326.0276
   620.18         326.3367
   620.32         326.6209
   620.46         326.8605
   620.60         327.0563
   620.74         327.2000
   620.88         327.2691
   621.02         327.2490
   621.16         327.1426
   621.30         326.9659
   621.44         326.7493
   621.58         326.5244
   621.72         326.2956
   621.86         326.0426
   622.00         325.7470
   622.14         325.4032
   622.28         324.9933
   622.42         324.4680
   622.56         323.7437
   622.70         322.7259
   622.84         321.3894
   622.98         319.8100
   623.12         318.0991
   623.26         316.3423
   623.40         314.5684
   623.54         312.7856
   623.68         311.0505
   623.82         309.4702
   623.96         308.1569
   624.10         307.1870
   624.24         306.5930
   624.38         306.3900
   624.52         306.6004
   624.66         307.2532
   624.80         308.3435
   624.94         309.7980
   625.08         311.5004
   625.22         313.3237
   625.36         315.1600
   625.50         316.9232
   625.64         318.5013
   625.78         319.7457
   625.92         320.5264
   626.06         320.8044
   626.20         320.6592
   626.34         320.2221
   626.48         319.5717
   626.62         318.6954
   626.76         317.5316
   626.90         316.0265
   627.04         314.1603
   627.18         311.9423
   627.32         309.4244
   627.46         306.7152
   627.60         303.9798
   627.74         301.4242
   627.88         299.2586
   628.02         297.6657
   628.16         296.7813
   628.30         296.6807
   628.44         297.3774
   628.58         298.8051
   628.72         300.8066
   628.86         303.1440
   629.00         305.5409
   629.14         307.7542
   629.28         309.6130
   629.42         311.0210
   629.56         311.9511
   629.70         312.4321
   629.84         312.5375
   629.98         312.3867
   630.12         312.1168
   630.26         311.8257
   630.40         311.5447
   630.54         311.2535
   630.68         310.9104
   630.82         310.4913
   630.96         310.0087
   631.10         309.4937
   631.24         308.9865
   631.38         308.5500
   631.52         308.2569
   631.66         308.1621
   631.80         308.2950
   631.94         308.6503
   632.08         309.1888
   632.22         309.8523
   632.36         310.5743
   632.50         311.2785
   632.64         311.8871
   632.78         312.3336
   632.92         312.5663
   633.06         312.5468
   633.20         312.2413
   633.34         311.6244
   633.48         310.7007
   633.62         309.5300
   633.76         308.2293
   633.90         306.9442
   634.04         305.8010
   634.18         304.8915
   634.32         304.3068
   634.46         304.1374
   634.60         304.4221
   634.74         305.1276
   634.88         306.1694
   635.02         307.4318
   635.16         308.7850
   635.30         310.1149
   635.44         311.3086
   635.58         312.2207
   635.72         312.6920
   635.86         312.6059
   636.00         311.9439
   636.14         310.8083
   636.28         309.3938
   636.42         307.9065
   636.56         306.4978
   636.70         305.2671
   636.84         304.2962
   636.98         303.6493
   637.12         303.3365
   637.26         303.3093
   637.40         303.5071
   637.54         303.8826
   637.68         304.3859
   637.82         304.9649
   637.96         305.5625
   638.10         306.0897
   638.24         306.4617
   638.38         306.6569
   638.52         306.7097
   638.66         306.6786
   638.80         306.6293
   638.94         306.6285
   639.08         306.7206
   639.22         306.9086
   639.36         307.1601
   639.50         307.4223
   639.64         307.6384
   639.78         307.7633
   639.92         307.7792
   640.06         307.6892
   640.20         307.4853
   640.34         307.1328
   640.48         306.5902
   640.62         305.8321
   640.76         304.8708
   640.90         303.7757
   641.04         302.6517
   641.18         301.6061
   641.32         300.7486
   641.46         300.1868
   641.60         299.9924
   641.74         300.1480
   641.88         300.5409
   642.02         301.0213
   642.16         301.4715
   642.30         301.8330
   642.44         302.0833
   642.58         302.2021
   642.72         302.1602
   642.86         301.9523
   643.00         301.6116
   643.14         301.1949
   643.28         300.7730
   643.42         300.4101
   643.56         300.1563
   643.70         300.0225
   643.84         299.9800
   643.98         299.9918
   644.12         299.9996
   644.26         299.8894
   644.40         299.5128
   644.54         298.7828
   644.68         297.7353
   644.82         296.4894
   644.96         295.1566
   645.10         293.8046
   645.24         292.4962
   645.38         291.3313
   645.52         290.4402
   645.66         289.9241
   645.80         289.8286
   645.94         290.1593
   646.08         290.8974
   646.22         292.0101
   646.36         293.4327
   646.50         295.0837
   646.64         296.8674
   646.78         298.6485
   646.92         300.2806
   647.06         301.6758
   647.20         302.8250
   647.34         303.7390
   647.48         304.4028
   647.62         304.7942
   647.76         304.8981
   647.90         304.6968
   648.04         304.1590
   648.18         303.2250
   648.32         301.8078
   648.46         299.8601
   648.60         297.4506
   648.74         294.7738
   648.88         292.0998
   649.02         289.7107
   649.16         287.8596
   649.30         286.7359
   649.44         286.4393
   649.58         286.9906
   649.72         288.3554
   649.86         290.4359
   650.00         293.0544
   650.14         295.9508
   650.28         298.8013
   650.42         301.2670
   650.56         303.0933
   650.70         304.1646
   650.84         304.4849
   650.98         304.1745
   651.12         303.4675
   651.26         302.6460
   651.40         301.9555
   651.54         301.5619
   651.68         301.5432
   651.82         301.9037
   651.96         302.5921
   652.10         303.5242
   652.24         304.6011
   652.38         305.7167
   652.52         306.7607
   652.66         307.6216
   652.80         308.2090
   652.94         308.4867
   653.08         308.4803
   653.22         308.2505
   653.36         307.8533
   653.50         307.3336
   653.64         306.7289
   653.78         306.0550
   653.92         305.3107
   654.06         304.4728
   654.20         303.4812
   654.34         302.2392
   654.48         300.6115
   654.62         298.4436
   654.76         295.5562
   654.90         291.7303
   655.04         286.7648
   655.18         280.5980
   655.32         273.3960
   655.46         265.5417
   655.60         257.5688
   655.74         250.0840
   655.88         243.6861
   656.02         238.8954
   656.16         236.1091
   656.30         235.5527
   656.44         237.2471
   656.58         241.0132
   656.72         246.4837
   656.86         253.1449
   657.00         260.4096
   657.14         267.6868
   657.28         274.4560
   657.42         280.3019
   657.56         284.9721
   657.70         288.4563
   657.84         290.9477
   657.98         292.6891
   658.12         293.8555
   658.26         294.5576
   658.40         294.8911
   658.54         294.9461
   658.68         294.8069
   658.82         294.5657
   658.96         294.2963
   659.10         294.0351
   659.24         293.7951
   659.38         293.5794
   659.52         293.3934
   659.66         293.2530
   659.80         293.1672
   659.94         293.1149
   660.08         293.0374
   660.22         292.8858
   660.36         292.6592
   660.50         292.3745
   660.64         292.0538
   660.78         291.7399
   660.92         291.4915
   661.06         291.3673
   661.20         291.4005
   661.34         291.6011
   661.48         291.9672
   661.62         292.4738
   661.76         293.0825
   661.90         293.7473
   662.04         294.4092
   662.18         295.0049
   662.32         295.4615
   662.46         295.7000
   662.60         295.6661
   662.74         295.3521
   662.88         294.8050
   663.02         294.0963
   663.16         293.2884
   663.30         292.4464
   663.44         291.6454
   663.58         290.9566
   663.72         290.4410
   663.86         290.1450
   664.00         290.0854
   664.14         290.2316
   664.28         290.5115
   664.42         290.8404
   664.56         291.1196
   664.70         291.2586
   664.84         291.2106
   664.98         290.9562
   665.12         290.5044
   665.26         289.9007
   665.40         289.2062
   665.54         288.4841
   665.68         287.7959
   665.82         287.1930
   665.96         286.7117
   666.10         286.3565
   666.24         286.0963
   666.38         285.8796
   666.52         285.6392
   666.66         285.3046
   666.80         284.8399
   666.94         284.2690
   667.08         283.6607
   667.22         283.0940
   667.36         282.6512
   667.50         282.3967
   667.64         282.3486
   667.78         282.4998
   667.92         282.8260
   668.06         283.2750
   668.20         283.7754
   668.34         284.2473
   668.48         284.6167
   668.62         284.8357
   668.76         284.8838
   668.90         284.7583
   669.04         284.4778
   669.18         284.0908
   669.32         283.6712
   669.46         283.2972
   669.60         283.0185
   669.74         282.8385
   669.88         282.7226
   670.02         282.6196
   670.16         282.4757
   670.30         282.2418
   670.44         281.8802
   670.58         281.3573
   670.72         280.6506
   670.86         279.7743
   671.00         278.7962
   671.14         277.8315
   671.28         277.0037
   671.42         276.4065
   671.56         276.0914
   671.70         276.0795
   671.84         276.3675
   671.98         276.9137
   672.12         277.6349
   672.26         278.4274
   672.40         279.1802
   672.54         279.7879
   672.68         280.1776
   672.82         280.3087
   672.96         280.1567
   673.10         279.7228
   673.24         279.0593
   673.38         278.2711
   673.52         277.4820
   673.66         276.7872
   673.80         276.2303
   673.94         275.8083
   674.08         275.4903
   674.22         275.2330
   674.36         274.9932
   674.50         274.7372
   674.64         274.4453
   674.78         274.1188
   674.92         273.7944
   675.06         273.5332
   675.20         273.3989
   675.34         273.4376
   675.48         273.6514
   675.62         274.0021
   675.76         274.4508
   675.90         274.9725
   676.04         275.5212
   676.18         276.0166
   676.32         276.3719
   676.46         276.5257
   676.60         276.4476
   676.74         276.1299
   676.88         275.5929
   677.02         274.8903
   677.16         274.1051
   677.30         273.3344
   677.44         272.6636
   677.58         272.1493
   677.72         271.8083
   677.86         271.6278
   678.00         271.5723
   678.14         271.5843
   678.28         271.6072
   678.42         271.6079
   678.56         271.5742
   678.70         271.5020
   678.84         271.3951
   678.98         271.2673
   679.12         271.1403
   679.26         271.0295
   679.40         270.9333
   679.54         270.8462
   679.68         270.7706
   679.82         270.7197
   679.96         270.7027
   680.10         270.7115
   680.24         270.7290
   680.38         270.7420
   680.52         270.7476
   680.66         270.7425
   680.80         270.7220
   680.94         270.6939
   681.08         270.6730
   681.22         270.6626
   681.36         270.6434
   681.50         270.5779
   681.64         270.4430
   681.78         270.2433
   681.92         269.9925
   682.06         269.7141
   682.20         269.4380
   682.34         269.1844
   682.48         268.9558
   682.62         268.7359
   682.76         268.4942
   682.90         268.1989
   683.04         267.8308
   683.18         267.3897
   683.32         266.8875
   683.46         266.3370
   683.60         265.7531
   683.74         265.1574
   683.88         264.5736
   684.02         264.0199
   684.16         263.5039
   684.30         263.0325
   684.44         262.6073
   684.58         262.2258
   684.72         261.8806
   684.86         261.5454
   685.00         261.1945
   685.14         260.8201
   685.28         260.4140
   685.42         259.9193
   685.56         259.1778
   685.70         257.9512
   685.84         256.0002
   685.98         253.1446
   686.12         249.2990
   686.26         244.4917
   686.40         238.8752
   686.54         232.7179
   686.68         226.3870
   686.82         220.3259
   686.96         215.0198
   687.10         210.9193
   687.24         208.3336
   687.38         207.3718
   687.52         207.9574
   687.66         209.8654
   687.80         212.7327
   687.94         216.0997
   688.08         219.4802
   688.22         222.4530
   688.36         224.7713
   688.50         226.3752
   688.64         227.3340
   688.78         227.7885
   688.92         227.9094
   689.06         227.8860
   689.20         227.9055
   689.34         228.1266
   689.48         228.6591
   689.62         229.5375
   689.76         230.7110
   689.90         232.0716
   690.04         233.5057
   690.18         234.9263
   690.32         236.2729
   690.46         237.5034
   690.60         238.5946
   690.74         239.5387
   690.88         240.3528
   691.02         241.0783
   691.16         241.7545
   691.30         242.4217
   691.44         243.1247
   691.58         243.8987
   691.72         244.7600
   691.86         245.6978
   692.00         246.6887
   692.14         247.6991
   692.28         248.6719
   692.42         249.5415
   692.56         250.2406
   692.70         250.7027
   692.84         250.8817
   692.98         250.7720
   693.12         250.4265
   693.26         249.9428
   693.40         249.4316
   693.54         248.9930
   693.68         248.6882
   693.82         248.5379
   693.96         248.5470
   694.10         248.7046
   694.24         248.9773
   694.38         249.3252
   694.52         249.7188
   694.66         250.1389
   694.80         250.5643
   694.94         250.9716
   695.08         251.3448
   695.22         251.6715
   695.36         251.9501
   695.50         252.1988
   695.64         252.4599
   695.78         252.7846
   695.92         253.1925
   696.06         253.6732
   696.20         254.2125
   696.34         254.7914
   696.48         255.3817
   696.62         255.9481
   696.76         256.4555
   696.90         256.8728
   697.04         257.1681
   697.18         257.3097
   697.32         257.2705
   697.46         257.0294
   697.60         256.5764
   697.74         255.9255
   697.88         255.1165
   698.02         254.1989
   698.16         253.2264
   698.30         252.2645
   698.44         251.3611
   698.58         250.5176
   698.72         249.7118
   698.86         248.9143
   699.00         248.0856
   699.14         247.1771
   699.28         246.1668
   699.42         245.0924
   699.56         244.0315
   699.70         243.0620
   699.84         242.2448
   699.98         241.6356
   700.12         241.2911
   700.26         241.2590
   700.40         241.5662
   700.54         242.2039
   700.68         243.1223
   700.82         244.2542
   700.96         245.5174
   701.10         246.7945
   701.24         247.9662
   701.38         248.9540
   701.52         249.7101
   701.66         250.2073
   701.80         250.4547
   701.94         250.5142
   702.08         250.4692
   702.22         250.3830
   702.36         250.2972
   702.50         250.2491
   702.64         250.2765
   702.78         250.3941
   702.92         250.5890
   703.06         250.8487
   703.20         251.1675
   703.34         251.5308
   703.48         251.9146
   703.62         252.2911
   703.76         252.6298
   703.90         252.9012
   704.04         253.0675
   704.18         253.0860
   704.32         252.9410
   704.46         252.6620
   704.60         252.3081
   704.74         251.9383
   704.88         251.6024
   705.02         251.3432
   705.16         251.1820
   705.30         251.1055
   705.44         251.0847
   705.58         251.1066
   705.72         251.1690
   705.86         251.2522
   706.00         251.3147
   706.14         251.3187
   706.28         251.2391
   706.42         251.0610
   706.56         250.7982
   706.70         250.4998
   706.84         250.2410
   706.98         250.1124
   707.12         250.1866
   707.26         250.4775
   707.40         250.9463
   707.54         251.5366
   707.68         252.1891
   707.82         252.8437
   707.96         253.4470
   708.10         253.9631
   708.24         254.3615
   708.38         254.6035
   708.52         254.6462
   708.66         254.4609
   708.80         254.0511
   708.94         253.4506
   709.08         252.7193
   709.22         251.9331
   709.36         251.1551
   709.50         250.4295
   709.64         249.7829
   709.78         249.2095
   709.92         248.6751
   710.06         248.1558
   710.20         247.6487
   710.34         247.1529
   710.48         246.6650
   710.62         246.1746
   710.76         245.6617
   710.90         245.1144
   711.04         244.5503
   711.18         244.0111
   711.32         243.5511
   711.46         243.2317
   711.60         243.1074
   711.74         243.2105
   711.88         243.5506
   712.02         244.1151
   712.16         244.8729
   712.30         245.7800
   712.44         246.7788
   712.58         247.8022
   712.72         248.7777
   712.86         249.6335
   713.00         250.3162
   713.14         250.7976
   713.28         251.0516
   713.42         251.0427
   713.56         250.7572
   713.70         250.2317
   713.84         249.5386
   713.98         248.7642
   714.12         248.0021
   714.26         247.3396
   714.40         246.8426
   714.54         246.5553
   714.68         246.4939
   714.82         246.6322
   714.96         246.9059
   715.10         247.2238
   715.24         247.4819
   715.38         247.5932
   715.52         247.4998
   715.66         247.1642
   715.80         246.5568
   715.94         245.6575
   716.08         244.4788
   716.22         243.0990
   716.36         241.6463
   716.50         240.2379
   716.64         238.9556
   716.78         237.8491
   716.92         236.9254
   717.06         236.1624
   717.20         235.5150
   717.34         234.8940
   717.48         234.1953
   717.62         233.3734
   717.76         232.4634
   717.90         231.5229
   718.04         230.5920
   718.18         229.6973
   718.32         228.8687
   718.46         228.1464
   718.60         227.5674
   718.74         227.1377
   718.88         226.8345
   719.02         226.6285
   719.16         226.4960
   719.30         226.4119
   719.44         226.3367
   719.58         226.2447
   719.72         226.1426
   719.86         226.0528
   720.00         226.0144
   720.14         226.0974
   720.28         226.3747
   720.42         226.8654
   720.56         227.5274
   720.70         228.3046
   720.84         229.1453
   720.98         229.9777
   721.12         230.7062
   721.26         231.2460
   721.40         231.5536
   721.54         231.6449
   721.68         231.5817
   721.82         231.4148
   721.96         231.1579
   722.10         230.8237
   722.24         230.4521
   722.38         230.0979
   722.52         229.8316
   722.66         229.7288
   722.80         229.8243
   722.94         230.1071
   723.08         230.5422
   723.22         231.0737
   723.36         231.6213
   723.50         232.0980
   723.64         232.4486
   723.78         232.6467
   723.92         232.6713
   724.06         232.4983
   724.20         232.0994
   724.34         231.4651
   724.48         230.6355
   724.62         229.6972
   724.76         228.7467
   724.90         227.8607
   725.04         227.0873
   725.18         226.4313
   725.32         225.8517
   725.46         225.3164
   725.60         224.8312
   725.74         224.4210
   725.88         224.1096
   726.02         223.9005
   726.16         223.7702
   726.30         223.6719
   726.44         223.5393
   726.58         223.3203
   726.72         223.0170
   726.86         222.6702
   727.00         222.3205
   727.14         221.9875
   727.28         221.6625
   727.42         221.3227
   727.56         220.9582
   727.70         220.5711
   727.84         220.1710
   727.98         219.7874
   728.12         219.4657
   728.26         219.2200
   728.40         219.0226
   728.54         218.8317
   728.68         218.6226
   728.82         218.4069
   728.96         218.2115
   729.10         218.0615
   729.24         217.9828
   729.38         217.9903
   729.52         218.0596
   729.66         218.1206
   729.80         218.0861
   729.94         217.8868
   730.08         217.4867
   730.22         216.8877
   730.36         216.1228
   730.50         215.2516
   730.64         214.3568
   730.78         213.5227
   730.92         212.8200
   731.06         212.3168
   731.20         212.0716
   731.34         212.1071
   731.48         212.4063
   731.62         212.9231
   731.76         213.5886
   731.90         214.3099
   732.04         214.9856
   732.18         215.5274
   732.32         215.8720
   732.46         216.0005
   732.60         215.9452
   732.74         215.7654
   732.88         215.5113
   733.02         215.2077
   733.16         214.8703
   733.30         214.5162
   733.44         214.1630
   733.58         213.8288
   733.72         213.5111
   733.86         213.1623
   734.00         212.7285
   734.14         212.1838
   734.28         211.5022
   734.42         210.6527
   734.56         209.6334
   734.70         208.4982
   734.84         207.3390
   734.98         206.2503
   735.12         205.3107
   735.26         204.5663
   735.40         204.0295
   735.54         203.6880
   735.68         203.5139
   735.82         203.4755
   735.96         203.5378
   736.10         203.6674
   736.24         203.8345
   736.38         204.0150
   736.52         204.2044
   736.66         204.4132
   736.80         204.6466
   736.94         204.9090
   737.08         205.2084
   737.22         205.5430
   737.36         205.8937
   737.50         206.2215
   737.64         206.4838
   737.78         206.6474
   737.92         206.6916
   738.06         206.6122
   738.20         206.4160
   738.34         206.1263
   738.48         205.7842
   738.62         205.4231
   738.76         205.0656
   738.90         204.7333
   739.04         204.4510
   739.18         204.2418
   739.32         204.1097
   739.46         204.0394
   739.60         203.9948
   739.74         203.9157
   739.88         203.7394
   740.02         203.4227
   740.16         202.9525
   740.30         202.3431
   740.44         201.6154
   740.58         200.7982
   740.72         199.9453
   740.86         199.1407
   741.00         198.4815
   741.14         198.0452
   741.28         197.8683
   741.42         197.9546
   741.56         198.2917
   741.70         198.8482
   741.84         199.5496
   741.98         200.2940
   742.12         201.0003
   742.26         201.6186
   742.40         202.1256
   742.54         202.5141
   742.68         202.7759
   742.82         202.9065
   742.96         202.9065
   743.10         202.7759
   743.24         202.5141
   743.38         202.1256
   743.52         201.6186
   743.66         201.0003
   743.80         200.2940
   743.94         199.5496
   744.08         198.8482
   744.22         198.2917
