# File HZ948
# Wavelength [nm]    Normalized Amplitude
   349.70         6.9544
   349.84         6.9463
   349.98         6.9419
   350.12         6.9381
   350.26         6.9337
   350.40         6.9285
   350.54         6.9225
   350.68         6.9158
   350.82         6.9098
   350.96         6.9056
   351.10         6.9042
   351.24         6.9056
   351.38         6.9098
   351.52         6.9158
   351.66         6.9225
   351.80         6.9285
   351.94         6.9337
   352.08         6.9381
   352.22         6.9419
   352.36         6.9463
   352.50         6.9544
   352.64         6.9696
   352.78         6.9945
   352.92         7.0301
   353.06         7.0760
   353.20         7.1305
   353.34         7.1922
   353.48         7.2588
   353.62         7.3272
   353.76         7.3941
   353.90         7.4563
   354.04         7.5107
   354.18         7.5547
   354.32         7.5859
   354.46         7.6028
   354.60         7.6040
   354.74         7.5895
   354.88         7.5604
   355.02         7.5197
   355.16         7.4705
   355.30         7.4147
   355.44         7.3534
   355.58         7.2877
   355.72         7.2189
   355.86         7.1470
   356.00         7.0714
   356.14         6.9915
   356.28         6.9083
   356.42         6.8238
   356.56         6.7405
   356.70         6.6610
   356.84         6.5876
   356.98         6.5222
   357.12         6.4666
   357.26         6.4213
   357.40         6.3854
   357.54         6.3570
   357.68         6.3329
   357.82         6.3103
   357.96         6.2880
   358.10         6.2681
   358.24         6.2546
   358.38         6.2523
   358.52         6.2658
   358.66         6.2991
   358.80         6.3554
   358.94         6.4338
   359.08         6.5294
   359.22         6.6335
   359.36         6.7363
   359.50         6.8292
   359.64         6.9056
   359.78         6.9604
   359.92         6.9899
   360.06         6.9932
   360.20         6.9718
   360.34         6.9298
   360.48         6.8733
   360.62         6.8091
   360.76         6.7438
   360.90         6.6818
   361.04         6.6266
   361.18         6.5806
   361.32         6.5460
   361.46         6.5242
   361.60         6.5156
   361.74         6.5205
   361.88         6.5387
   362.02         6.5689
   362.16         6.6072
   362.30         6.6474
   362.44         6.6832
   362.58         6.7096
   362.72         6.7247
   362.86         6.7300
   363.00         6.7296
   363.14         6.7270
   363.28         6.7241
   363.42         6.7228
   363.56         6.7247
   363.70         6.7312
   363.84         6.7431
   363.98         6.7615
   364.12         6.7868
   364.26         6.8189
   364.40         6.8569
   364.54         6.8995
   364.68         6.9459
   364.82         6.9964
   364.96         7.0535
   365.10         7.1197
   365.24         7.1962
   365.38         7.2824
   365.52         7.3751
   365.66         7.4676
   365.80         7.5524
   365.94         7.6237
   366.08         7.6794
   366.22         7.7188
   366.36         7.7427
   366.50         7.7519
   366.64         7.7472
   366.78         7.7288
   366.92         7.6979
   367.06         7.6565
   367.20         7.6076
   367.34         7.5546
   367.48         7.5002
   367.62         7.4467
   367.76         7.3971
   367.90         7.3547
   368.04         7.3231
   368.18         7.3054
   368.32         7.3040
   368.46         7.3202
   368.60         7.3535
   368.74         7.4013
   368.88         7.4598
   369.02         7.5237
   369.16         7.5863
   369.30         7.6411
   369.44         7.6830
   369.58         7.7084
   369.72         7.7149
   369.86         7.7024
   370.00         7.6730
   370.14         7.6314
   370.28         7.5848
   370.42         7.5423
   370.56         7.5124
   370.70         7.5011
   370.84         7.5104
   370.98         7.5371
   371.12         7.5750
   371.26         7.6174
   371.40         7.6588
   371.54         7.6946
   371.68         7.7215
   371.82         7.7374
   371.96         7.7421
   372.10         7.7359
   372.24         7.7177
   372.38         7.6863
   372.52         7.6417
   372.66         7.5865
   372.80         7.5274
   372.94         7.4733
   373.08         7.4316
   373.22         7.4069
   373.36         7.4000
   373.50         7.4082
   373.64         7.4265
   373.78         7.4482
   373.92         7.4668
   374.06         7.4782
   374.20         7.4818
   374.34         7.4813
   374.48         7.4815
   374.62         7.4856
   374.76         7.4940
   374.90         7.5088
   375.04         7.5355
   375.18         7.5807
   375.32         7.6500
   375.46         7.7442
   375.60         7.8565
   375.74         7.9725
   375.88         8.0745
   376.02         8.1473
   376.16         8.1822
   376.30         8.1800
   376.44         8.1498
   376.58         8.1083
   376.72         8.0763
   376.86         8.0738
   377.00         8.1148
   377.14         8.2053
   377.28         8.3435
   377.42         8.5236
   377.56         8.7371
   377.70         8.9708
   377.84         9.2065
   377.98         9.4238
   378.12         9.6023
   378.26         9.7225
   378.40         9.7687
   378.54         9.7334
   378.68         9.6195
   378.82         9.4398
   378.96         9.2152
   379.10         8.9715
   379.24         8.7368
   379.38         8.5384
   379.52         8.3982
   379.66         8.3321
   379.80         8.3494
   379.94         8.4516
   380.08         8.6313
   380.22         8.8726
   380.36         9.1529
   380.50         9.4483
   380.64         9.7362
   380.78         9.9958
   380.92         10.2101
   381.06         10.3682
   381.20         10.4659
   381.34         10.5050
   381.48         10.4921
   381.62         10.4354
   381.76         10.3420
   381.90         10.2158
   382.04         10.0573
   382.18         9.8655
   382.32         9.6397
   382.46         9.3810
   382.60         9.0937
   382.74         8.7872
   382.88         8.4782
   383.02         8.1891
   383.16         7.9446
   383.30         7.7676
   383.44         7.6759
   383.58         7.6809
   383.72         7.7867
   383.86         7.9894
   384.00         8.2772
   384.14         8.6329
   384.28         9.0339
   384.42         9.4540
   384.56         9.8651
   384.70         10.2411
   384.84         10.5631
   384.98         10.8226
   385.12         11.0210
   385.26         11.1660
   385.40         11.2689
   385.54         11.3414
   385.68         11.3937
   385.82         11.4336
   385.96         11.4645
   386.10         11.4864
   386.24         11.4968
   386.38         11.4930
   386.52         11.4716
   386.66         11.4294
   386.80         11.3646
   386.94         11.2765
   387.08         11.1648
   387.22         11.0288
   387.36         10.8672
   387.50         10.6780
   387.64         10.4589
   387.78         10.2090
   387.92         9.9315
   388.06         9.6348
   388.20         9.3323
   388.34         9.0410
   388.48         8.7797
   388.62         8.5667
   388.76         8.4189
   388.90         8.3499
   389.04         8.3666
   389.18         8.4669
   389.32         8.6403
   389.46         8.8705
   389.60         9.1375
   389.74         9.4203
   389.88         9.6988
   390.02         9.9562
   390.16         10.1817
   390.30         10.3710
   390.44         10.5267
   390.58         10.6544
   390.72         10.7592
   390.86         10.8449
   391.00         10.9138
   391.14         10.9663
   391.28         11.0011
   391.42         11.0152
   391.56         11.0020
   391.70         10.9510
   391.84         10.8487
   391.98         10.6815
   392.12         10.4391
   392.26         10.1171
   392.40         9.7201
   392.54         9.2636
   392.68         8.7741
   392.82         8.2869
   392.96         7.8418
   393.10         7.4771
   393.24         7.2240
   393.38         7.1034
   393.52         7.1238
   393.66         7.2814
   393.80         7.5596
   393.94         7.9314
   394.08         8.3620
   394.22         8.8129
   394.36         9.2468
   394.50         9.6318
   394.64         9.9465
   394.78         10.1813
   394.92         10.3365
   395.06         10.4180
   395.20         10.4317
   395.34         10.3788
   395.48         10.2556
   395.62         10.0555
   395.76         9.7744
   395.90         9.4165
   396.04         8.9972
   396.18         8.5429
   396.32         8.0871
   396.46         7.6671
   396.60         7.3193
   396.74         7.0748
   396.88         6.9569
   397.02         6.9773
   397.16         7.1354
   397.30         7.4182
   397.44         7.8019
   397.58         8.2543
   397.72         8.7397
   397.86         9.2241
   398.00         9.6798
   398.14         10.0882
   398.28         10.4403
   398.42         10.7357
   398.56         10.9798
   398.70         11.1809
   398.84         11.3480
   398.98         11.4888
   399.12         11.6090
   399.26         11.7106
   399.40         11.7940
   399.54         11.8593
   399.68         11.9077
   399.82         11.9421
   399.96         11.9680
   400.10         11.9930
   400.24         12.0238
   400.38         12.0651
   400.52         12.1190
   400.66         12.1834
   400.80         12.2534
   400.94         12.3228
   401.08         12.3863
   401.22         12.4401
   401.36         12.4825
   401.50         12.5125
   401.64         12.5293
   401.78         12.5314
   401.92         12.5166
   402.06         12.4846
   402.20         12.4378
   402.34         12.3813
   402.48         12.3215
   402.62         12.2653
   402.76         12.2179
   402.90         12.1826
   403.04         12.1603
   403.18         12.1508
   403.32         12.1514
   403.46         12.1585
   403.60         12.1691
   403.74         12.1812
   403.88         12.1940
   404.02         12.2064
   404.16         12.2162
   404.30         12.2203
   404.44         12.2155
   404.58         12.2004
   404.72         12.1765
   404.86         12.1481
   405.00         12.1197
   405.14         12.0933
   405.28         12.0686
   405.42         12.0445
   405.56         12.0201
   405.70         11.9957
   405.84         11.9718
   405.98         11.9488
   406.12         11.9272
   406.26         11.9083
   406.40         11.8918
   406.54         11.8743
   406.68         11.8509
   406.82         11.8182
   406.96         11.7759
   407.10         11.7257
   407.24         11.6708
   407.38         11.6143
   407.52         11.5596
   407.66         11.5100
   407.80         11.4684
   407.94         11.4369
   408.08         11.4166
   408.22         11.4057
   408.36         11.3983
   408.50         11.3844
   408.64         11.3518
   408.78         11.2875
   408.92         11.1781
   409.06         11.0135
   409.20         10.7909
   409.34         10.5185
   409.48         10.2142
   409.62         9.9011
   409.76         9.6034
   409.90         9.3446
   410.04         9.1468
   410.18         9.0290
   410.32         9.0050
   410.46         9.0791
   410.60         9.2454
   410.74         9.4889
   410.88         9.7869
   411.02         10.1137
   411.16         10.4441
   411.30         10.7557
   411.44         11.0312
   411.58         11.2610
   411.72         11.4439
   411.86         11.5849
   412.00         11.6905
   412.14         11.7669
   412.28         11.8201
   412.42         11.8574
   412.56         11.8873
   412.70         11.9188
   412.84         11.9587
   412.98         12.0098
   413.12         12.0702
   413.26         12.1359
   413.40         12.2026
   413.54         12.2668
   413.68         12.3263
   413.82         12.3786
   413.96         12.4203
   414.10         12.4487
   414.24         12.4620
   414.38         12.4585
   414.52         12.4376
   414.66         12.4013
   414.80         12.3550
   414.94         12.3066
   415.08         12.2632
   415.22         12.2294
   415.36         12.2081
   415.50         12.2004
   415.64         12.2057
   415.78         12.2228
   415.92         12.2496
   416.06         12.2816
   416.20         12.3122
   416.34         12.3338
   416.48         12.3405
   416.62         12.3284
   416.76         12.2969
   416.90         12.2478
   417.04         12.1861
   417.18         12.1182
   417.32         12.0514
   417.46         11.9918
   417.60         11.9441
   417.74         11.9107
   417.88         11.8922
   418.02         11.8898
   418.16         11.9036
   418.30         11.9316
   418.44         11.9691
   418.58         12.0091
   418.72         12.0441
   418.86         12.0685
   419.00         12.0802
   419.14         12.0796
   419.28         12.0682
   419.42         12.0484
   419.56         12.0238
   419.70         11.9986
   419.84         11.9772
   419.98         11.9638
   420.12         11.9626
   420.26         11.9772
   420.40         12.0089
   420.54         12.0568
   420.68         12.1172
   420.82         12.1830
   420.96         12.2458
   421.10         12.2973
   421.24         12.3302
   421.38         12.3389
   421.52         12.3205
   421.66         12.2765
   421.80         12.2126
   421.94         12.1368
   422.08         12.0578
   422.22         11.9837
   422.36         11.9203
   422.50         11.8707
   422.64         11.8358
   422.78         11.8156
   422.92         11.8082
   423.06         11.8109
   423.20         11.8203
   423.34         11.8329
   423.48         11.8456
   423.62         11.8556
   423.76         11.8603
   423.90         11.8575
   424.04         11.8477
   424.18         11.8352
   424.32         11.8262
   424.46         11.8254
   424.60         11.8341
   424.74         11.8499
   424.88         11.8681
   425.02         11.8849
   425.16         11.8991
   425.30         11.9119
   425.44         11.9255
   425.58         11.9421
   425.72         11.9621
   425.86         11.9836
   426.00         12.0032
   426.14         12.0169
   426.28         12.0222
   426.42         12.0185
   426.56         12.0073
   426.70         11.9923
   426.84         11.9773
   426.98         11.9644
   427.12         11.9541
   427.26         11.9463
   427.40         11.9404
   427.54         11.9365
   427.68         11.9342
   427.82         11.9312
   427.96         11.9234
   428.10         11.9073
   428.24         11.8800
   428.38         11.8399
   428.52         11.7875
   428.66         11.7240
   428.80         11.6510
   428.94         11.5703
   429.08         11.4839
   429.22         11.3937
   429.36         11.3017
   429.50         11.2094
   429.64         11.1183
   429.78         11.0304
   429.92         10.9488
   430.06         10.8772
   430.20         10.8189
   430.34         10.7773
   430.48         10.7561
   430.62         10.7592
   430.76         10.7883
   430.90         10.8419
   431.04         10.9147
   431.18         10.9975
   431.32         11.0786
   431.46         11.1470
   431.60         11.1959
   431.74         11.2227
   431.88         11.2272
   432.02         11.2101
   432.16         11.1721
   432.30         11.1129
   432.44         11.0322
   432.58         10.9280
   432.72         10.7956
   432.86         10.6296
   433.00         10.4272
   433.14         10.1910
   433.28         9.9292
   433.42         9.6556
   433.56         9.3879
   433.70         9.1451
   433.84         8.9456
   433.98         8.8053
   434.12         8.7370
   434.26         8.7492
   434.40         8.8443
   434.54         9.0169
   434.68         9.2547
   434.82         9.5398
   434.96         9.8518
   435.10         10.1709
   435.24         10.4798
   435.38         10.7653
   435.52         11.0201
   435.66         11.2421
   435.80         11.4327
   435.94         11.5945
   436.08         11.7297
   436.22         11.8389
   436.36         11.9221
   436.50         11.9796
   436.64         12.0135
   436.78         12.0294
   436.92         12.0339
   437.06         12.0323
   437.20         12.0262
   437.34         12.0153
   437.48         11.9994
   437.62         11.9802
   437.76         11.9601
   437.90         11.9411
   438.04         11.9244
   438.18         11.9110
   438.32         11.9014
   438.46         11.8969
   438.60         11.8988
   438.74         11.9072
   438.88         11.9207
   439.02         11.9379
   439.16         11.9573
   439.30         11.9771
   439.44         11.9947
   439.58         12.0069
   439.72         12.0116
   439.86         12.0086
   440.00         12.0002
   440.14         11.9899
   440.28         11.9806
   440.42         11.9732
   440.56         11.9676
   440.70         11.9640
   440.84         11.9629
   440.98         11.9659
   441.12         11.9748
   441.26         11.9905
   441.40         12.0124
   441.54         12.0393
   441.68         12.0702
   441.82         12.1033
   441.96         12.1363
   442.10         12.1665
   442.24         12.1910
   442.38         12.2072
   442.52         12.2130
   442.66         12.2076
   442.80         12.1921
   442.94         12.1681
   443.08         12.1380
   443.22         12.1043
   443.36         12.0701
   443.50         12.0385
   443.64         12.0121
   443.78         11.9921
   443.92         11.9788
   444.06         11.9722
   444.20         11.9713
   444.34         11.9742
   444.48         11.9784
   444.62         11.9809
   444.76         11.9789
   444.90         11.9711
   445.04         11.9574
   445.18         11.9380
   445.32         11.9132
   445.46         11.8834
   445.60         11.8493
   445.74         11.8124
   445.88         11.7759
   446.02         11.7448
   446.16         11.7243
   446.30         11.7179
   446.44         11.7271
   446.58         11.7520
   446.72         11.7902
   446.86         11.8367
   447.00         11.8854
   447.14         11.9302
   447.28         11.9670
   447.42         11.9933
   447.56         12.0087
   447.70         12.0123
   447.84         12.0040
   447.98         11.9849
   448.12         11.9585
   448.26         11.9286
   448.40         11.8995
   448.54         11.8759
   448.68         11.8615
   448.82         11.8583
   448.96         11.8667
   449.10         11.8863
   449.24         11.9168
   449.38         11.9578
   449.52         12.0078
   449.66         12.0641
   449.80         12.1245
   449.94         12.1872
   450.08         12.2493
   450.22         12.3065
   450.36         12.3535
   450.50         12.3864
   450.64         12.4035
   450.78         12.4046
   450.92         12.3903
   451.06         12.3616
   451.20         12.3212
   451.34         12.2724
   451.48         12.2183
   451.62         12.1614
   451.76         12.1028
   451.90         12.0424
   452.04         11.9792
   452.18         11.9111
   452.32         11.8379
   452.46         11.7627
   452.60         11.6899
   452.74         11.6240
   452.88         11.5689
   453.02         11.5282
   453.16         11.5051
   453.30         11.5010
   453.44         11.5144
   453.58         11.5411
   453.72         11.5757
   453.86         11.6118
   454.00         11.6433
   454.14         11.6641
   454.28         11.6698
   454.42         11.6588
   454.56         11.6334
   454.70         11.5985
   454.84         11.5609
   454.98         11.5286
   455.12         11.5095
   455.26         11.5084
   455.40         11.5269
   455.54         11.5641
   455.68         11.6174
   455.82         11.6825
   455.96         11.7546
   456.10         11.8290
   456.24         11.9015
   456.38         11.9686
   456.52         12.0279
   456.66         12.0773
   456.80         12.1149
   456.94         12.1384
   457.08         12.1462
   457.22         12.1373
   457.36         12.1117
   457.50         12.0709
   457.64         12.0173
   457.78         11.9545
   457.92         11.8869
   458.06         11.8192
   458.20         11.7569
   458.34         11.7048
   458.48         11.6670
   458.62         11.6461
   458.76         11.6425
   458.90         11.6548
   459.04         11.6798
   459.18         11.7130
   459.32         11.7484
   459.46         11.7807
   459.60         11.8065
   459.74         11.8248
   459.88         11.8364
   460.02         11.8430
   460.16         11.8464
   460.30         11.8489
   460.44         11.8530
   460.58         11.8599
   460.72         11.8698
   460.86         11.8829
   461.00         11.8995
   461.14         11.9192
   461.28         11.9403
   461.42         11.9606
   461.56         11.9779
   461.70         11.9905
   461.84         11.9967
   461.98         11.9956
   462.12         11.9880
   462.26         11.9751
   462.40         11.9580
   462.54         11.9370
   462.68         11.9130
   462.82         11.8877
   462.96         11.8637
   463.10         11.8430
   463.24         11.8264
   463.38         11.8137
   463.52         11.8037
   463.66         11.7942
   463.80         11.7828
   463.94         11.7677
   464.08         11.7482
   464.22         11.7249
   464.36         11.6993
   464.50         11.6737
   464.64         11.6512
   464.78         11.6348
   464.92         11.6266
   465.06         11.6272
   465.20         11.6360
   465.34         11.6516
   465.48         11.6705
   465.62         11.6881
   465.76         11.6991
   465.90         11.6990
   466.04         11.6858
   466.18         11.6602
   466.32         11.6255
   466.46         11.5872
   466.60         11.5508
   466.74         11.5208
   466.88         11.5004
   467.02         11.4921
   467.16         11.4974
   467.30         11.5169
   467.44         11.5501
   467.58         11.5953
   467.72         11.6492
   467.86         11.7067
   468.00         11.7620
   468.14         11.8102
   468.28         11.8484
   468.42         11.8762
   468.56         11.8934
   468.70         11.9000
   468.84         11.8951
   468.98         11.8782
   469.12         11.8487
   469.26         11.8072
   469.40         11.7555
   469.54         11.6980
   469.68         11.6401
   469.82         11.5867
   469.96         11.5421
   470.10         11.5089
   470.24         11.4869
   470.38         11.4748
   470.52         11.4716
   470.66         11.4770
   470.80         11.4907
   470.94         11.5122
   471.08         11.5396
   471.22         11.5693
   471.36         11.5971
   471.50         11.6193
   471.64         11.6328
   471.78         11.6357
   471.92         11.6279
   472.06         11.6104
   472.20         11.5842
   472.34         11.5497
   472.48         11.5084
   472.62         11.4628
   472.76         11.4160
   472.90         11.3725
   473.04         11.3366
   473.18         11.3113
   473.32         11.2990
   473.46         11.3009
   473.60         11.3165
   473.74         11.3438
   473.88         11.3796
   474.02         11.4195
   474.16         11.4591
   474.30         11.4949
   474.44         11.5240
   474.58         11.5444
   474.72         11.5544
   474.86         11.5542
   475.00         11.5446
   475.14         11.5264
   475.28         11.5002
   475.42         11.4667
   475.56         11.4274
   475.70         11.3841
   475.84         11.3395
   475.98         11.2967
   476.12         11.2591
   476.26         11.2290
   476.40         11.2087
   476.54         11.1991
   476.68         11.1998
   476.82         11.2087
   476.96         11.2230
   477.10         11.2397
   477.24         11.2561
   477.38         11.2696
   477.52         11.2775
   477.66         11.2772
   477.80         11.2679
   477.94         11.2519
   478.08         11.2331
   478.22         11.2163
   478.36         11.2057
   478.50         11.2047
   478.64         11.2145
   478.78         11.2345
   478.92         11.2619
   479.06         11.2926
   479.20         11.3214
   479.34         11.3437
   479.48         11.3564
   479.62         11.3585
   479.76         11.3503
   479.90         11.3334
   480.04         11.3105
   480.18         11.2857
   480.32         11.2640
   480.46         11.2495
   480.60         11.2444
   480.74         11.2494
   480.88         11.2638
   481.02         11.2840
   481.16         11.3045
   481.30         11.3197
   481.44         11.3256
   481.58         11.3205
   481.72         11.3043
   481.86         11.2776
   482.00         11.2420
   482.14         11.2003
   482.28         11.1549
   482.42         11.1079
   482.56         11.0615
   482.70         11.0179
   482.84         10.9786
   482.98         10.9437
   483.12         10.9124
   483.26         10.8839
   483.40         10.8578
   483.54         10.8328
   483.68         10.8072
   483.82         10.7796
   483.96         10.7489
   484.10         10.7130
   484.24         10.6674
   484.38         10.6064
   484.52         10.5235
   484.66         10.4128
   484.80         10.2679
   484.94         10.0829
   485.08         9.8559
   485.22         9.5909
   485.36         9.2985
   485.50         8.9947
   485.64         8.6992
   485.78         8.4324
   485.92         8.2128
   486.06         8.0548
   486.20         7.9684
   486.34         7.9580
   486.48         8.0212
   486.62         8.1494
   486.76         8.3292
   486.90         8.5442
   487.04         8.7766
   487.18         9.0090
   487.32         9.2267
   487.46         9.4196
   487.60         9.5827
   487.74         9.7154
   487.88         9.8202
   488.02         9.9019
   488.16         9.9666
   488.30         10.0208
   488.44         10.0702
   488.58         10.1193
   488.72         10.1709
   488.86         10.2259
   489.00         10.2834
   489.14         10.3407
   489.28         10.3953
   489.42         10.4458
   489.56         10.4909
   489.70         10.5289
   489.84         10.5594
   489.98         10.5822
   490.12         10.5971
   490.26         10.6040
   490.40         10.6042
   490.54         10.6013
   490.68         10.5987
   490.82         10.5981
   490.96         10.5984
   491.10         10.5964
   491.24         10.5888
   491.38         10.5741
   491.52         10.5528
   491.66         10.5273
   491.80         10.5010
   491.94         10.4783
   492.08         10.4616
   492.22         10.4517
   492.36         10.4484
   492.50         10.4508
   492.64         10.4576
   492.78         10.4671
   492.92         10.4778
   493.06         10.4884
   493.20         10.4984
   493.34         10.5076
   493.48         10.5173
   493.62         10.5299
   493.76         10.5479
   493.90         10.5739
   494.04         10.6089
   494.18         10.6523
   494.32         10.7008
   494.46         10.7491
   494.60         10.7911
   494.74         10.8210
   494.88         10.8363
   495.02         10.8375
   495.16         10.8270
   495.30         10.8079
   495.44         10.7844
   495.58         10.7604
   495.72         10.7401
   495.86         10.7260
   496.00         10.7185
   496.14         10.7166
   496.28         10.7192
   496.42         10.7246
   496.56         10.7310
   496.70         10.7369
   496.84         10.7397
   496.98         10.7361
   497.12         10.7227
   497.26         10.6982
   497.40         10.6638
   497.54         10.6222
   497.68         10.5766
   497.82         10.5293
   497.96         10.4830
   498.10         10.4404
   498.24         10.4045
   498.38         10.3784
   498.52         10.3644
   498.66         10.3633
   498.80         10.3748
   498.94         10.3963
   499.08         10.4232
   499.22         10.4499
   499.36         10.4709
   499.50         10.4813
   499.64         10.4780
   499.78         10.4611
   499.92         10.4330
   500.06         10.3969
   500.20         10.3546
   500.34         10.3075
   500.48         10.2576
   500.62         10.2067
   500.76         10.1573
   500.90         10.1122
   501.04         10.0738
   501.18         10.0437
   501.32         10.0231
   501.46         10.0129
   501.60         10.0132
   501.74         10.0234
   501.88         10.0434
   502.02         10.0734
   502.16         10.1122
   502.30         10.1573
   502.44         10.2049
   502.58         10.2505
   502.72         10.2896
   502.86         10.3188
   503.00         10.3362
   503.14         10.3428
   503.28         10.3412
   503.42         10.3358
   503.56         10.3307
   503.70         10.3289
   503.84         10.3318
   503.98         10.3394
   504.12         10.3514
   504.26         10.3673
   504.40         10.3866
   504.54         10.4090
   504.68         10.4334
   504.82         10.4578
   504.96         10.4813
   505.10         10.5036
   505.24         10.5249
   505.38         10.5448
   505.52         10.5633
   505.66         10.5813
   505.80         10.5989
   505.94         10.6147
   506.08         10.6262
   506.22         10.6316
   506.36         10.6295
   506.50         10.6200
   506.64         10.6033
   506.78         10.5795
   506.92         10.5476
   507.06         10.5079
   507.20         10.4625
   507.34         10.4145
   507.48         10.3672
   507.62         10.3236
   507.76         10.2856
   507.90         10.2542
   508.04         10.2314
   508.18         10.2196
   508.32         10.2212
   508.46         10.2363
   508.60         10.2634
   508.74         10.2998
   508.88         10.3411
   509.02         10.3821
   509.16         10.4189
   509.30         10.4478
   509.44         10.4665
   509.58         10.4747
   509.72         10.4744
   509.86         10.4680
   510.00         10.4586
   510.14         10.4499
   510.28         10.4460
   510.42         10.4502
   510.56         10.4645
   510.70         10.4896
   510.84         10.5240
   510.98         10.5637
   511.12         10.6029
   511.26         10.6357
   511.40         10.6570
   511.54         10.6639
   511.68         10.6561
   511.82         10.6346
   511.96         10.6000
   512.10         10.5538
   512.24         10.4993
   512.38         10.4408
   512.52         10.3831
   512.66         10.3296
   512.80         10.2817
   512.94         10.2391
   513.08         10.2014
   513.22         10.1681
   513.36         10.1379
   513.50         10.1095
   513.64         10.0825
   513.78         10.0577
   513.92         10.0360
   514.06         10.0188
   514.20         10.0075
   514.34         10.0035
   514.48         10.0070
   514.62         10.0179
   514.76         10.0357
   514.90         10.0592
   515.04         10.0867
   515.18         10.1151
   515.32         10.1399
   515.46         10.1556
   515.60         10.1579
   515.74         10.1431
   515.88         10.1086
   516.02         10.0532
   516.16         9.9797
   516.30         9.8939
   516.44         9.8035
   516.58         9.7179
   516.72         9.6467
   516.86         9.5981
   517.00         9.5768
   517.14         9.5827
   517.28         9.6112
   517.42         9.6553
   517.56         9.7069
   517.70         9.7580
   517.84         9.8010
   517.98         9.8302
   518.12         9.8426
   518.26         9.8390
   518.40         9.8221
   518.54         9.7968
   518.68         9.7701
   518.82         9.7496
   518.96         9.7413
   519.10         9.7484
   519.24         9.7708
   519.38         9.8053
   519.52         9.8468
   519.66         9.8898
   519.80         9.9298
   519.94         9.9642
   520.08         9.9931
   520.22         10.0168
   520.36         10.0354
   520.50         10.0482
   520.64         10.0551
   520.78         10.0573
   520.92         10.0575
   521.06         10.0583
   521.20         10.0613
   521.34         10.0664
   521.48         10.0716
   521.62         10.0736
   521.76         10.0693
   521.90         10.0573
   522.04         10.0378
   522.18         10.0126
   522.32         9.9842
   522.46         9.9549
   522.60         9.9273
   522.74         9.9043
   522.88         9.8881
   523.02         9.8795
   523.16         9.8789
   523.30         9.8868
   523.44         9.9025
   523.58         9.9240
   523.72         9.9477
   523.86         9.9701
   524.00         9.9880
   524.14         9.9997
   524.28         10.0047
   524.42         10.0041
   524.56         9.9990
   524.70         9.9912
   524.84         9.9818
   524.98         9.9710
   525.12         9.9574
   525.26         9.9386
   525.40         9.9122
   525.54         9.8760
   525.68         9.8287
   525.82         9.7711
   525.96         9.7055
   526.10         9.6351
   526.24         9.5637
   526.38         9.4955
   526.52         9.4347
   526.66         9.3854
   526.80         9.3522
   526.94         9.3378
   527.08         9.3428
   527.22         9.3655
   527.36         9.4036
   527.50         9.4531
   527.64         9.5092
   527.78         9.5671
   527.92         9.6240
   528.06         9.6801
   528.20         9.7364
   528.34         9.7938
   528.48         9.8511
   528.62         9.9058
   528.76         9.9549
   528.90         9.9954
   529.04         10.0251
   529.18         10.0428
   529.32         10.0476
   529.46         10.0396
   529.60         10.0198
   529.74         9.9905
   529.88         9.9558
   530.02         9.9206
   530.16         9.8896
   530.30         9.8661
   530.44         9.8523
   530.58         9.8488
   530.72         9.8537
   530.86         9.8635
   531.00         9.8736
   531.14         9.8801
   531.28         9.8805
   531.42         9.8731
   531.56         9.8565
   531.70         9.8299
   531.84         9.7937
   531.98         9.7499
   532.12         9.7020
   532.26         9.6546
   532.40         9.6125
   532.54         9.5795
   532.68         9.5577
   532.82         9.5480
   532.96         9.5492
   533.10         9.5590
   533.24         9.5745
   533.38         9.5933
   533.52         9.6124
   533.66         9.6293
   533.80         9.6414
   533.94         9.6473
   534.08         9.6477
   534.22         9.6452
   534.36         9.6441
   534.50         9.6488
   534.64         9.6621
   534.78         9.6851
   534.92         9.7171
   535.06         9.7551
   535.20         9.7945
   535.34         9.8303
   535.48         9.8581
   535.62         9.8744
   535.76         9.8777
   535.90         9.8681
   536.04         9.8465
   536.18         9.8151
   536.32         9.7773
   536.46         9.7375
   536.60         9.7004
   536.74         9.6685
   536.88         9.6429
   537.02         9.6235
   537.16         9.6091
   537.30         9.5984
   537.44         9.5901
   537.58         9.5838
   537.72         9.5796
   537.86         9.5775
   538.00         9.5772
   538.14         9.5792
   538.28         9.5842
   538.42         9.5922
   538.56         9.6016
   538.70         9.6100
   538.84         9.6155
   538.98         9.6167
   539.12         9.6126
   539.26         9.6018
   539.40         9.5835
   539.54         9.5577
   539.68         9.5258
   539.82         9.4897
   539.96         9.4522
   540.10         9.4167
   540.24         9.3862
   540.38         9.3624
   540.52         9.3463
   540.66         9.3394
   540.80         9.3427
   540.94         9.3559
   541.08         9.3767
   541.22         9.4021
   541.36         9.4298
   541.50         9.4584
   541.64         9.4856
   541.78         9.5097
   541.92         9.5291
   542.06         9.5428
   542.20         9.5503
   542.34         9.5521
   542.48         9.5495
   542.62         9.5452
   542.76         9.5415
   542.90         9.5406
   543.04         9.5443
   543.18         9.5530
   543.32         9.5660
   543.46         9.5808
   543.60         9.5945
   543.74         9.6049
   543.88         9.6109
   544.02         9.6124
   544.16         9.6096
   544.30         9.6027
   544.44         9.5921
   544.58         9.5780
   544.72         9.5610
   544.86         9.5423
   545.00         9.5242
   545.14         9.5087
   545.28         9.4969
   545.42         9.4883
   545.56         9.4824
   545.70         9.4783
   545.84         9.4749
   545.98         9.4717
   546.12         9.4686
   546.26         9.4661
   546.40         9.4642
   546.54         9.4624
   546.68         9.4604
   546.82         9.4568
   546.96         9.4503
   547.10         9.4405
   547.24         9.4281
   547.38         9.4146
   547.52         9.4017
   547.66         9.3904
   547.80         9.3816
   547.94         9.3768
   548.08         9.3774
   548.22         9.3842
   548.36         9.3969
   548.50         9.4145
   548.64         9.4352
   548.78         9.4571
   548.92         9.4776
   549.06         9.4943
   549.20         9.5050
   549.34         9.5083
   549.48         9.5035
   549.62         9.4913
   549.76         9.4729
   549.90         9.4494
   550.04         9.4220
   550.18         9.3926
   550.32         9.3638
   550.46         9.3387
   550.60         9.3202
   550.74         9.3101
   550.88         9.3087
   551.02         9.3154
   551.16         9.3287
   551.30         9.3464
   551.44         9.3658
   551.58         9.3838
   551.72         9.3978
   551.86         9.4056
   552.00         9.4064
   552.14         9.4006
   552.28         9.3888
   552.42         9.3718
   552.56         9.3516
   552.70         9.3312
   552.84         9.3136
   552.98         9.3008
   553.12         9.2937
   553.26         9.2924
   553.40         9.2965
   553.54         9.3049
   553.68         9.3173
   553.82         9.3332
   553.96         9.3513
   554.10         9.3700
   554.24         9.3878
   554.38         9.4034
   554.52         9.4163
   554.66         9.4262
   554.80         9.4324
   554.94         9.4344
   555.08         9.4329
   555.22         9.4290
   555.36         9.4230
   555.50         9.4144
   555.64         9.4028
   555.78         9.3877
   555.92         9.3684
   556.06         9.3454
   556.20         9.3196
   556.34         9.2921
   556.48         9.2640
   556.62         9.2359
   556.76         9.2090
   556.90         9.1849
   557.04         9.1655
   557.18         9.1523
   557.32         9.1453
   557.46         9.1435
   557.60         9.1456
   557.74         9.1494
   557.88         9.1526
   558.02         9.1528
   558.16         9.1484
   558.30         9.1384
   558.44         9.1232
   558.58         9.1040
   558.72         9.0828
   558.86         9.0616
   559.00         9.0418
   559.14         9.0251
   559.28         9.0133
   559.42         9.0083
   559.56         9.0111
   559.70         9.0221
   559.84         9.0408
   559.98         9.0662
   560.12         9.0969
   560.26         9.1309
   560.40         9.1647
   560.54         9.1946
   560.68         9.2168
   560.82         9.2288
   560.96         9.2302
   561.10         9.2214
   561.24         9.2036
   561.38         9.1788
   561.52         9.1495
   561.66         9.1188
   561.80         9.0897
   561.94         9.0647
   562.08         9.0460
   562.22         9.0345
   562.36         9.0307
   562.50         9.0344
   562.64         9.0442
   562.78         9.0579
   562.92         9.0727
   563.06         9.0865
   563.20         9.0985
   563.34         9.1090
   563.48         9.1186
   563.62         9.1273
   563.76         9.1345
   563.90         9.1393
   564.04         9.1406
   564.18         9.1379
   564.32         9.1314
   564.46         9.1215
   564.60         9.1087
   564.74         9.0931
   564.88         9.0749
   565.02         9.0544
   565.16         9.0325
   565.30         9.0101
   565.44         8.9880
   565.58         8.9676
   565.72         8.9505
   565.86         8.9385
   566.00         8.9324
   566.14         8.9321
   566.28         8.9374
   566.42         8.9477
   566.56         8.9621
   566.70         8.9796
   566.84         8.9988
   566.98         9.0178
   567.12         9.0339
   567.26         9.0447
   567.40         9.0477
   567.54         9.0416
   567.68         9.0259
   567.82         9.0013
   567.96         8.9703
   568.10         8.9360
   568.24         8.9020
   568.38         8.8714
   568.52         8.8472
   568.66         8.8314
   568.80         8.8256
   568.94         8.8303
   569.08         8.8438
   569.22         8.8631
   569.36         8.8842
   569.50         8.9026
   569.64         8.9141
   569.78         8.9157
   569.92         8.9057
   570.06         8.8840
   570.20         8.8527
   570.34         8.8157
   570.48         8.7780
   570.62         8.7445
   570.76         8.7190
   570.90         8.7044
   571.04         8.7026
   571.18         8.7146
   571.32         8.7401
   571.46         8.7769
   571.60         8.8214
   571.74         8.8692
   571.88         8.9156
   572.02         8.9566
   572.16         8.9895
   572.30         9.0140
   572.44         9.0308
   572.58         9.0410
   572.72         9.0462
   572.86         9.0480
   573.00         9.0475
   573.14         9.0455
   573.28         9.0425
   573.42         9.0392
   573.56         9.0358
   573.70         9.0322
   573.84         9.0275
   573.98         9.0205
   574.12         9.0098
   574.26         8.9941
   574.40         8.9732
   574.54         8.9484
   574.68         8.9216
   574.82         8.8951
   574.96         8.8712
   575.10         8.8510
   575.24         8.8351
   575.38         8.8240
   575.52         8.8176
   575.66         8.8161
   575.80         8.8193
   575.94         8.8265
   576.08         8.8364
   576.22         8.8473
   576.36         8.8571
   576.50         8.8641
   576.64         8.8673
   576.78         8.8658
   576.92         8.8597
   577.06         8.8503
   577.20         8.8387
   577.34         8.8254
   577.48         8.8110
   577.62         8.7966
   577.76         8.7828
   577.90         8.7702
   578.04         8.7587
   578.18         8.7482
   578.32         8.7385
   578.46         8.7297
   578.60         8.7223
   578.74         8.7173
   578.88         8.7152
   579.02         8.7150
   579.16         8.7159
   579.30         8.7171
   579.44         8.7185
   579.58         8.7207
   579.72         8.7238
   579.86         8.7272
   580.00         8.7302
   580.14         8.7329
   580.28         8.7354
   580.42         8.7377
   580.56         8.7399
   580.70         8.7424
   580.84         8.7456
   580.98         8.7502
   581.12         8.7565
   581.26         8.7640
   581.40         8.7719
   581.54         8.7790
   581.68         8.7846
   581.82         8.7888
   581.96         8.7917
   582.10         8.7935
   582.24         8.7943
   582.38         8.7946
   582.52         8.7948
   582.66         8.7958
   582.80         8.7987
   582.94         8.8034
   583.08         8.8095
   583.22         8.8169
   583.36         8.8256
   583.50         8.8358
   583.64         8.8477
   583.78         8.8616
   583.92         8.8766
   584.06         8.8912
   584.20         8.9032
   584.34         8.9103
   584.48         8.9104
   584.62         8.9018
   584.76         8.8835
   584.90         8.8558
   585.04         8.8204
   585.18         8.7795
   585.32         8.7370
   585.46         8.6970
   585.60         8.6638
   585.74         8.6408
   585.88         8.6308
   586.02         8.6343
   586.16         8.6498
   586.30         8.6736
   586.44         8.7012
   586.58         8.7272
   586.72         8.7477
   586.86         8.7605
   587.00         8.7643
   587.14         8.7584
   587.28         8.7428
   587.42         8.7186
   587.56         8.6876
   587.70         8.6509
   587.84         8.6085
   587.98         8.5602
   588.12         8.5048
   588.26         8.4413
   588.40         8.3693
   588.54         8.2898
   588.68         8.2054
   588.82         8.1206
   588.96         8.0417
   589.10         7.9751
   589.24         7.9271
   589.38         7.9025
   589.52         7.9043
   589.66         7.9325
   589.80         7.9846
   589.94         8.0560
   590.08         8.1403
   590.22         8.2302
   590.36         8.3188
   590.50         8.4000
   590.64         8.4694
   590.78         8.5234
   590.92         8.5612
   591.06         8.5834
   591.20         8.5927
   591.34         8.5921
   591.48         8.5848
   591.62         8.5733
   591.76         8.5588
   591.90         8.5419
   592.04         8.5225
   592.18         8.5009
   592.32         8.4775
   592.46         8.4535
   592.60         8.4298
   592.74         8.4077
   592.88         8.3883
   593.02         8.3721
   593.16         8.3593
   593.30         8.3497
   593.44         8.3431
   593.58         8.3394
   593.72         8.3380
   593.86         8.3378
   594.00         8.3377
   594.14         8.3369
   594.28         8.3345
   594.42         8.3302
   594.56         8.3240
   594.70         8.3167
   594.84         8.3094
   594.98         8.3030
   595.12         8.2977
   595.26         8.2929
   595.40         8.2882
   595.54         8.2835
   595.68         8.2788
   595.82         8.2741
   595.96         8.2694
   596.10         8.2646
   596.24         8.2598
   596.38         8.2551
   596.52         8.2503
   596.66         8.2455
   596.80         8.2407
   596.94         8.2359
   597.08         8.2311
   597.22         8.2262
   597.36         8.2214
   597.50         8.2165
   597.64         8.2116
   597.78         8.2067
   597.92         8.2018
   598.06         8.1969
   598.20         8.1919
   598.34         8.1870
   598.48         8.1820
   598.62         8.1770
   598.76         8.1714
   598.90         8.1643
   599.04         8.1548
   599.18         8.1424
   599.32         8.1269
   599.46         8.1088
   599.60         8.0896
   599.74         8.0710
   599.88         8.0540
   600.02         8.0393
   600.16         8.0274
   600.30         8.0184
   600.44         8.0121
   600.58         8.0074
   600.72         8.0030
   600.86         7.9983
   601.00         7.9921
   601.14         7.9836
   601.28         7.9723
   601.42         7.9585
   601.56         7.9429
   601.70         7.9272
   601.84         7.9133
   601.98         7.9034
   602.12         7.8993
   602.26         7.9023
   602.40         7.9124
   602.54         7.9290
   602.68         7.9509
   602.82         7.9759
   602.96         8.0006
   603.10         8.0207
   603.24         8.0321
   603.38         8.0327
   603.52         8.0222
   603.66         8.0013
   603.80         7.9733
   603.94         7.9435
   604.08         7.9173
   604.22         7.8988
   604.36         7.8910
   604.50         7.8950
   604.64         7.9105
   604.78         7.9354
   604.92         7.9670
   605.06         8.0024
   605.20         8.0378
   605.34         8.0695
   605.48         8.0949
   605.62         8.1133
   605.76         8.1262
   605.90         8.1360
   606.04         8.1458
   606.18         8.1581
   606.32         8.1739
   606.46         8.1935
   606.60         8.2153
   606.74         8.2359
   606.88         8.2520
   607.02         8.2610
   607.16         8.2620
   607.30         8.2549
   607.44         8.2406
   607.58         8.2205
   607.72         8.1963
   607.86         8.1698
   608.00         8.1436
   608.14         8.1199
   608.28         8.0996
   608.42         8.0825
   608.56         8.0689
   608.70         8.0593
   608.84         8.0539
   608.98         8.0515
   609.12         8.0507
   609.26         8.0496
   609.40         8.0474
   609.54         8.0438
   609.68         8.0394
   609.82         8.0345
   609.96         8.0295
   610.10         8.0251
   610.24         8.0218
   610.38         8.0204
   610.52         8.0216
   610.66         8.0253
   610.80         8.0307
   610.94         8.0372
   611.08         8.0446
   611.22         8.0528
   611.36         8.0601
   611.50         8.0640
   611.64         8.0627
   611.78         8.0549
   611.92         8.0411
   612.06         8.0231
   612.20         8.0033
   612.34         7.9839
   612.48         7.9665
   612.62         7.9521
   612.76         7.9407
   612.90         7.9320
   613.04         7.9252
   613.18         7.9193
   613.32         7.9130
   613.46         7.9056
   613.60         7.8967
   613.74         7.8867
   613.88         7.8762
   614.02         7.8660
   614.16         7.8574
   614.30         7.8517
   614.44         7.8508
   614.58         7.8561
   614.72         7.8683
   614.86         7.8863
   615.00         7.9077
   615.14         7.9293
   615.28         7.9475
   615.42         7.9605
   615.56         7.9674
   615.70         7.9683
   615.84         7.9633
   615.98         7.9530
   616.12         7.9382
   616.26         7.9201
   616.40         7.9005
   616.54         7.8812
   616.68         7.8636
   616.82         7.8492
   616.96         7.8390
   617.10         7.8339
   617.24         7.8341
   617.38         7.8392
   617.52         7.8487
   617.66         7.8613
   617.80         7.8756
   617.94         7.8899
   618.08         7.9029
   618.22         7.9129
   618.36         7.9182
   618.50         7.9181
   618.64         7.9129
   618.78         7.9039
   618.92         7.8933
   619.06         7.8833
   619.20         7.8757
   619.34         7.8715
   619.48         7.8714
   619.62         7.8765
   619.76         7.8866
   619.90         7.9005
   620.04         7.9160
   620.18         7.9303
   620.32         7.9411
   620.46         7.9464
   620.60         7.9460
   620.74         7.9406
   620.88         7.9309
   621.02         7.9183
   621.16         7.9045
   621.30         7.8910
   621.44         7.8794
   621.58         7.8709
   621.72         7.8658
   621.86         7.8628
   622.00         7.8602
   622.14         7.8564
   622.28         7.8502
   622.42         7.8409
   622.56         7.8282
   622.70         7.8123
   622.84         7.7938
   622.98         7.7741
   623.12         7.7550
   623.26         7.7383
   623.40         7.7244
   623.54         7.7131
   623.68         7.7042
   623.82         7.6972
   623.96         7.6916
   624.10         7.6864
   624.24         7.6804
   624.38         7.6730
   624.52         7.6639
   624.66         7.6539
   624.80         7.6444
   624.94         7.6369
   625.08         7.6324
   625.22         7.6315
   625.36         7.6340
   625.50         7.6404
   625.64         7.6512
   625.78         7.6662
   625.92         7.6840
   626.06         7.7025
   626.20         7.7194
   626.34         7.7329
   626.48         7.7415
   626.62         7.7435
   626.76         7.7374
   626.90         7.7226
   627.04         7.6993
   627.18         7.6693
   627.32         7.6359
   627.46         7.6029
   627.60         7.5739
   627.74         7.5514
   627.88         7.5371
   628.02         7.5315
   628.16         7.5341
   628.30         7.5434
   628.44         7.5566
   628.58         7.5708
   628.72         7.5832
   628.86         7.5920
   629.00         7.5956
   629.14         7.5936
   629.28         7.5865
   629.42         7.5754
   629.56         7.5624
   629.70         7.5499
   629.84         7.5402
   629.98         7.5345
   630.12         7.5327
   630.26         7.5340
   630.40         7.5370
   630.54         7.5406
   630.68         7.5438
   630.82         7.5457
   630.96         7.5458
   631.10         7.5439
   631.24         7.5402
   631.38         7.5356
   631.52         7.5307
   631.66         7.5262
   631.80         7.5225
   631.94         7.5201
   632.08         7.5188
   632.22         7.5185
   632.36         7.5189
   632.50         7.5192
   632.64         7.5184
   632.78         7.5154
   632.92         7.5098
   633.06         7.5017
   633.20         7.4911
   633.34         7.4782
   633.48         7.4636
   633.62         7.4479
   633.76         7.4324
   633.90         7.4189
   634.04         7.4090
   634.18         7.4039
   634.32         7.4050
   634.46         7.4130
   634.60         7.4274
   634.74         7.4464
   634.88         7.4679
   635.02         7.4898
   635.16         7.5094
   635.30         7.5249
   635.44         7.5355
   635.58         7.5409
   635.72         7.5408
   635.86         7.5356
   636.00         7.5260
   636.14         7.5128
   636.28         7.4978
   636.42         7.4839
   636.56         7.4744
   636.70         7.4707
   636.84         7.4731
   636.98         7.4805
   637.12         7.4909
   637.26         7.5021
   637.40         7.5131
   637.54         7.5233
   637.68         7.5327
   637.82         7.5406
   637.96         7.5472
   638.10         7.5520
   638.24         7.5547
   638.38         7.5552
   638.52         7.5535
   638.66         7.5496
   638.80         7.5440
   638.94         7.5375
   639.08         7.5308
   639.22         7.5234
   639.36         7.5146
   639.50         7.5040
   639.64         7.4917
   639.78         7.4780
   639.92         7.4638
   640.06         7.4495
   640.20         7.4356
   640.34         7.4220
   640.48         7.4091
   640.62         7.3975
   640.76         7.3876
   640.90         7.3805
   641.04         7.3764
   641.18         7.3749
   641.32         7.3757
   641.46         7.3789
   641.60         7.3857
   641.74         7.3962
   641.88         7.4094
   642.02         7.4235
   642.16         7.4364
   642.30         7.4466
   642.44         7.4531
   642.58         7.4556
   642.72         7.4540
   642.86         7.4489
   643.00         7.4418
   643.14         7.4340
   643.28         7.4265
   643.42         7.4199
   643.56         7.4143
   643.70         7.4095
   643.84         7.4044
   643.98         7.3985
   644.12         7.3921
   644.26         7.3842
   644.40         7.3733
   644.54         7.3586
   644.68         7.3398
   644.82         7.3175
   644.96         7.2929
   645.10         7.2680
   645.24         7.2449
   645.38         7.2253
   645.52         7.2110
   645.66         7.2035
   645.80         7.2027
   645.94         7.2079
   646.08         7.2177
   646.22         7.2309
   646.36         7.2469
   646.50         7.2651
   646.64         7.2855
   646.78         7.3078
   646.92         7.3304
   647.06         7.3520
   647.20         7.3720
   647.34         7.3897
   647.48         7.4047
   647.62         7.4161
   647.76         7.4232
   647.90         7.4245
   648.04         7.4190
   648.18         7.4061
   648.32         7.3856
   648.46         7.3576
   648.60         7.3232
   648.74         7.2851
   648.88         7.2476
   649.02         7.2147
   649.16         7.1897
   649.30         7.1749
   649.44         7.1714
   649.58         7.1794
   649.72         7.1979
   649.86         7.2253
   650.00         7.2593
   650.14         7.2965
   650.28         7.3339
   650.42         7.3685
   650.56         7.3979
   650.70         7.4207
   650.84         7.4366
   650.98         7.4467
   651.12         7.4531
   651.26         7.4581
   651.40         7.4641
   651.54         7.4718
   651.68         7.4804
   651.82         7.4887
   651.96         7.4952
   652.10         7.4988
   652.24         7.4990
   652.38         7.4956
   652.52         7.4894
   652.66         7.4807
   652.80         7.4696
   652.94         7.4567
   653.08         7.4422
   653.22         7.4267
   653.36         7.4108
   653.50         7.3949
   653.64         7.3791
   653.78         7.3621
   653.92         7.3422
   654.06         7.3174
   654.20         7.2862
   654.34         7.2472
   654.48         7.1993
   654.62         7.1414
   654.76         7.0721
   654.90         6.9889
   655.04         6.8886
   655.18         6.7677
   655.32         6.6253
   655.46         6.4647
   655.60         6.2932
   655.74         6.1216
   655.88         5.9625
   656.02         5.8276
   656.16         5.7272
   656.30         5.6682
   656.44         5.6543
   656.58         5.6856
   656.72         5.7589
   656.86         5.8670
   657.00         6.0007
   657.14         6.1492
   657.28         6.3014
   657.42         6.4470
   657.56         6.5771
   657.70         6.6864
   657.84         6.7739
   657.98         6.8428
   658.12         6.8970
   658.26         6.9400
   658.40         6.9739
   658.54         7.0000
   658.68         7.0195
   658.82         7.0338
   658.96         7.0447
   659.10         7.0538
   659.24         7.0626
   659.38         7.0718
   659.52         7.0816
   659.66         7.0917
   659.80         7.1011
   659.94         7.1083
   660.08         7.1122
   660.22         7.1118
   660.36         7.1079
   660.50         7.1019
   660.64         7.0951
   660.78         7.0881
   660.92         7.0814
   661.06         7.0761
   661.20         7.0727
   661.34         7.0713
   661.48         7.0719
   661.62         7.0742
   661.76         7.0772
   661.90         7.0801
   662.04         7.0818
   662.18         7.0822
   662.32         7.0812
   662.46         7.0788
   662.60         7.0756
   662.74         7.0722
   662.88         7.0695
   663.02         7.0679
   663.16         7.0671
   663.30         7.0663
   663.44         7.0650
   663.58         7.0634
   663.72         7.0615
   663.86         7.0597
   664.00         7.0586
   664.14         7.0586
   664.28         7.0596
   664.42         7.0606
   664.56         7.0611
   664.70         7.0600
   664.84         7.0569
   664.98         7.0512
   665.12         7.0427
   665.26         7.0316
   665.40         7.0181
   665.54         7.0026
   665.68         6.9853
   665.82         6.9669
   665.96         6.9486
   666.10         6.9318
   666.24         6.9169
   666.38         6.9039
   666.52         6.8928
   666.66         6.8832
   666.80         6.8743
   666.94         6.8652
   667.08         6.8558
   667.22         6.8469
   667.36         6.8392
   667.50         6.8332
   667.64         6.8284
   667.78         6.8243
   667.92         6.8204
   668.06         6.8169
   668.20         6.8144
   668.34         6.8139
   668.48         6.8157
   668.62         6.8197
   668.76         6.8255
   668.90         6.8318
   669.04         6.8376
   669.18         6.8422
   669.32         6.8452
   669.46         6.8462
   669.60         6.8446
   669.74         6.8406
   669.88         6.8345
   670.02         6.8262
   670.16         6.8155
   670.30         6.8033
   670.44         6.7912
   670.58         6.7810
   670.72         6.7732
   670.86         6.7679
   671.00         6.7642
   671.14         6.7615
   671.28         6.7595
   671.42         6.7581
   671.56         6.7568
   671.70         6.7548
   671.84         6.7517
   671.98         6.7471
   672.12         6.7411
   672.26         6.7344
   672.40         6.7275
   672.54         6.7210
   672.68         6.7149
   672.82         6.7090
   672.96         6.7035
   673.10         6.6985
   673.24         6.6936
   673.38         6.6890
   673.52         6.6857
   673.66         6.6843
   673.80         6.6850
   673.94         6.6873
   674.08         6.6906
   674.22         6.6939
   674.36         6.6965
   674.50         6.6982
   674.64         6.6991
   674.78         6.6990
   674.92         6.6978
   675.06         6.6957
   675.20         6.6929
   675.34         6.6895
   675.48         6.6857
   675.62         6.6818
   675.76         6.6788
   675.90         6.6782
   676.04         6.6812
   676.18         6.6881
   676.32         6.6985
   676.46         6.7117
   676.60         6.7268
   676.74         6.7421
   676.88         6.7559
   677.02         6.7667
   677.16         6.7732
   677.30         6.7750
   677.44         6.7721
   677.58         6.7649
   677.72         6.7545
   677.86         6.7420
   678.00         6.7294
   678.14         6.7183
   678.28         6.7101
   678.42         6.7058
   678.56         6.7056
   678.70         6.7092
   678.84         6.7158
   678.98         6.7233
   679.12         6.7292
   679.26         6.7316
   679.40         6.7294
   679.54         6.7222
   679.68         6.7106
   679.82         6.6959
   679.96         6.6798
   680.10         6.6637
   680.24         6.6491
   680.38         6.6372
   680.52         6.6285
   680.66         6.6231
   680.80         6.6201
   680.94         6.6190
   681.08         6.6194
   681.22         6.6209
   681.36         6.6229
   681.50         6.6246
   681.64         6.6250
   681.78         6.6242
   681.92         6.6229
   682.06         6.6215
   682.20         6.6207
   682.34         6.6208
   682.48         6.6214
   682.62         6.6209
   682.76         6.6178
   682.90         6.6107
   683.04         6.5989
   683.18         6.5823
   683.32         6.5616
   683.46         6.5382
   683.60         6.5138
   683.74         6.4903
   683.88         6.4690
   684.02         6.4520
   684.16         6.4405
   684.30         6.4352
   684.44         6.4362
   684.58         6.4432
   684.72         6.4553
   684.86         6.4712
   685.00         6.4882
   685.14         6.5035
   685.28         6.5144
   685.42         6.5185
   685.56         6.5122
   685.70         6.4902
   685.84         6.4465
   685.98         6.3772
   686.12         6.2809
   686.26         6.1592
   686.40         6.0171
   686.54         5.8628
   686.68         5.7066
   686.82         5.5593
   686.96         5.4313
   687.10         5.3322
   687.24         5.2688
   687.38         5.2437
   687.52         5.2548
   687.66         5.2967
   687.80         5.3609
   687.94         5.4369
   688.08         5.5141
   688.22         5.5829
   688.36         5.6364
   688.50         5.6722
   688.64         5.6915
   688.78         5.6983
   688.92         5.6975
   689.06         5.6942
   689.20         5.6936
   689.34         5.6997
   689.48         5.7148
   689.62         5.7393
   689.76         5.7717
   689.90         5.8087
   690.04         5.8471
   690.18         5.8838
   690.32         5.9167
   690.46         5.9442
   690.60         5.9660
   690.74         5.9824
   690.88         5.9943
   691.02         6.0035
   691.16         6.0116
   691.30         6.0207
   691.44         6.0329
   691.58         6.0496
   691.72         6.0713
   691.86         6.0968
   692.00         6.1242
   692.14         6.1517
   692.28         6.1780
   692.42         6.2018
   692.56         6.2224
   692.70         6.2393
   692.84         6.2525
   692.98         6.2625
   693.12         6.2705
   693.26         6.2781
   693.40         6.2862
   693.54         6.2953
   693.68         6.3051
   693.82         6.3149
   693.96         6.3244
   694.10         6.3336
   694.24         6.3421
   694.38         6.3492
   694.52         6.3540
   694.66         6.3565
   694.80         6.3568
   694.94         6.3556
   695.08         6.3532
   695.22         6.3503
   695.36         6.3476
   695.50         6.3456
   695.64         6.3449
   695.78         6.3463
   695.92         6.3505
   696.06         6.3578
   696.20         6.3686
   696.34         6.3830
   696.48         6.4009
   696.62         6.4219
   696.76         6.4444
   696.90         6.4661
   697.04         6.4845
   697.18         6.4985
   697.32         6.5080
   697.46         6.5137
   697.60         6.5153
   697.74         6.5123
   697.88         6.5042
   698.02         6.4910
   698.16         6.4734
   698.30         6.4529
   698.44         6.4317
   698.58         6.4114
   698.72         6.3931
   698.86         6.3774
   699.00         6.3644
   699.14         6.3538
   699.28         6.3446
   699.42         6.3357
   699.56         6.3262
   699.70         6.3154
   699.84         6.3025
   699.98         6.2870
   700.12         6.2690
   700.26         6.2494
   700.40         6.2296
   700.54         6.2111
   700.68         6.1949
   700.82         6.1823
   700.96         6.1742
   701.10         6.1701
   701.24         6.1685
   701.38         6.1677
   701.52         6.1666
   701.66         6.1650
   701.80         6.1633
   701.94         6.1620
   702.08         6.1616
   702.22         6.1631
   702.36         6.1674
   702.50         6.1753
   702.64         6.1875
   702.78         6.2033
   702.92         6.2210
   703.06         6.2385
   703.20         6.2540
   703.34         6.2667
   703.48         6.2762
   703.62         6.2819
   703.76         6.2829
   703.90         6.2791
   704.04         6.2714
   704.18         6.2606
   704.32         6.2478
   704.46         6.2342
   704.60         6.2216
   704.74         6.2116
   704.88         6.2059
   705.02         6.2054
   705.16         6.2106
   705.30         6.2205
   705.44         6.2326
   705.58         6.2445
   705.72         6.2541
   705.86         6.2597
   706.00         6.2608
   706.14         6.2573
   706.28         6.2498
   706.42         6.2396
   706.56         6.2293
   706.70         6.2213
   706.84         6.2174
   706.98         6.2189
   707.12         6.2266
   707.26         6.2394
   707.40         6.2550
   707.54         6.2714
   707.68         6.2865
   707.82         6.2982
   707.96         6.3051
   708.10         6.3067
   708.24         6.3037
   708.38         6.2970
   708.52         6.2880
   708.66         6.2781
   708.80         6.2685
   708.94         6.2596
   709.08         6.2512
   709.22         6.2431
   709.36         6.2351
   709.50         6.2269
   709.64         6.2180
   709.78         6.2080
   709.92         6.1960
   710.06         6.1816
   710.20         6.1652
   710.34         6.1474
   710.48         6.1297
   710.62         6.1137
   710.76         6.1008
   710.90         6.0916
   711.04         6.0866
   711.18         6.0856
   711.32         6.0879
   711.46         6.0925
   711.60         6.0983
   711.74         6.1047
   711.88         6.1114
   712.02         6.1184
   712.16         6.1254
   712.30         6.1322
   712.44         6.1390
   712.58         6.1461
   712.72         6.1537
   712.86         6.1621
   713.00         6.1714
   713.14         6.1813
   713.28         6.1908
   713.42         6.1982
   713.56         6.2019
   713.70         6.2010
   713.84         6.1953
   713.98         6.1858
   714.12         6.1738
   714.26         6.1609
   714.40         6.1491
   714.54         6.1404
   714.68         6.1363
   714.82         6.1378
   714.96         6.1450
   715.10         6.1573
   715.24         6.1737
   715.38         6.1928
   715.52         6.2126
   715.66         6.2311
   715.80         6.2462
   715.94         6.2561
   716.08         6.2589
   716.22         6.2534
   716.36         6.2400
   716.50         6.2197
   716.64         6.1940
   716.78         6.1649
   716.92         6.1347
   717.06         6.1047
   717.20         6.0750
   717.34         6.0446
   717.48         6.0119
   717.62         5.9766
   717.76         5.9396
   717.90         5.9026
   718.04         5.8668
   718.18         5.8338
   718.32         5.8054
   718.46         5.7831
   718.60         5.7679
   718.74         5.7597
   718.88         5.7578
   719.02         5.7610
   719.16         5.7673
   719.30         5.7752
   719.44         5.7825
   719.58         5.7871
   719.72         5.7878
   719.86         5.7847
   720.00         5.7799
   720.14         5.7769
   720.28         5.7798
   720.42         5.7917
   720.56         5.8129
   720.70         5.8421
   720.84         5.8776
   720.98         5.9178
   721.12         5.9611
   721.26         6.0049
   721.40         6.0458
   721.54         6.0808
   721.68         6.1079
   721.82         6.1256
   721.96         6.1326
   722.10         6.1283
   722.24         6.1133
   722.38         6.0896
   722.52         6.0604
   722.66         6.0299
   722.80         6.0017
   722.94         5.9779
   723.08         5.9591
   723.22         5.9457
   723.36         5.9392
   723.50         5.9408
   723.64         5.9508
   723.78         5.9671
   723.92         5.9859
   724.06         6.0030
   724.20         6.0148
   724.34         6.0189
   724.48         6.0146
   724.62         6.0022
   724.76         5.9829
   724.90         5.9584
   725.04         5.9313
   725.18         5.9038
   725.32         5.8768
   725.46         5.8509
   725.60         5.8275
   725.74         5.8091
   725.88         5.7980
   726.02         5.7949
   726.16         5.7987
   726.30         5.8074
   726.44         5.8185
   726.58         5.8294
   726.72         5.8381
   726.86         5.8434
   727.00         5.8447
   727.14         5.8418
   727.28         5.8344
   727.42         5.8231
   727.56         5.8096
   727.70         5.7955
   727.84         5.7821
   727.98         5.7705
   728.12         5.7621
   728.26         5.7575
   728.40         5.7564
   728.54         5.7582
   728.68         5.7630
   728.82         5.7716
   728.96         5.7847
   729.10         5.8026
   729.24         5.8236
   729.38         5.8460
   729.52         5.8677
   729.66         5.8867
   729.80         5.9006
   729.94         5.9075
   730.08         5.9060
   730.22         5.8953
   730.36         5.8756
   730.50         5.8481
   730.64         5.8152
   730.78         5.7800
   730.92         5.7464
   731.06         5.7181
   731.20         5.6979
   731.34         5.6867
   731.48         5.6841
   731.62         5.6879
   731.76         5.6948
   731.90         5.7018
   732.04         5.7066
   732.18         5.7081
   732.32         5.7056
   732.46         5.6992
   732.60         5.6903
   732.74         5.6811
   732.88         5.6737
   733.02         5.6696
   733.16         5.6697
   733.30         5.6742
   733.44         5.6828
   733.58         5.6946
   733.72         5.7077
   733.86         5.7200
   734.00         5.7297
   734.14         5.7361
   734.28         5.7386
   734.42         5.7361
   734.56         5.7272
   734.70         5.7111
   734.84         5.6882
   734.98         5.6599
   735.12         5.6281
   735.26         5.5942
   735.40         5.5585
   735.54         5.5215
   735.68         5.4839
   735.82         5.4471
   735.96         5.4130
   736.10         5.3840
   736.24         5.3621
   736.38         5.3495
   736.52         5.3480
   736.66         5.3587
   736.80         5.3805
   736.94         5.4111
   737.08         5.4471
   737.22         5.4854
   737.36         5.5234
   737.50         5.5583
   737.64         5.5872
   737.78         5.6072
   737.92         5.6173
   738.06         5.6178
   738.20         5.6109
   738.34         5.5989
   738.48         5.5846
   738.62         5.5700
   738.76         5.5569
   738.90         5.5472
   739.04         5.5427
   739.18         5.5451
   739.32         5.5546
   739.46         5.5705
   739.60         5.5909
   739.74         5.6132
   739.88         5.6346
   740.02         5.6532
   740.16         5.6673
   740.30         5.6764
   740.44         5.6810
   740.58         5.6822
   740.72         5.6814
   740.86         5.6800
   741.00         5.6792
   741.14         5.6804
   741.28         5.6842
   741.42         5.6904
   741.56         5.6984
   741.70         5.7075
   741.84         5.7156
   741.98         5.7204
   742.12         5.7209
   742.26         5.7172
   742.40         5.7103
   742.54         5.7025
   742.68         5.6959
   742.82         5.6921
   742.96         5.6921
   743.10         5.6959
   743.24         5.7025
   743.38         5.7103
   743.52         5.7172
   743.66         5.7209
   743.80         5.7204
   743.94         5.7156
   744.08         5.7075
   744.22         5.6984
