# File O1015
# Wavelength [nm]    Normalized Amplitude
   349.70         12.2525
   349.84         12.1951
   349.98         12.1257
   350.12         12.0447
   350.26         11.9529
   350.40         11.8537
   350.54         11.7533
   350.68         11.6611
   350.82         11.5869
   350.96         11.5390
   351.10         11.5224
   351.24         11.5390
   351.38         11.5869
   351.52         11.6611
   351.66         11.7533
   351.80         11.8537
   351.94         11.9529
   352.08         12.0447
   352.22         12.1257
   352.36         12.1951
   352.50         12.2525
   352.64         12.2972
   352.78         12.3286
   352.92         12.3486
   353.06         12.3594
   353.20         12.3635
   353.34         12.3619
   353.48         12.3530
   353.62         12.3354
   353.76         12.3097
   353.90         12.2789
   354.04         12.2482
   354.18         12.2209
   354.32         12.1962
   354.46         12.1742
   354.60         12.1578
   354.74         12.1501
   354.88         12.1523
   355.02         12.1627
   355.16         12.1764
   355.30         12.1888
   355.44         12.1980
   355.58         12.2025
   355.72         12.2003
   355.86         12.1896
   356.00         12.1669
   356.14         12.1290
   356.28         12.0744
   356.42         12.0031
   356.56         11.9176
   356.70         11.8217
   356.84         11.7195
   356.98         11.6175
   357.12         11.5252
   357.26         11.4496
   357.40         11.3926
   357.54         11.3523
   357.68         11.3245
   357.82         11.3054
   357.96         11.2933
   358.10         11.2858
   358.24         11.2799
   358.38         11.2723
   358.52         11.2601
   358.66         11.2408
   358.80         11.2130
   358.94         11.1765
   359.08         11.1324
   359.22         11.0821
   359.36         11.0268
   359.50         10.9683
   359.64         10.9106
   359.78         10.8584
   359.92         10.8175
   360.06         10.7940
   360.20         10.7918
   360.34         10.8124
   360.48         10.8552
   360.62         10.9195
   360.76         11.0037
   360.90         11.1041
   361.04         11.2151
   361.18         11.3296
   361.32         11.4382
   361.46         11.5294
   361.60         11.5939
   361.74         11.6288
   361.88         11.6384
   362.02         11.6316
   362.16         11.6173
   362.30         11.6011
   362.44         11.5867
   362.58         11.5756
   362.72         11.5658
   362.86         11.5527
   363.00         11.5333
   363.14         11.5080
   363.28         11.4787
   363.42         11.4461
   363.56         11.4086
   363.70         11.3643
   363.84         11.3119
   363.98         11.2544
   364.12         11.2004
   364.26         11.1599
   364.40         11.1417
   364.54         11.1524
   364.68         11.1940
   364.82         11.2629
   364.96         11.3507
   365.10         11.4479
   365.24         11.5472
   365.38         11.6424
   365.52         11.7260
   365.66         11.7905
   365.80         11.8296
   365.94         11.8384
   366.08         11.8145
   366.22         11.7591
   366.36         11.6782
   366.50         11.5831
   366.64         11.4886
   366.78         11.4079
   366.92         11.3500
   367.06         11.3212
   367.20         11.3243
   367.34         11.3555
   367.48         11.4050
   367.62         11.4613
   367.76         11.5162
   367.90         11.5643
   368.04         11.6002
   368.18         11.6194
   368.32         11.6215
   368.46         11.6075
   368.60         11.5788
   368.74         11.5396
   368.88         11.4967
   369.02         11.4572
   369.16         11.4263
   369.30         11.4069
   369.44         11.3969
   369.58         11.3920
   369.72         11.3875
   369.86         11.3783
   370.00         11.3602
   370.14         11.3329
   370.28         11.2997
   370.42         11.2667
   370.56         11.2404
   370.70         11.2259
   370.84         11.2244
   370.98         11.2326
   371.12         11.2450
   371.26         11.2588
   371.40         11.2748
   371.54         11.2953
   371.68         11.3227
   371.82         11.3593
   371.96         11.4048
   372.10         11.4561
   372.24         11.5077
   372.38         11.5514
   372.52         11.5801
   372.66         11.5928
   372.80         11.5969
   372.94         11.6058
   373.08         11.6344
   373.22         11.6933
   373.36         11.7834
   373.50         11.8954
   373.64         12.0151
   373.78         12.1277
   373.92         12.2192
   374.06         12.2773
   374.20         12.2955
   374.34         12.2739
   374.48         12.2185
   374.62         12.1430
   374.76         12.0697
   374.90         12.0261
   375.04         12.0397
   375.18         12.1345
   375.32         12.3237
   375.46         12.6008
   375.60         12.9366
   375.74         13.2826
   375.88         13.5805
   376.02         13.7774
   376.16         13.8408
   376.30         13.7653
   376.44         13.5731
   376.58         13.3078
   376.72         13.0280
   376.86         12.7994
   377.00         12.6837
   377.14         12.7280
   377.28         12.9586
   377.42         13.3785
   377.56         13.9665
   377.70         14.6814
   377.84         15.4667
   377.98         16.2532
   378.12         16.9653
   378.26         17.5304
   378.40         17.8897
   378.54         18.0063
   378.68         17.8706
   378.82         17.5014
   378.96         16.9404
   379.10         16.2465
   379.24         15.4915
   379.38         14.7544
   379.52         14.1136
   379.66         13.6388
   379.80         13.3836
   379.94         13.3801
   380.08         13.6350
   380.22         14.1310
   380.36         14.8285
   380.50         15.6678
   380.64         16.5758
   380.78         17.4771
   380.92         18.3050
   381.06         19.0091
   381.20         19.5582
   381.34         19.9374
   381.48         20.1454
   381.62         20.1900
   381.76         20.0843
   381.90         19.8433
   382.04         19.4805
   382.18         19.0055
   382.32         18.4254
   382.46         17.7511
   382.60         17.0028
   382.74         16.2144
   382.88         15.4318
   383.02         14.7046
   383.16         14.0804
   383.30         13.6046
   383.44         13.3173
   383.58         13.2436
   383.72         13.3881
   383.86         13.7356
   384.00         14.2558
   384.14         14.9072
   384.28         15.6409
   384.42         16.4052
   384.56         17.1525
   384.70         17.8457
   384.84         18.4603
   384.98         18.9868
   385.12         19.4292
   385.26         19.7987
   385.40         20.1073
   385.54         20.3651
   385.68         20.5794
   385.82         20.7549
   385.96         20.8932
   386.10         20.9937
   386.24         21.0533
   386.38         21.0676
   386.52         21.0337
   386.66         20.9493
   386.80         20.8103
   386.94         20.6102
   387.08         20.3406
   387.22         19.9925
   387.36         19.5562
   387.50         19.0212
   387.64         18.3804
   387.78         17.6358
   387.92         16.8037
   388.06         15.9180
   388.20         15.0273
   388.34         14.1891
   388.48         13.4636
   388.62         12.9081
   388.76         12.5705
   388.90         12.4796
   389.04         12.6406
   389.18         13.0377
   389.32         13.6370
   389.46         14.3891
   389.60         15.2345
   389.74         16.1112
   389.88         16.9613
   390.02         17.7356
   390.16         18.3992
   390.30         18.9361
   390.44         19.3507
   390.58         19.6613
   390.72         19.8922
   390.86         20.0673
   391.00         20.2062
   391.14         20.3232
   391.28         20.4264
   391.42         20.5182
   391.56         20.5963
   391.70         20.6561
   391.84         20.6925
   391.98         20.7022
   392.12         20.6843
   392.26         20.6418
   392.40         20.5805
   392.54         20.5070
   392.68         20.4288
   392.82         20.3545
   392.96         20.2912
   393.10         20.2436
   393.24         20.2140
   393.38         20.2024
   393.52         20.2081
   393.66         20.2274
   393.80         20.2533
   393.94         20.2763
   394.08         20.2862
   394.22         20.2735
   394.36         20.2300
   394.50         20.1491
   394.64         20.0255
   394.78         19.8549
   394.92         19.6329
   395.06         19.3541
   395.20         19.0125
   395.34         18.6011
   395.48         18.1129
   395.62         17.5413
   395.76         16.8846
   395.90         16.1492
   396.04         15.3516
   396.18         14.5202
   396.32         13.6926
   396.46         12.9138
   396.60         12.2312
   396.74         11.6906
   396.88         11.3312
   397.02         11.1806
   397.16         11.2501
   397.30         11.5341
   397.44         12.0102
   397.58         12.6402
   397.72         13.3741
   397.86         14.1569
   398.00         14.9372
   398.14         15.6732
   398.28         16.3360
   398.42         16.9113
   398.56         17.3970
   398.70         17.7996
   398.84         18.1297
   398.98         18.3991
   399.12         18.6200
   399.26         18.8021
   399.40         18.9527
   399.54         19.0761
   399.68         19.1745
   399.82         19.2479
   399.96         19.2957
   400.10         19.3194
   400.24         19.3226
   400.38         19.3098
   400.52         19.2875
   400.66         19.2629
   400.80         19.2403
   400.94         19.2215
   401.08         19.2065
   401.22         19.1932
   401.36         19.1764
   401.50         19.1507
   401.64         19.1126
   401.78         19.0619
   401.92         19.0007
   402.06         18.9332
   402.20         18.8658
   402.34         18.8050
   402.48         18.7550
   402.62         18.7173
   402.76         18.6918
   402.90         18.6763
   403.04         18.6665
   403.18         18.6601
   403.32         18.6571
   403.46         18.6575
   403.60         18.6626
   403.74         18.6743
   403.88         18.6929
   404.02         18.7177
   404.16         18.7487
   404.30         18.7867
   404.44         18.8302
   404.58         18.8746
   404.72         18.9141
   404.86         18.9451
   405.00         18.9650
   405.14         18.9718
   405.28         18.9652
   405.42         18.9482
   405.56         18.9245
   405.70         18.8969
   405.84         18.8685
   405.98         18.8400
   406.12         18.8086
   406.26         18.7704
   406.40         18.7215
   406.54         18.6578
   406.68         18.5775
   406.82         18.4814
   406.96         18.3720
   407.10         18.2527
   407.24         18.1272
   407.38         17.9999
   407.52         17.8733
   407.66         17.7458
   407.80         17.6127
   407.94         17.4682
   408.08         17.3049
   408.22         17.1135
   408.36         16.8845
   408.50         16.6095
   408.64         16.2797
   408.78         15.8866
   408.92         15.4242
   409.06         14.8907
   409.20         14.2930
   409.34         13.6496
   409.48         12.9900
   409.62         12.3513
   409.76         11.7732
   409.90         11.2939
   410.04         10.9466
   410.18         10.7547
   410.32         10.7314
   410.46         10.8784
   410.60         11.1844
   410.74         11.6252
   410.88         12.1674
   411.02         12.7725
   411.16         13.4008
   411.30         14.0161
   411.44         14.5905
   411.58         15.1065
   411.72         15.5553
   411.86         15.9350
   412.00         16.2476
   412.14         16.4960
   412.28         16.6842
   412.42         16.8182
   412.56         16.9068
   412.70         16.9604
   412.84         16.9893
   412.98         17.0035
   413.12         17.0099
   413.26         17.0117
   413.40         17.0111
   413.54         17.0111
   413.68         17.0149
   413.82         17.0247
   413.96         17.0407
   414.10         17.0627
   414.24         17.0897
   414.38         17.1212
   414.52         17.1575
   414.66         17.1991
   414.80         17.2467
   414.94         17.3004
   415.08         17.3578
   415.22         17.4135
   415.36         17.4604
   415.50         17.4919
   415.64         17.5020
   415.78         17.4867
   415.92         17.4458
   416.06         17.3830
   416.20         17.3037
   416.34         17.2142
   416.48         17.1202
   416.62         17.0277
   416.76         16.9432
   416.90         16.8728
   417.04         16.8203
   417.18         16.7864
   417.32         16.7705
   417.46         16.7714
   417.60         16.7873
   417.74         16.8149
   417.88         16.8496
   418.02         16.8871
   418.16         16.9225
   418.30         16.9515
   418.44         16.9705
   418.58         16.9760
   418.72         16.9654
   418.86         16.9383
   419.00         16.8976
   419.14         16.8474
   419.28         16.7928
   419.42         16.7384
   419.56         16.6878
   419.70         16.6440
   419.84         16.6100
   419.98         16.5890
   420.12         16.5823
   420.26         16.5875
   420.40         16.5995
   420.54         16.6116
   420.68         16.6184
   420.82         16.6172
   420.96         16.6080
   421.10         16.5921
   421.24         16.5711
   421.38         16.5465
   421.52         16.5203
   421.66         16.4941
   421.80         16.4685
   421.94         16.4444
   422.08         16.4223
   422.22         16.4024
   422.36         16.3844
   422.50         16.3674
   422.64         16.3494
   422.78         16.3286
   422.92         16.3041
   423.06         16.2764
   423.20         16.2475
   423.34         16.2215
   423.48         16.2028
   423.62         16.1936
   423.76         16.1928
   423.90         16.1985
   424.04         16.2097
   424.18         16.2253
   424.32         16.2436
   424.46         16.2612
   424.60         16.2749
   424.74         16.2822
   424.88         16.2820
   425.02         16.2747
   425.16         16.2601
   425.30         16.2370
   425.44         16.2047
   425.58         16.1628
   425.72         16.1126
   425.86         16.0575
   426.00         16.0020
   426.14         15.9490
   426.28         15.8991
   426.42         15.8533
   426.56         15.8134
   426.70         15.7811
   426.84         15.7563
   426.98         15.7385
   427.12         15.7289
   427.26         15.7306
   427.40         15.7453
   427.54         15.7717
   427.68         15.8051
   427.82         15.8401
   427.96         15.8731
   428.10         15.9018
   428.24         15.9247
   428.38         15.9409
   428.52         15.9490
   428.66         15.9462
   428.80         15.9299
   428.94         15.8997
   429.08         15.8568
   429.22         15.8034
   429.36         15.7429
   429.50         15.6797
   429.64         15.6187
   429.78         15.5636
   429.92         15.5151
   430.06         15.4712
   430.20         15.4288
   430.34         15.3855
   430.48         15.3398
   430.62         15.2903
   430.76         15.2353
   430.90         15.1733
   431.04         15.1043
   431.18         15.0282
   431.32         14.9441
   431.46         14.8513
   431.60         14.7489
   431.74         14.6348
   431.88         14.5056
   432.02         14.3569
   432.16         14.1825
   432.30         13.9736
   432.44         13.7210
   432.58         13.4161
   432.72         13.0520
   432.86         12.6256
   433.00         12.1396
   433.14         11.6058
   433.28         11.0453
   433.42         10.4868
   433.56         9.9636
   433.70         9.5091
   433.84         9.1531
   433.98         8.9191
   434.12         8.8231
   434.26         8.8712
   434.40         9.0588
   434.54         9.3711
   434.68         9.7843
   434.82         10.2673
   434.96         10.7856
   435.10         11.3061
   435.24         11.8013
   435.38         12.2515
   435.52         12.6474
   435.66         12.9881
   435.80         13.2780
   435.94         13.5238
   436.08         13.7331
   436.22         13.9130
   436.36         14.0699
   436.50         14.2082
   436.64         14.3309
   436.78         14.4393
   436.92         14.5338
   437.06         14.6136
   437.20         14.6766
   437.34         14.7192
   437.48         14.7386
   437.62         14.7343
   437.76         14.7093
   437.90         14.6679
   438.04         14.6148
   438.18         14.5544
   438.32         14.4908
   438.46         14.4288
   438.60         14.3742
   438.74         14.3322
   438.88         14.3062
   439.02         14.2982
   439.16         14.3079
   439.30         14.3330
   439.44         14.3690
   439.58         14.4104
   439.72         14.4511
   439.86         14.4847
   440.00         14.5055
   440.14         14.5094
   440.28         14.4956
   440.42         14.4649
   440.56         14.4188
   440.70         14.3598
   440.84         14.2909
   440.98         14.2154
   441.12         14.1365
   441.26         14.0580
   441.40         13.9841
   441.54         13.9189
   441.68         13.8659
   441.82         13.8268
   441.96         13.8007
   442.10         13.7850
   442.24         13.7761
   442.38         13.7696
   442.52         13.7618
   442.66         13.7517
   442.80         13.7401
   442.94         13.7282
   443.08         13.7176
   443.22         13.7100
   443.36         13.7076
   443.50         13.7128
   443.64         13.7282
   443.78         13.7559
   443.92         13.7964
   444.06         13.8472
   444.20         13.9043
   444.34         13.9623
   444.48         14.0153
   444.62         14.0577
   444.76         14.0864
   444.90         14.1002
   445.04         14.0999
   445.18         14.0884
   445.32         14.0692
   445.46         14.0450
   445.60         14.0168
   445.74         13.9843
   445.88         13.9459
   446.02         13.8993
   446.16         13.8427
   446.30         13.7763
   446.44         13.7011
   446.58         13.6192
   446.72         13.5330
   446.86         13.4463
   447.00         13.3637
   447.14         13.2917
   447.28         13.2374
   447.42         13.2060
   447.56         13.1992
   447.70         13.2155
   447.84         13.2508
   447.98         13.2988
   448.12         13.3521
   448.26         13.4039
   448.40         13.4488
   448.54         13.4840
   448.68         13.5088
   448.82         13.5246
   448.96         13.5330
   449.10         13.5356
   449.24         13.5348
   449.38         13.5329
   449.52         13.5332
   449.66         13.5378
   449.80         13.5457
   449.94         13.5536
   450.08         13.5561
   450.22         13.5473
   450.36         13.5229
   450.50         13.4823
   450.64         13.4287
   450.78         13.3668
   450.92         13.3020
   451.06         13.2400
   451.20         13.1857
   451.34         13.1425
   451.48         13.1128
   451.62         13.0969
   451.76         13.0933
   451.90         13.0984
   452.04         13.1073
   452.18         13.1149
   452.32         13.1182
   452.46         13.1163
   452.60         13.1099
   452.74         13.0990
   452.88         13.0828
   453.02         13.0632
   453.16         13.0438
   453.30         13.0275
   453.44         13.0154
   453.58         13.0080
   453.72         13.0051
   453.86         13.0053
   454.00         13.0064
   454.14         13.0067
   454.28         13.0046
   454.42         12.9995
   454.56         12.9914
   454.70         12.9814
   454.84         12.9703
   454.98         12.9593
   455.12         12.9487
   455.26         12.9378
   455.40         12.9258
   455.54         12.9131
   455.68         12.9021
   455.82         12.8948
   455.96         12.8915
   456.10         12.8925
   456.24         12.8994
   456.38         12.9134
   456.52         12.9342
   456.66         12.9618
   456.80         12.9958
   456.94         13.0345
   457.08         13.0740
   457.22         13.1095
   457.36         13.1347
   457.50         13.1432
   457.64         13.1307
   457.78         13.0962
   457.92         13.0418
   458.06         12.9713
   458.20         12.8910
   458.34         12.8083
   458.48         12.7305
   458.62         12.6643
   458.76         12.6153
   458.90         12.5877
   459.04         12.5819
   459.18         12.5953
   459.32         12.6224
   459.46         12.6553
   459.60         12.6858
   459.74         12.7084
   459.88         12.7210
   460.02         12.7243
   460.16         12.7207
   460.30         12.7119
   460.44         12.6982
   460.58         12.6790
   460.72         12.6536
   460.86         12.6223
   461.00         12.5859
   461.14         12.5433
   461.28         12.4932
   461.42         12.4347
   461.56         12.3690
   461.70         12.2985
   461.84         12.2263
   461.98         12.1555
   462.12         12.0908
   462.26         12.0369
   462.40         11.9981
   462.54         11.9758
   462.68         11.9685
   462.82         11.9716
   462.96         11.9808
   463.10         11.9929
   463.24         12.0064
   463.38         12.0202
   463.52         12.0331
   463.66         12.0436
   463.80         12.0505
   463.94         12.0548
   464.08         12.0586
   464.22         12.0643
   464.36         12.0723
   464.50         12.0817
   464.64         12.0915
   464.78         12.1008
   464.92         12.1091
   465.06         12.1151
   465.20         12.1171
   465.34         12.1139
   465.48         12.1043
   465.62         12.0872
   465.76         12.0631
   465.90         12.0347
   466.04         12.0055
   466.18         11.9783
   466.32         11.9549
   466.46         11.9371
   466.60         11.9266
   466.74         11.9255
   466.88         11.9354
   467.02         11.9575
   467.16         11.9904
   467.30         12.0307
   467.44         12.0731
   467.58         12.1114
   467.72         12.1407
   467.86         12.1581
   468.00         12.1613
   468.14         12.1492
   468.28         12.1229
   468.42         12.0859
   468.56         12.0424
   468.70         11.9957
   468.84         11.9475
   468.98         11.8993
   469.12         11.8534
   469.26         11.8123
   469.40         11.7789
   469.54         11.7545
   469.68         11.7366
   469.82         11.7204
   469.96         11.7014
   470.10         11.6772
   470.24         11.6482
   470.38         11.6167
   470.52         11.5852
   470.66         11.5554
   470.80         11.5278
   470.94         11.5032
   471.08         11.4835
   471.22         11.4714
   471.36         11.4678
   471.50         11.4726
   471.64         11.4851
   471.78         11.5047
   471.92         11.5304
   472.06         11.5592
   472.20         11.5864
   472.34         11.6081
   472.48         11.6231
   472.62         11.6330
   472.76         11.6399
   472.90         11.6447
   473.04         11.6477
   473.18         11.6500
   473.32         11.6522
   473.46         11.6536
   473.60         11.6532
   473.74         11.6496
   473.88         11.6404
   474.02         11.6230
   474.16         11.5966
   474.30         11.5624
   474.44         11.5231
   474.58         11.4815
   474.72         11.4389
   474.86         11.3955
   475.00         11.3511
   475.14         11.3060
   475.28         11.2609
   475.42         11.2168
   475.56         11.1745
   475.70         11.1342
   475.84         11.0952
   475.98         11.0566
   476.12         11.0175
   476.26         10.9770
   476.40         10.9357
   476.54         10.8954
   476.68         10.8580
   476.82         10.8238
   476.96         10.7920
   477.10         10.7621
   477.24         10.7347
   477.38         10.7107
   477.52         10.6925
   477.66         10.6841
   477.80         10.6889
   477.94         10.7083
   478.08         10.7419
   478.22         10.7877
   478.36         10.8420
   478.50         10.9011
   478.64         10.9614
   478.78         11.0178
   478.92         11.0653
   479.06         11.1014
   479.20         11.1247
   479.34         11.1335
   479.48         11.1272
   479.62         11.1077
   479.76         11.0789
   479.90         11.0443
   480.04         11.0055
   480.18         10.9648
   480.32         10.9250
   480.46         10.8882
   480.60         10.8561
   480.74         10.8301
   480.88         10.8105
   481.02         10.7969
   481.16         10.7898
   481.30         10.7891
   481.44         10.7925
   481.58         10.7967
   481.72         10.7996
   481.86         10.8004
   482.00         10.7996
   482.14         10.7979
   482.28         10.7955
   482.42         10.7916
   482.56         10.7848
   482.70         10.7739
   482.84         10.7577
   482.98         10.7337
   483.12         10.6977
   483.26         10.6461
   483.40         10.5762
   483.54         10.4859
   483.68         10.3747
   483.82         10.2434
   483.96         10.0930
   484.10         9.9258
   484.24         9.7453
   484.38         9.5541
   484.52         9.3528
   484.66         9.1396
   484.80         8.9104
   484.94         8.6612
   485.08         8.3901
   485.22         8.0988
   485.36         7.7934
   485.50         7.4846
   485.64         7.1873
   485.78         6.9200
   485.92         6.7012
   486.06         6.5470
   486.20         6.4685
   486.34         6.4716
   486.48         6.5561
   486.62         6.7151
   486.76         6.9359
   486.90         7.2017
   487.04         7.4946
   487.18         7.7977
   487.32         8.0955
   487.46         8.3752
   487.60         8.6281
   487.74         8.8518
   487.88         9.0497
   488.02         9.2281
   488.16         9.3936
   488.30         9.5500
   488.44         9.6976
   488.58         9.8336
   488.72         9.9540
   488.86         10.0541
   489.00         10.1297
   489.14         10.1777
   489.28         10.1970
   489.42         10.1896
   489.56         10.1606
   489.70         10.1172
   489.84         10.0663
   489.98         10.0142
   490.12         9.9670
   490.26         9.9304
   490.40         9.9098
   490.54         9.9075
   490.68         9.9208
   490.82         9.9426
   490.96         9.9645
   491.10         9.9792
   491.24         9.9816
   491.38         9.9689
   491.52         9.9415
   491.66         9.9029
   491.80         9.8596
   491.94         9.8202
   492.08         9.7917
   492.22         9.7785
   492.36         9.7829
   492.50         9.8042
   492.64         9.8394
   492.78         9.8838
   492.92         9.9320
   493.06         9.9789
   493.20         10.0206
   493.34         10.0545
   493.48         10.0791
   493.62         10.0952
   493.76         10.1050
   493.90         10.1106
   494.04         10.1134
   494.18         10.1138
   494.32         10.1121
   494.46         10.1069
   494.60         10.0962
   494.74         10.0789
   494.88         10.0553
   495.02         10.0274
   495.16         9.9972
   495.30         9.9671
   495.44         9.9402
   495.58         9.9203
   495.72         9.9110
   495.86         9.9131
   496.00         9.9249
   496.14         9.9424
   496.28         9.9618
   496.42         9.9786
   496.56         9.9894
   496.70         9.9932
   496.84         9.9913
   496.98         9.9851
   497.12         9.9755
   497.26         9.9629
   497.40         9.9477
   497.54         9.9288
   497.68         9.9058
   497.82         9.8785
   497.96         9.8466
   498.10         9.8109
   498.24         9.7734
   498.38         9.7365
   498.52         9.7027
   498.66         9.6748
   498.80         9.6557
   498.94         9.6474
   499.08         9.6507
   499.22         9.6656
   499.36         9.6902
   499.50         9.7210
   499.64         9.7544
   499.78         9.7865
   499.92         9.8117
   500.06         9.8254
   500.20         9.8257
   500.34         9.8136
   500.48         9.7897
   500.62         9.7547
   500.76         9.7103
   500.90         9.6592
   501.04         9.6033
   501.18         9.5445
   501.32         9.4855
   501.46         9.4287
   501.60         9.3762
   501.74         9.3311
   501.88         9.2949
   502.02         9.2674
   502.16         9.2462
   502.30         9.2282
   502.44         9.2100
   502.58         9.1903
   502.72         9.1706
   502.86         9.1527
   503.00         9.1366
   503.14         9.1217
   503.28         9.1075
   503.42         9.0942
   503.56         9.0824
   503.70         9.0731
   503.84         9.0678
   503.98         9.0674
   504.12         9.0724
   504.26         9.0829
   504.40         9.0976
   504.54         9.1142
   504.68         9.1311
   504.82         9.1481
   504.96         9.1665
   505.10         9.1877
   505.24         9.2117
   505.38         9.2371
   505.52         9.2621
   505.66         9.2857
   505.80         9.3065
   505.94         9.3229
   506.08         9.3334
   506.22         9.3377
   506.36         9.3358
   506.50         9.3283
   506.64         9.3168
   506.78         9.3038
   506.92         9.2910
   507.06         9.2793
   507.20         9.2699
   507.34         9.2643
   507.48         9.2636
   507.62         9.2677
   507.76         9.2746
   507.90         9.2819
   508.04         9.2883
   508.18         9.2930
   508.32         9.2950
   508.46         9.2925
   508.60         9.2841
   508.74         9.2686
   508.88         9.2465
   509.02         9.2196
   509.16         9.1901
   509.30         9.1604
   509.44         9.1317
   509.58         9.1043
   509.72         9.0785
   509.86         9.0550
   510.00         9.0355
   510.14         9.0208
   510.28         9.0108
   510.42         9.0054
   510.56         9.0039
   510.70         9.0047
   510.84         9.0051
   510.98         9.0034
   511.12         8.9993
   511.26         8.9939
   511.40         8.9883
   511.54         8.9835
   511.68         8.9794
   511.82         8.9751
   511.96         8.9701
   512.10         8.9635
   512.24         8.9549
   512.38         8.9438
   512.52         8.9306
   512.66         8.9156
   512.80         8.8990
   512.94         8.8812
   513.08         8.8629
   513.22         8.8453
   513.36         8.8310
   513.50         8.8229
   513.64         8.8225
   513.78         8.8289
   513.92         8.8394
   514.06         8.8507
   514.20         8.8597
   514.34         8.8641
   514.48         8.8630
   514.62         8.8566
   514.76         8.8465
   514.90         8.8346
   515.04         8.8233
   515.18         8.8152
   515.32         8.8122
   515.46         8.8149
   515.60         8.8223
   515.74         8.8319
   515.88         8.8409
   516.02         8.8456
   516.16         8.8420
   516.30         8.8274
   516.44         8.8017
   516.58         8.7674
   516.72         8.7284
   516.86         8.6899
   517.00         8.6572
   517.14         8.6340
   517.28         8.6222
   517.42         8.6209
   517.56         8.6276
   517.70         8.6387
   517.84         8.6508
   517.98         8.6605
   518.12         8.6647
   518.26         8.6617
   518.40         8.6517
   518.54         8.6360
   518.68         8.6167
   518.82         8.5965
   518.96         8.5786
   519.10         8.5656
   519.24         8.5590
   519.38         8.5591
   519.52         8.5654
   519.66         8.5753
   519.80         8.5860
   519.94         8.5944
   520.08         8.5981
   520.22         8.5953
   520.36         8.5862
   520.50         8.5720
   520.64         8.5543
   520.78         8.5347
   520.92         8.5150
   521.06         8.4970
   521.20         8.4820
   521.34         8.4702
   521.48         8.4616
   521.62         8.4552
   521.76         8.4495
   521.90         8.4431
   522.04         8.4354
   522.18         8.4252
   522.32         8.4113
   522.46         8.3936
   522.60         8.3728
   522.74         8.3502
   522.88         8.3277
   523.02         8.3074
   523.16         8.2912
   523.30         8.2804
   523.44         8.2758
   523.58         8.2777
   523.72         8.2852
   523.86         8.2962
   524.00         8.3082
   524.14         8.3188
   524.28         8.3257
   524.42         8.3281
   524.56         8.3262
   524.70         8.3207
   524.84         8.3114
   524.98         8.2983
   525.12         8.2817
   525.26         8.2622
   525.40         8.2400
   525.54         8.2159
   525.68         8.1905
   525.82         8.1645
   525.96         8.1386
   526.10         8.1129
   526.24         8.0876
   526.38         8.0623
   526.52         8.0374
   526.66         8.0142
   526.80         7.9951
   526.94         7.9824
   527.08         7.9776
   527.22         7.9805
   527.36         7.9895
   527.50         8.0010
   527.64         8.0114
   527.78         8.0178
   527.92         8.0190
   528.06         8.0144
   528.20         8.0048
   528.34         7.9910
   528.48         7.9741
   528.62         7.9546
   528.76         7.9336
   528.90         7.9127
   529.04         7.8937
   529.18         7.8786
   529.32         7.8695
   529.46         7.8674
   529.60         7.8718
   529.74         7.8813
   529.88         7.8938
   530.02         7.9077
   530.16         7.9219
   530.30         7.9354
   530.44         7.9470
   530.58         7.9549
   530.72         7.9574
   530.86         7.9532
   531.00         7.9420
   531.14         7.9253
   531.28         7.9060
   531.42         7.8871
   531.56         7.8711
   531.70         7.8590
   531.84         7.8517
   531.98         7.8493
   532.12         7.8514
   532.26         7.8567
   532.40         7.8634
   532.54         7.8699
   532.68         7.8743
   532.82         7.8744
   532.96         7.8685
   533.10         7.8563
   533.24         7.8394
   533.38         7.8201
   533.52         7.8011
   533.66         7.7843
   533.80         7.7707
   533.94         7.7610
   534.08         7.7557
   534.22         7.7549
   534.36         7.7581
   534.50         7.7643
   534.64         7.7714
   534.78         7.7769
   534.92         7.7785
   535.06         7.7747
   535.20         7.7644
   535.34         7.7479
   535.48         7.7270
   535.62         7.7038
   535.76         7.6807
   535.90         7.6593
   536.04         7.6412
   536.18         7.6269
   536.32         7.6165
   536.46         7.6101
   536.60         7.6073
   536.74         7.6072
   536.88         7.6084
   537.02         7.6094
   537.16         7.6094
   537.30         7.6083
   537.44         7.6069
   537.58         7.6056
   537.72         7.6049
   537.86         7.6050
   538.00         7.6059
   538.14         7.6072
   538.28         7.6078
   538.42         7.6068
   538.56         7.6035
   538.70         7.5974
   538.84         7.5883
   538.98         7.5768
   539.12         7.5638
   539.26         7.5504
   539.40         7.5374
   539.54         7.5262
   539.68         7.5181
   539.82         7.5145
   539.96         7.5158
   540.10         7.5214
   540.24         7.5304
   540.38         7.5424
   540.52         7.5569
   540.66         7.5729
   540.80         7.5890
   540.94         7.6039
   541.08         7.6168
   541.22         7.6270
   541.36         7.6336
   541.50         7.6366
   541.64         7.6359
   541.78         7.6305
   541.92         7.6193
   542.06         7.6014
   542.20         7.5768
   542.34         7.5458
   542.48         7.5092
   542.62         7.4680
   542.76         7.4244
   542.90         7.3812
   543.04         7.3410
   543.18         7.3051
   543.32         7.2746
   543.46         7.2509
   543.60         7.2355
   543.74         7.2288
   543.88         7.2302
   544.02         7.2380
   544.16         7.2497
   544.30         7.2629
   544.44         7.2759
   544.58         7.2881
   544.72         7.2990
   544.86         7.3090
   545.00         7.3179
   545.14         7.3251
   545.28         7.3294
   545.42         7.3295
   545.56         7.3240
   545.70         7.3119
   545.84         7.2931
   545.98         7.2686
   546.12         7.2402
   546.26         7.2095
   546.40         7.1781
   546.54         7.1471
   546.68         7.1179
   546.82         7.0921
   546.96         7.0712
   547.10         7.0563
   547.24         7.0473
   547.38         7.0441
   547.52         7.0467
   547.66         7.0541
   547.80         7.0643
   547.94         7.0752
   548.08         7.0856
   548.22         7.0943
   548.36         7.1008
   548.50         7.1048
   548.64         7.1062
   548.78         7.1041
   548.92         7.0975
   549.06         7.0854
   549.20         7.0683
   549.34         7.0477
   549.48         7.0257
   549.62         7.0043
   549.76         6.9852
   549.90         6.9702
   550.04         6.9604
   550.18         6.9557
   550.32         6.9556
   550.46         6.9594
   550.60         6.9661
   550.74         6.9741
   550.88         6.9823
   551.02         6.9897
   551.16         6.9956
   551.30         6.9991
   551.44         6.9994
   551.58         6.9960
   551.72         6.9892
   551.86         6.9794
   552.00         6.9674
   552.14         6.9538
   552.28         6.9396
   552.42         6.9264
   552.56         6.9152
   552.70         6.9068
   552.84         6.9012
   552.98         6.8985
   553.12         6.8976
   553.26         6.8978
   553.40         6.8987
   553.54         6.8998
   553.68         6.9003
   553.82         6.8991
   553.96         6.8949
   554.10         6.8873
   554.24         6.8766
   554.38         6.8638
   554.52         6.8501
   554.66         6.8367
   554.80         6.8240
   554.94         6.8128
   555.08         6.8036
   555.22         6.7968
   555.36         6.7923
   555.50         6.7897
   555.64         6.7882
   555.78         6.7870
   555.92         6.7852
   556.06         6.7821
   556.20         6.7769
   556.34         6.7697
   556.48         6.7601
   556.62         6.7482
   556.76         6.7351
   556.90         6.7219
   557.04         6.7094
   557.18         6.6984
   557.32         6.6894
   557.46         6.6837
   557.60         6.6829
   557.74         6.6872
   557.88         6.6959
   558.02         6.7082
   558.16         6.7227
   558.30         6.7378
   558.44         6.7520
   558.58         6.7641
   558.72         6.7735
   558.86         6.7800
   559.00         6.7837
   559.14         6.7841
   559.28         6.7809
   559.42         6.7740
   559.56         6.7629
   559.70         6.7475
   559.84         6.7287
   559.98         6.7079
   560.12         6.6871
   560.26         6.6674
   560.40         6.6498
   560.54         6.6352
   560.68         6.6242
   560.82         6.6162
   560.96         6.6106
   561.10         6.6068
   561.24         6.6034
   561.38         6.5996
   561.52         6.5943
   561.66         6.5868
   561.80         6.5772
   561.94         6.5658
   562.08         6.5538
   562.22         6.5425
   562.36         6.5329
   562.50         6.5254
   562.64         6.5200
   562.78         6.5159
   562.92         6.5117
   563.06         6.5058
   563.20         6.4970
   563.34         6.4847
   563.48         6.4691
   563.62         6.4506
   563.76         6.4296
   563.90         6.4071
   564.04         6.3851
   564.18         6.3659
   564.32         6.3517
   564.46         6.3440
   564.60         6.3431
   564.74         6.3486
   564.88         6.3594
   565.02         6.3738
   565.16         6.3895
   565.30         6.4042
   565.44         6.4157
   565.58         6.4229
   565.72         6.4251
   565.86         6.4218
   566.00         6.4126
   566.14         6.3978
   566.28         6.3788
   566.42         6.3577
   566.56         6.3375
   566.70         6.3205
   566.84         6.3082
   566.98         6.3008
   567.12         6.2973
   567.26         6.2974
   567.40         6.3007
   567.54         6.3069
   567.68         6.3147
   567.82         6.3223
   567.96         6.3287
   568.10         6.3333
   568.24         6.3359
   568.38         6.3359
   568.52         6.3323
   568.66         6.3251
   568.80         6.3142
   568.94         6.2998
   569.08         6.2819
   569.22         6.2612
   569.36         6.2385
   569.50         6.2143
   569.64         6.1892
   569.78         6.1645
   569.92         6.1416
   570.06         6.1214
   570.20         6.1036
   570.34         6.0879
   570.48         6.0743
   570.62         6.0636
   570.76         6.0562
   570.90         6.0527
   571.04         6.0527
   571.18         6.0555
   571.32         6.0607
   571.46         6.0684
   571.60         6.0788
   571.74         6.0918
   571.88         6.1063
   572.02         6.1206
   572.16         6.1328
   572.30         6.1415
   572.44         6.1454
   572.58         6.1434
   572.72         6.1350
   572.86         6.1207
   573.00         6.1020
   573.14         6.0808
   573.28         6.0593
   573.42         6.0392
   573.56         6.0220
   573.70         6.0081
   573.84         5.9981
   573.98         5.9923
   574.12         5.9903
   574.26         5.9909
   574.40         5.9921
   574.54         5.9923
   574.68         5.9902
   574.82         5.9853
   574.96         5.9779
   575.10         5.9689
   575.24         5.9598
   575.38         5.9524
   575.52         5.9472
   575.66         5.9442
   575.80         5.9433
   575.94         5.9443
   576.08         5.9464
   576.22         5.9489
   576.36         5.9509
   576.50         5.9516
   576.64         5.9498
   576.78         5.9444
   576.92         5.9346
   577.06         5.9207
   577.20         5.9035
   577.34         5.8843
   577.48         5.8655
   577.62         5.8489
   577.76         5.8360
   577.90         5.8273
   578.04         5.8220
   578.18         5.8195
   578.32         5.8192
   578.46         5.8200
   578.60         5.8200
   578.74         5.8182
   578.88         5.8144
   579.02         5.8088
   579.16         5.8024
   579.30         5.7962
   579.44         5.7911
   579.58         5.7879
   579.72         5.7872
   579.86         5.7894
   580.00         5.7942
   580.14         5.8014
   580.28         5.8097
   580.42         5.8174
   580.56         5.8231
   580.70         5.8262
   580.84         5.8263
   580.98         5.8240
   581.12         5.8195
   581.26         5.8140
   581.40         5.8088
   581.54         5.8053
   581.68         5.8040
   581.82         5.8052
   581.96         5.8081
   582.10         5.8113
   582.24         5.8141
   582.38         5.8166
   582.52         5.8185
   582.66         5.8193
   582.80         5.8185
   582.94         5.8149
   583.08         5.8079
   583.22         5.7974
   583.36         5.7835
   583.50         5.7671
   583.64         5.7497
   583.78         5.7329
   583.92         5.7179
   584.06         5.7049
   584.20         5.6934
   584.34         5.6820
   584.48         5.6696
   584.62         5.6553
   584.76         5.6392
   584.90         5.6227
   585.04         5.6077
   585.18         5.5959
   585.32         5.5888
   585.46         5.5869
   585.60         5.5901
   585.74         5.5980
   585.88         5.6100
   586.02         5.6244
   586.16         5.6386
   586.30         5.6500
   586.44         5.6556
   586.58         5.6535
   586.72         5.6439
   586.86         5.6283
   587.00         5.6087
   587.14         5.5880
   587.28         5.5689
   587.42         5.5527
   587.56         5.5389
   587.70         5.5255
   587.84         5.5093
   587.98         5.4884
   588.12         5.4622
   588.26         5.4309
   588.40         5.3944
   588.54         5.3532
   588.68         5.3089
   588.82         5.2649
   588.96         5.2259
   589.10         5.1966
   589.24         5.1814
   589.38         5.1823
   589.52         5.1988
   589.66         5.2283
   589.80         5.2669
   589.94         5.3105
   590.08         5.3544
   590.22         5.3958
   590.36         5.4331
   590.50         5.4657
   590.64         5.4933
   590.78         5.5144
   590.92         5.5275
   591.06         5.5327
   591.20         5.5323
   591.34         5.5292
   591.48         5.5260
   591.62         5.5243
   591.76         5.5246
   591.90         5.5266
   592.04         5.5291
   592.18         5.5302
   592.32         5.5285
   592.46         5.5235
   592.60         5.5156
   592.74         5.5054
   592.88         5.4934
   593.02         5.4799
   593.16         5.4651
   593.30         5.4502
   593.44         5.4363
   593.58         5.4247
   593.72         5.4166
   593.86         5.4124
   594.00         5.4118
   594.14         5.4136
   594.28         5.4168
   594.42         5.4197
   594.56         5.4209
   594.70         5.4192
   594.84         5.4140
   594.98         5.4052
   595.12         5.3938
   595.26         5.3813
   595.40         5.3689
   595.54         5.3579
   595.68         5.3500
   595.82         5.3467
   595.96         5.3483
   596.10         5.3541
   596.24         5.3628
   596.38         5.3728
   596.52         5.3817
   596.66         5.3869
   596.80         5.3856
   596.94         5.3762
   597.08         5.3589
   597.22         5.3352
   597.36         5.3074
   597.50         5.2778
   597.64         5.2493
   597.78         5.2252
   597.92         5.2087
   598.06         5.2017
   598.20         5.2043
   598.34         5.2152
   598.48         5.2315
   598.62         5.2501
   598.76         5.2683
   598.90         5.2844
   599.04         5.2976
   599.18         5.3076
   599.32         5.3142
   599.46         5.3174
   599.60         5.3166
   599.74         5.3121
   599.88         5.3044
   600.02         5.2944
   600.16         5.2833
   600.30         5.2716
   600.44         5.2596
   600.58         5.2470
   600.72         5.2332
   600.86         5.2181
   601.00         5.2022
   601.14         5.1869
   601.28         5.1741
   601.42         5.1655
   601.56         5.1618
   601.70         5.1630
   601.84         5.1686
   601.98         5.1774
   602.12         5.1886
   602.26         5.2014
   602.40         5.2156
   602.54         5.2302
   602.68         5.2437
   602.82         5.2535
   602.96         5.2571
   603.10         5.2530
   603.24         5.2405
   603.38         5.2197
   603.52         5.1915
   603.66         5.1577
   603.80         5.1207
   603.94         5.0834
   604.08         5.0485
   604.22         5.0185
   604.36         4.9952
   604.50         4.9790
   604.64         4.9694
   604.78         4.9653
   604.92         4.9656
   605.06         4.9692
   605.20         4.9741
   605.34         4.9783
   605.48         4.9797
   605.62         4.9778
   605.76         4.9736
   605.90         4.9683
   606.04         4.9633
   606.18         4.9597
   606.32         4.9583
   606.46         4.9591
   606.60         4.9619
   606.74         4.9662
   606.88         4.9713
   607.02         4.9764
   607.16         4.9808
   607.30         4.9841
   607.44         4.9870
   607.58         4.9901
   607.72         4.9944
   607.86         5.0012
   608.00         5.0123
   608.14         5.0295
   608.28         5.0533
   608.42         5.0820
   608.56         5.1127
   608.70         5.1426
   608.84         5.1687
   608.98         5.1879
   609.12         5.1976
   609.26         5.1963
   609.40         5.1837
   609.54         5.1603
   609.68         5.1277
   609.82         5.0884
   609.96         5.0462
   610.10         5.0050
   610.24         4.9685
   610.38         4.9393
   610.52         4.9187
   610.66         4.9064
   610.80         4.9012
   610.94         4.9010
   611.08         4.9034
   611.22         4.9066
   611.36         4.9091
   611.50         4.9104
   611.64         4.9103
   611.78         4.9093
   611.92         4.9081
   612.06         4.9075
   612.20         4.9079
   612.34         4.9096
   612.48         4.9128
   612.62         4.9170
   612.76         4.9213
   612.90         4.9249
   613.04         4.9264
   613.18         4.9249
   613.32         4.9191
   613.46         4.9088
   613.60         4.8948
   613.74         4.8782
   613.88         4.8605
   614.02         4.8433
   614.16         4.8276
   614.30         4.8137
   614.44         4.8021
   614.58         4.7931
   614.72         4.7868
   614.86         4.7826
   615.00         4.7796
   615.14         4.7768
   615.28         4.7730
   615.42         4.7674
   615.56         4.7595
   615.70         4.7494
   615.84         4.7378
   615.98         4.7262
   616.12         4.7158
   616.26         4.7065
   616.40         4.6977
   616.54         4.6889
   616.68         4.6798
   616.82         4.6700
   616.96         4.6597
   617.10         4.6492
   617.24         4.6391
   617.38         4.6294
   617.52         4.6208
   617.66         4.6144
   617.80         4.6114
   617.94         4.6131
   618.08         4.6202
   618.22         4.6328
   618.36         4.6496
   618.50         4.6679
   618.64         4.6841
   618.78         4.6945
   618.92         4.6970
   619.06         4.6919
   619.20         4.6802
   619.34         4.6636
   619.48         4.6441
   619.62         4.6241
   619.76         4.6063
   619.90         4.5925
   620.04         4.5832
   620.18         4.5787
   620.32         4.5787
   620.46         4.5829
   620.60         4.5895
   620.74         4.5962
   620.88         4.6005
   621.02         4.6007
   621.16         4.5959
   621.30         4.5862
   621.44         4.5732
   621.58         4.5591
   621.72         4.5461
   621.86         4.5353
   622.00         4.5274
   622.14         4.5232
   622.28         4.5234
   622.42         4.5283
   622.56         4.5370
   622.70         4.5493
   622.84         4.5652
   622.98         4.5844
   623.12         4.6055
   623.26         4.6264
   623.40         4.6447
   623.54         4.6589
   623.68         4.6677
   623.82         4.6704
   623.96         4.6673
   624.10         4.6589
   624.24         4.6464
   624.38         4.6312
   624.52         4.6148
   624.66         4.5986
   624.80         4.5836
   624.94         4.5709
   625.08         4.5608
   625.22         4.5538
   625.36         4.5504
   625.50         4.5504
   625.64         4.5524
   625.78         4.5545
   625.92         4.5546
   626.06         4.5516
   626.20         4.5454
   626.34         4.5363
   626.48         4.5248
   626.62         4.5112
   626.76         4.4963
   626.90         4.4802
   627.04         4.4632
   627.18         4.4449
   627.32         4.4251
   627.46         4.4041
   627.60         4.3834
   627.74         4.3646
   627.88         4.3491
   628.02         4.3376
   628.16         4.3304
   628.30         4.3274
   628.44         4.3282
   628.58         4.3329
   628.72         4.3417
   628.86         4.3542
   629.00         4.3694
   629.14         4.3863
   629.28         4.4035
   629.42         4.4194
   629.56         4.4327
   629.70         4.4419
   629.84         4.4462
   629.98         4.4454
   630.12         4.4405
   630.26         4.4331
   630.40         4.4249
   630.54         4.4170
   630.68         4.4095
   630.82         4.4014
   630.96         4.3919
   631.10         4.3811
   631.24         4.3698
   631.38         4.3587
   631.52         4.3483
   631.66         4.3387
   631.80         4.3299
   631.94         4.3218
   632.08         4.3145
   632.22         4.3079
   632.36         4.3019
   632.50         4.2960
   632.64         4.2903
   632.78         4.2853
   632.92         4.2817
   633.06         4.2795
   633.20         4.2780
   633.34         4.2758
   633.48         4.2721
   633.62         4.2676
   633.76         4.2634
   633.90         4.2604
   634.04         4.2589
   634.18         4.2592
   634.32         4.2614
   634.46         4.2658
   634.60         4.2720
   634.74         4.2796
   634.88         4.2873
   635.02         4.2939
   635.16         4.2986
   635.30         4.3017
   635.44         4.3039
   635.58         4.3056
   635.72         4.3065
   635.86         4.3057
   636.00         4.3021
   636.14         4.2952
   636.28         4.2861
   636.42         4.2768
   636.56         4.2691
   636.70         4.2642
   636.84         4.2626
   636.98         4.2643
   637.12         4.2689
   637.26         4.2758
   637.40         4.2840
   637.54         4.2931
   637.68         4.3022
   637.82         4.3107
   637.96         4.3180
   638.10         4.3229
   638.24         4.3243
   638.38         4.3210
   638.52         4.3127
   638.66         4.2999
   638.80         4.2846
   638.94         4.2683
   639.08         4.2526
   639.22         4.2387
   639.36         4.2272
   639.50         4.2187
   639.64         4.2138
   639.78         4.2134
   639.92         4.2180
   640.06         4.2275
   640.20         4.2409
   640.34         4.2565
   640.48         4.2724
   640.62         4.2864
   640.76         4.2971
   640.90         4.3034
   641.04         4.3049
   641.18         4.3018
   641.32         4.2947
   641.46         4.2848
   641.60         4.2738
   641.74         4.2639
   641.88         4.2566
   642.02         4.2529
   642.16         4.2525
   642.30         4.2545
   642.44         4.2572
   642.58         4.2593
   642.72         4.2599
   642.86         4.2580
   643.00         4.2530
   643.14         4.2450
   643.28         4.2352
   643.42         4.2255
   643.56         4.2170
   643.70         4.2103
   643.84         4.2050
   643.98         4.2007
   644.12         4.1968
   644.26         4.1925
   644.40         4.1865
   644.54         4.1776
   644.68         4.1649
   644.82         4.1487
   644.96         4.1300
   645.10         4.1106
   645.24         4.0927
   645.38         4.0782
   645.52         4.0682
   645.66         4.0638
   645.80         4.0655
   645.94         4.0726
   646.08         4.0834
   646.22         4.0956
   646.36         4.1077
   646.50         4.1195
   646.64         4.1306
   646.78         4.1401
   646.92         4.1470
   647.06         4.1510
   647.20         4.1521
   647.34         4.1508
   647.48         4.1475
   647.62         4.1423
   647.76         4.1352
   647.90         4.1265
   648.04         4.1169
   648.18         4.1068
   648.32         4.0968
   648.46         4.0875
   648.60         4.0798
   648.74         4.0745
   648.88         4.0725
   649.02         4.0741
   649.16         4.0782
   649.30         4.0827
   649.44         4.0863
   649.58         4.0885
   649.72         4.0889
   649.86         4.0869
   650.00         4.0818
   650.14         4.0730
   650.28         4.0604
   650.42         4.0442
   650.56         4.0256
   650.70         4.0059
   650.84         3.9867
   650.98         3.9693
   651.12         3.9543
   651.26         3.9424
   651.40         3.9342
   651.54         3.9301
   651.68         3.9301
   651.82         3.9340
   651.96         3.9413
   652.10         3.9515
   652.24         3.9639
   652.38         3.9770
   652.52         3.9894
   652.66         4.0001
   652.80         4.0083
   652.94         4.0137
   653.08         4.0158
   653.22         4.0139
   653.36         4.0070
   653.50         3.9946
   653.64         3.9760
   653.78         3.9513
   653.92         3.9216
   654.06         3.8876
   654.20         3.8502
   654.34         3.8101
   654.48         3.7684
   654.62         3.7255
   654.76         3.6811
   654.90         3.6335
   655.04         3.5805
   655.18         3.5195
   655.32         3.4496
   655.46         3.3716
   655.60         3.2876
   655.74         3.2009
   655.88         3.1162
   656.02         3.0392
   656.16         2.9761
   656.30         2.9326
   656.44         2.9121
   656.58         2.9158
   656.72         2.9426
   656.86         2.9901
   657.00         3.0544
   657.14         3.1307
   657.28         3.2132
   657.42         3.2958
   657.56         3.3734
   657.70         3.4432
   657.84         3.5042
   657.98         3.5565
   658.12         3.5999
   658.26         3.6343
   658.40         3.6598
   658.54         3.6771
   658.68         3.6877
   658.82         3.6931
   658.96         3.6940
   659.10         3.6905
   659.24         3.6839
   659.38         3.6766
   659.52         3.6716
   659.66         3.6712
   659.80         3.6766
   659.94         3.6877
   660.08         3.7040
   660.22         3.7252
   660.36         3.7505
   660.50         3.7782
   660.64         3.8062
   660.78         3.8323
   660.92         3.8548
   661.06         3.8719
   661.20         3.8827
   661.34         3.8864
   661.48         3.8825
   661.62         3.8715
   661.76         3.8550
   661.90         3.8360
   662.04         3.8173
   662.18         3.8008
   662.32         3.7880
   662.46         3.7796
   662.60         3.7759
   662.74         3.7765
   662.88         3.7806
   663.02         3.7867
   663.16         3.7941
   663.30         3.8019
   663.44         3.8098
   663.58         3.8175
   663.72         3.8252
   663.86         3.8329
   664.00         3.8407
   664.14         3.8484
   664.28         3.8557
   664.42         3.8616
   664.56         3.8650
   664.70         3.8647
   664.84         3.8595
   664.98         3.8485
   665.12         3.8317
   665.26         3.8097
   665.40         3.7834
   665.54         3.7545
   665.68         3.7251
   665.82         3.6970
   665.96         3.6717
   666.10         3.6500
   666.24         3.6324
   666.38         3.6184
   666.52         3.6075
   666.66         3.5990
   666.80         3.5928
   666.94         3.5887
   667.08         3.5864
   667.22         3.5856
   667.36         3.5860
   667.50         3.5871
   667.64         3.5877
   667.78         3.5866
   667.92         3.5831
   668.06         3.5773
   668.20         3.5703
   668.34         3.5632
   668.48         3.5567
   668.62         3.5509
   668.76         3.5456
   668.90         3.5401
   669.04         3.5338
   669.18         3.5264
   669.32         3.5178
   669.46         3.5088
   669.60         3.5002
   669.74         3.4929
   669.88         3.4875
   670.02         3.4843
   670.16         3.4830
   670.30         3.4841
   670.44         3.4878
   670.58         3.4945
   670.72         3.5036
   670.86         3.5145
   671.00         3.5260
   671.14         3.5375
   671.28         3.5487
   671.42         3.5595
   671.56         3.5701
   671.70         3.5803
   671.84         3.5901
   671.98         3.5997
   672.12         3.6096
   672.26         3.6192
   672.40         3.6278
   672.54         3.6341
   672.68         3.6373
   672.82         3.6367
   672.96         3.6316
   673.10         3.6215
   673.24         3.6072
   673.38         3.5902
   673.52         3.5729
   673.66         3.5574
   673.80         3.5452
   673.94         3.5368
   674.08         3.5326
   674.22         3.5330
   674.36         3.5379
   674.50         3.5473
   674.64         3.5609
   674.78         3.5779
   674.92         3.5971
   675.06         3.6170
   675.20         3.6356
   675.34         3.6506
   675.48         3.6605
   675.62         3.6646
   675.76         3.6635
   675.90         3.6583
   676.04         3.6498
   676.18         3.6382
   676.32         3.6241
   676.46         3.6081
   676.60         3.5914
   676.74         3.5750
   676.88         3.5590
   677.02         3.5431
   677.16         3.5268
   677.30         3.5103
   677.44         3.4942
   677.58         3.4793
   677.72         3.4658
   677.86         3.4542
   678.00         3.4448
   678.14         3.4382
   678.28         3.4353
   678.42         3.4365
   678.56         3.4416
   678.70         3.4497
   678.84         3.4599
   678.98         3.4709
   679.12         3.4817
   679.26         3.4914
   679.40         3.4989
   679.54         3.5037
   679.68         3.5053
   679.82         3.5036
   679.96         3.4988
   680.10         3.4911
   680.24         3.4805
   680.38         3.4673
   680.52         3.4520
   680.66         3.4357
   680.80         3.4198
   680.94         3.4053
   681.08         3.3930
   681.22         3.3836
   681.36         3.3779
   681.50         3.3763
   681.64         3.3792
   681.78         3.3866
   681.92         3.3974
   682.06         3.4108
   682.20         3.4258
   682.34         3.4414
   682.48         3.4566
   682.62         3.4714
   682.76         3.4856
   682.90         3.4985
   683.04         3.5091
   683.18         3.5162
   683.32         3.5193
   683.46         3.5185
   683.60         3.5140
   683.74         3.5067
   683.88         3.4977
   684.02         3.4880
   684.16         3.4783
   684.30         3.4694
   684.44         3.4621
   684.58         3.4564
   684.72         3.4521
   684.86         3.4482
   685.00         3.4437
   685.14         3.4378
   685.28         3.4300
   685.42         3.4189
   685.56         3.4016
   685.70         3.3746
   685.84         3.3353
   685.98         3.2825
   686.12         3.2168
   686.26         3.1405
   686.40         3.0577
   686.54         2.9730
   686.68         2.8917
   686.82         2.8185
   686.96         2.7580
   687.10         2.7131
   687.24         2.6858
   687.38         2.6763
   687.52         2.6835
   687.66         2.7041
   687.80         2.7337
   687.94         2.7666
   688.08         2.7972
   688.22         2.8215
   688.36         2.8379
   688.50         2.8468
   688.64         2.8496
   688.78         2.8487
   688.92         2.8470
   689.06         2.8461
   689.20         2.8470
   689.34         2.8501
   689.48         2.8557
   689.62         2.8637
   689.76         2.8737
   689.90         2.8859
   690.04         2.9001
   690.18         2.9163
   690.32         2.9345
   690.46         2.9551
   690.60         2.9787
   690.74         3.0049
   690.88         3.0332
   691.02         3.0620
   691.16         3.0894
   691.30         3.1135
   691.44         3.1327
   691.58         3.1450
   691.72         3.1492
   691.86         3.1453
   692.00         3.1355
   692.14         3.1230
   692.28         3.1107
   692.42         3.1006
   692.56         3.0935
   692.70         3.0897
   692.84         3.0886
   692.98         3.0900
   693.12         3.0935
   693.26         3.0984
   693.40         3.1035
   693.54         3.1075
   693.68         3.1088
   693.82         3.1067
   693.96         3.1007
   694.10         3.0912
   694.24         3.0787
   694.38         3.0646
   694.52         3.0505
   694.66         3.0385
   694.80         3.0298
   694.94         3.0249
   695.08         3.0240
   695.22         3.0282
   695.36         3.0383
   695.50         3.0551
   695.64         3.0784
   695.78         3.1075
   695.92         3.1407
   696.06         3.1754
   696.20         3.2088
   696.34         3.2384
   696.48         3.2625
   696.62         3.2793
   696.76         3.2883
   696.90         3.2903
   697.04         3.2873
   697.18         3.2813
   697.32         3.2737
   697.46         3.2651
   697.60         3.2557
   697.74         3.2456
   697.88         3.2348
   698.02         3.2234
   698.16         3.2115
   698.30         3.1996
   698.44         3.1893
   698.58         3.1818
   698.72         3.1778
   698.86         3.1773
   699.00         3.1803
   699.14         3.1864
   699.28         3.1947
   699.42         3.2043
   699.56         3.2135
   699.70         3.2203
   699.84         3.2235
   699.98         3.2225
   700.12         3.2172
   700.26         3.2076
   700.40         3.1936
   700.54         3.1760
   700.68         3.1562
   700.82         3.1362
   700.96         3.1176
   701.10         3.1016
   701.24         3.0883
   701.38         3.0771
   701.52         3.0674
   701.66         3.0587
   701.80         3.0507
   701.94         3.0435
   702.08         3.0381
   702.22         3.0358
   702.36         3.0378
   702.50         3.0446
   702.64         3.0557
   702.78         3.0691
   702.92         3.0823
   703.06         3.0937
   703.20         3.1028
   703.34         3.1094
   703.48         3.1132
   703.62         3.1141
   703.76         3.1121
   703.90         3.1069
   704.04         3.0989
   704.18         3.0893
   704.32         3.0797
   704.46         3.0724
   704.60         3.0688
   704.74         3.0696
   704.88         3.0744
   705.02         3.0815
   705.16         3.0892
   705.30         3.0959
   705.44         3.1008
   705.58         3.1044
   705.72         3.1081
   705.86         3.1132
   706.00         3.1202
   706.14         3.1287
   706.28         3.1376
   706.42         3.1449
   706.56         3.1488
   706.70         3.1488
   706.84         3.1451
   706.98         3.1385
   707.12         3.1298
   707.26         3.1198
   707.40         3.1096
   707.54         3.1004
   707.68         3.0935
   707.82         3.0906
   707.96         3.0931
   708.10         3.1004
   708.24         3.1109
   708.38         3.1220
   708.52         3.1313
   708.66         3.1364
   708.80         3.1350
   708.94         3.1255
   709.08         3.1083
   709.22         3.0849
   709.36         3.0575
   709.50         3.0282
   709.64         2.9989
   709.78         2.9714
   709.92         2.9476
   710.06         2.9294
   710.20         2.9189
   710.34         2.9171
   710.48         2.9235
   710.62         2.9365
   710.76         2.9535
   710.90         2.9727
   711.04         2.9923
   711.18         3.0106
   711.32         3.0261
   711.46         3.0379
   711.60         3.0462
   711.74         3.0517
   711.88         3.0553
   712.02         3.0572
   712.16         3.0587
   712.30         3.0614
   712.44         3.0669
   712.58         3.0757
   712.72         3.0876
   712.86         3.1011
   713.00         3.1147
   713.14         3.1271
   713.28         3.1374
   713.42         3.1456
   713.56         3.1517
   713.70         3.1558
   713.84         3.1579
   713.98         3.1581
   714.12         3.1565
   714.26         3.1534
   714.40         3.1486
   714.54         3.1419
   714.68         3.1332
   714.82         3.1233
   714.96         3.1124
   715.10         3.1002
   715.24         3.0862
   715.38         3.0707
   715.52         3.0541
   715.66         3.0372
   715.80         3.0203
   715.94         3.0036
   716.08         2.9870
   716.22         2.9706
   716.36         2.9544
   716.50         2.9383
   716.64         2.9225
   716.78         2.9069
   716.92         2.8913
   717.06         2.8755
   717.20         2.8594
   717.34         2.8427
   717.48         2.8257
   717.62         2.8093
   717.76         2.7954
   717.90         2.7851
   718.04         2.7782
   718.18         2.7740
   718.32         2.7718
   718.46         2.7709
   718.60         2.7705
   718.74         2.7701
   718.88         2.7686
   719.02         2.7652
   719.16         2.7593
   719.30         2.7508
   719.44         2.7400
   719.58         2.7278
   719.72         2.7154
   719.86         2.7038
   720.00         2.6941
   720.14         2.6878
   720.28         2.6870
   720.42         2.6922
   720.56         2.7033
   720.70         2.7203
   720.84         2.7441
   720.98         2.7743
   721.12         2.8089
   721.26         2.8455
   721.40         2.8819
   721.54         2.9169
   721.68         2.9492
   721.82         2.9774
   721.96         2.9995
   722.10         3.0132
   722.24         3.0167
   722.38         3.0100
   722.52         2.9941
   722.66         2.9715
   722.80         2.9452
   722.94         2.9184
   723.08         2.8936
   723.22         2.8727
   723.36         2.8571
   723.50         2.8478
   723.64         2.8458
   723.78         2.8519
   723.92         2.8657
   724.06         2.8849
   724.20         2.9055
   724.34         2.9229
   724.48         2.9335
   724.62         2.9345
   724.76         2.9252
   724.90         2.9063
   725.04         2.8797
   725.18         2.8468
   725.32         2.8087
   725.46         2.7673
   725.60         2.7257
   725.74         2.6879
   725.88         2.6576
   726.02         2.6375
   726.16         2.6283
   726.30         2.6286
   726.44         2.6358
   726.58         2.6474
   726.72         2.6619
   726.86         2.6788
   727.00         2.6974
   727.14         2.7162
   727.28         2.7331
   727.42         2.7458
   727.56         2.7526
   727.70         2.7522
   727.84         2.7439
   727.98         2.7290
   728.12         2.7102
   728.26         2.6906
   728.40         2.6722
   728.54         2.6564
   728.68         2.6440
   728.82         2.6358
   728.96         2.6324
   729.10         2.6339
   729.24         2.6401
   729.38         2.6504
   729.52         2.6635
   729.66         2.6774
   729.80         2.6906
   729.94         2.7021
   730.08         2.7113
   730.22         2.7177
   730.36         2.7209
   730.50         2.7212
   730.64         2.7193
   730.78         2.7161
   730.92         2.7127
   731.06         2.7097
   731.20         2.7076
   731.34         2.7060
   731.48         2.7040
   731.62         2.7013
   731.76         2.6985
   731.90         2.6967
   732.04         2.6963
   732.18         2.6968
   732.32         2.6969
   732.46         2.6958
   732.60         2.6936
   732.74         2.6906
   732.88         2.6870
   733.02         2.6828
   733.16         2.6780
   733.30         2.6726
   733.44         2.6669
   733.58         2.6607
   733.72         2.6539
   733.86         2.6462
   734.00         2.6383
   734.14         2.6309
   734.28         2.6252
   734.42         2.6221
   734.56         2.6220
   734.70         2.6250
   734.84         2.6305
   734.98         2.6377
   735.12         2.6459
   735.26         2.6542
   735.40         2.6613
   735.54         2.6661
   735.68         2.6681
   735.82         2.6675
   735.96         2.6651
   736.10         2.6625
   736.24         2.6610
   736.38         2.6618
   736.52         2.6656
   736.66         2.6726
   736.80         2.6824
   736.94         2.6947
   737.08         2.7089
   737.22         2.7240
   737.36         2.7386
   737.50         2.7513
   737.64         2.7616
   737.78         2.7690
   737.92         2.7731
   738.06         2.7737
   738.20         2.7704
   738.34         2.7624
   738.48         2.7493
   738.62         2.7311
   738.76         2.7087
   738.90         2.6834
   739.04         2.6563
   739.18         2.6284
   739.32         2.6010
   739.46         2.5754
   739.60         2.5529
   739.74         2.5343
   739.88         2.5200
   740.02         2.5107
   740.16         2.5068
   740.30         2.5083
   740.44         2.5144
   740.58         2.5244
   740.72         2.5375
   740.86         2.5528
   741.00         2.5687
   741.14         2.5840
   741.28         2.5972
   741.42         2.6069
   741.56         2.6113
   741.70         2.6094
   741.84         2.6005
   741.98         2.5851
   742.12         2.5645
   742.26         2.5406
   742.40         2.5159
   742.54         2.4937
   742.68         2.4771
   742.82         2.4685
   742.96         2.4685
   743.10         2.4771
   743.24         2.4937
   743.38         2.5159
   743.52         2.5406
   743.66         2.5645
   743.80         2.5851
   743.94         2.6005
   744.08         2.6094
   744.22         2.6113
