# File O2311
# Wavelength [nm]    Normalized Amplitude
   349.70         131.3858
   349.84         131.8373
   349.98         132.1907
   350.12         132.4459
   350.26         132.6034
   350.40         132.6766
   350.54         132.6943
   350.68         132.6872
   350.82         132.6771
   350.96         132.6734
   351.10         132.6734
   351.24         132.6734
   351.38         132.6771
   351.52         132.6872
   351.66         132.6943
   351.80         132.6766
   351.94         132.6034
   352.08         132.4459
   352.22         132.1907
   352.36         131.8373
   352.50         131.3858
   352.64         130.8393
   352.78         130.2108
   352.92         129.5231
   353.06         128.8074
   353.20         128.1071
   353.34         127.4771
   353.48         126.9756
   353.62         126.6581
   353.76         126.5559
   353.90         126.6604
   354.04         126.9305
   354.18         127.3014
   354.32         127.7005
   354.46         128.0588
   354.60         128.3131
   354.74         128.4201
   354.88         128.3616
   355.02         128.1378
   355.16         127.7600
   355.30         127.2560
   355.44         126.6726
   355.58         126.0669
   355.72         125.4999
   355.86         125.0274
   356.00         124.6856
   356.14         124.4849
   356.28         124.4002
   356.42         124.3645
   356.56         124.2955
   356.70         124.1276
   356.84         123.8176
   356.98         123.3381
   357.12         122.6709
   357.26         121.8194
   357.40         120.8201
   357.54         119.7273
   357.68         118.5939
   357.82         117.4723
   357.96         116.4303
   358.10         115.5435
   358.24         114.8714
   358.38         114.4409
   358.52         114.2372
   358.66         114.2083
   358.80         114.2771
   358.94         114.3649
   359.08         114.4186
   359.22         114.4155
   359.36         114.3531
   359.50         114.2453
   359.64         114.1180
   359.78         114.0021
   359.92         113.9251
   360.06         113.8979
   360.20         113.9153
   360.34         113.9731
   360.48         114.0730
   360.62         114.2068
   360.76         114.3421
   360.90         114.4335
   361.04         114.4415
   361.18         114.3476
   361.32         114.1646
   361.46         113.9356
   361.60         113.7208
   361.74         113.5783
   361.88         113.5471
   362.02         113.6383
   362.16         113.8322
   362.30         114.0807
   362.44         114.3213
   362.58         114.4949
   362.72         114.5592
   362.86         114.4971
   363.00         114.3153
   363.14         114.0317
   363.28         113.6669
   363.42         113.2461
   363.56         112.7996
   363.70         112.3675
   363.84         112.0034
   363.98         111.7475
   364.12         111.6129
   364.26         111.6008
   364.40         111.7045
   364.54         111.9049
   364.68         112.1679
   364.82         112.4566
   364.96         112.7470
   365.10         113.0256
   365.24         113.2784
   365.38         113.4966
   365.52         113.6840
   365.66         113.8498
   365.80         113.9992
   365.94         114.1320
   366.08         114.2380
   366.22         114.2996
   366.36         114.3052
   366.50         114.2521
   366.64         114.1405
   366.78         113.9797
   366.92         113.7834
   367.06         113.5577
   367.20         113.3018
   367.34         113.0243
   367.48         112.7598
   367.62         112.5511
   367.76         112.4247
   367.90         112.3926
   368.04         112.4562
   368.18         112.5997
   368.32         112.7836
   368.46         112.9559
   368.60         113.0715
   368.74         113.0985
   368.88         113.0174
   369.02         112.8225
   369.16         112.5192
   369.30         112.1140
   369.44         111.6173
   369.58         111.0551
   369.72         110.4617
   369.86         109.8726
   370.00         109.3220
   370.14         108.8310
   370.28         108.4071
   370.42         108.0671
   370.56         107.8439
   370.70         107.7610
   370.84         107.8109
   370.98         107.9520
   371.12         108.1279
   371.26         108.2913
   371.40         108.4102
   371.54         108.4699
   371.68         108.4744
   371.82         108.4375
   371.96         108.3676
   372.10         108.2570
   372.24         108.0799
   372.38         107.8119
   372.52         107.4655
   372.66         107.0964
   372.80         106.7880
   372.94         106.6253
   373.08         106.6628
   373.22         106.9024
   373.36         107.2989
   373.50         107.7747
   373.64         108.2365
   373.78         108.5945
   373.92         108.7735
   374.06         108.7172
   374.20         108.4014
   374.34         107.8483
   374.48         107.1264
   374.62         106.3503
   374.76         105.6757
   374.90         105.2728
   375.04         105.2868
   375.18         105.8039
   375.32         106.8268
   375.46         108.2639
   375.60         109.9296
   375.74         111.5592
   375.88         112.8662
   376.02         113.6151
   376.16         113.6776
   376.30         113.0751
   376.44         111.9770
   376.58         110.6517
   376.72         109.4064
   376.86         108.5405
   377.00         108.2955
   377.14         108.8118
   377.28         110.1145
   377.42         112.1185
   377.56         114.6487
   377.70         117.4731
   377.84         120.3265
   377.98         122.9270
   378.12         124.9926
   378.26         126.2648
   378.40         126.5524
   378.54         125.7884
   378.68         124.0582
   378.82         121.5783
   378.96         118.6425
   379.10         115.5624
   379.24         112.6329
   379.38         110.1153
   379.52         108.2238
   379.66         107.1104
   379.80         106.8547
   379.94         107.4680
   380.08         108.9006
   380.22         111.0269
   380.36         113.6233
   380.50         116.3871
   380.64         118.9980
   380.78         121.1862
   380.92         122.7852
   381.06         123.7569
   381.20         124.1802
   381.34         124.2043
   381.48         123.9831
   381.62         123.6344
   381.76         123.2255
   381.90         122.7678
   382.04         122.2143
   382.18         121.4791
   382.32         120.4811
   382.46         119.1776
   382.60         117.5793
   382.74         115.7456
   382.88         113.7671
   383.02         111.7698
   383.16         109.9272
   383.30         108.4408
   383.44         107.5035
   383.58         107.2555
   383.72         107.7437
   383.86         108.9101
   384.00         110.6154
   384.14         112.6756
   384.28         114.8926
   384.42         117.0754
   384.56         119.0593
   384.70         120.7251
   384.84         122.0211
   384.98         122.9654
   385.12         123.6104
   385.26         124.0058
   385.40         124.1867
   385.54         124.1784
   385.68         124.0037
   385.82         123.6865
   385.96         123.2522
   386.10         122.7316
   386.24         122.1501
   386.38         121.5226
   386.52         120.8664
   386.66         120.2037
   386.80         119.5468
   386.94         118.8812
   387.08         118.1650
   387.22         117.3382
   387.36         116.3208
   387.50         115.0162
   387.64         113.3421
   387.78         111.2744
   387.92         108.8758
   388.06         106.2924
   388.20         103.7187
   388.34         101.3642
   388.48         99.4348
   388.62         98.1074
   388.76         97.5041
   388.90         97.6740
   389.04         98.6017
   389.18         100.2158
   389.32         102.3827
   389.46         104.9117
   389.60         107.5781
   389.74         110.1596
   389.88         112.4601
   390.02         114.3310
   390.16         115.7035
   390.30         116.6050
   390.44         117.1216
   390.58         117.3391
   390.72         117.3201
   390.86         117.1094
   391.00         116.7479
   391.14         116.2641
   391.28         115.6670
   391.42         114.9634
   391.56         114.1782
   391.70         113.3565
   391.84         112.5401
   391.98         111.7476
   392.12         110.9850
   392.26         110.2654
   392.40         109.6207
   392.54         109.0943
   392.68         108.7313
   392.82         108.5671
   392.96         108.6141
   393.10         108.8523
   393.24         109.2391
   393.38         109.7324
   393.52         110.2999
   393.66         110.9100
   393.80         111.5210
   393.94         112.0906
   394.08         112.5848
   394.22         112.9666
   394.36         113.1910
   394.50         113.2160
   394.64         113.0237
   394.78         112.6273
   394.92         112.0543
   395.06         111.3220
   395.20         110.4232
   395.34         109.3227
   395.48         107.9624
   395.62         106.2733
   395.76         104.2038
   395.90         101.7620
   396.04         99.0392
   396.18         96.1978
   396.32         93.4383
   396.46         90.9692
   396.60         88.9849
   396.74         87.6476
   396.88         87.0676
   397.02         87.2927
   397.16         88.3045
   397.30         90.0132
   397.44         92.2585
   397.58         94.8267
   397.72         97.4854
   397.86         100.0171
   398.00         102.2387
   398.14         104.0225
   398.28         105.3167
   398.42         106.1508
   398.56         106.6240
   398.70         106.8690
   398.84         107.0079
   398.98         107.1242
   399.12         107.2535
   399.26         107.3933
   399.40         107.5180
   399.54         107.5890
   399.68         107.5661
   399.82         107.4225
   399.96         107.1484
   400.10         106.7470
   400.24         106.2349
   400.38         105.6404
   400.52         105.0000
   400.66         104.3543
   400.80         103.7469
   400.94         103.2150
   401.08         102.7691
   401.22         102.3846
   401.36         102.0128
   401.50         101.6012
   401.64         101.1155
   401.78         100.5519
   401.92         99.9371
   402.06         99.3163
   402.20         98.7398
   402.34         98.2613
   402.48         97.9340
   402.62         97.7968
   402.76         97.8654
   402.90         98.1294
   403.04         98.5544
   403.18         99.0909
   403.32         99.6821
   403.46         100.2700
   403.60         100.8072
   403.74         101.2651
   403.88         101.6375
   404.02         101.9378
   404.16         102.1869
   404.30         102.4028
   404.44         102.5908
   404.58         102.7415
   404.72         102.8405
   404.86         102.8801
   405.00         102.8658
   405.14         102.8143
   405.28         102.7427
   405.42         102.6565
   405.56         102.5429
   405.70         102.3821
   405.84         102.1577
   405.98         101.8589
   406.12         101.4823
   406.26         101.0299
   406.40         100.5041
   406.54         99.9081
   406.68         99.2594
   406.82         98.5961
   406.96         97.9617
   407.10         97.3876
   407.24         96.8907
   407.38         96.4819
   407.52         96.1664
   407.66         95.9378
   407.80         95.7770
   407.94         95.6544
   408.08         95.5346
   408.22         95.3800
   408.36         95.1505
   408.50         94.7981
   408.64         94.2636
   408.78         93.4802
   408.92         92.3903
   409.06         90.9680
   409.20         89.2386
   409.34         87.2866
   409.48         85.2408
   409.62         83.2475
   409.76         81.4563
   409.90         80.0086
   410.04         79.0205
   410.18         78.5671
   410.32         78.6727
   410.46         79.3063
   410.60         80.3791
   410.74         81.7521
   410.88         83.2555
   411.02         84.7254
   411.16         86.0346
   411.30         87.1044
   411.44         87.9112
   411.58         88.4829
   411.72         88.8793
   411.86         89.1686
   412.00         89.4104
   412.14         89.6461
   412.28         89.9006
   412.42         90.1857
   412.56         90.4959
   412.70         90.8085
   412.84         91.0898
   412.98         91.2997
   413.12         91.3964
   413.26         91.3522
   413.40         91.1690
   413.54         90.8775
   413.68         90.5260
   413.82         90.1649
   413.96         89.8378
   414.10         89.5818
   414.24         89.4223
   414.38         89.3703
   414.52         89.4281
   414.66         89.5904
   414.80         89.8395
   414.94         90.1443
   415.08         90.4622
   415.22         90.7487
   415.36         90.9674
   415.50         91.0946
   415.64         91.1218
   415.78         91.0598
   415.92         90.9356
   416.06         90.7791
   416.20         90.6105
   416.34         90.4416
   416.48         90.2796
   416.62         90.1273
   416.76         89.9829
   416.90         89.8420
   417.04         89.6998
   417.18         89.5529
   417.32         89.3993
   417.46         89.2380
   417.60         89.0686
   417.74         88.8932
   417.88         88.7161
   418.02         88.5436
   418.16         88.3825
   418.30         88.2400
   418.44         88.1211
   418.58         88.0256
   418.72         87.9497
   418.86         87.8907
   419.00         87.8450
   419.14         87.8066
   419.28         87.7683
   419.42         87.7230
   419.56         87.6656
   419.70         87.5943
   419.84         87.5147
   419.98         87.4385
   420.12         87.3752
   420.26         87.3307
   420.40         87.3121
   420.54         87.3238
   420.68         87.3622
   420.82         87.4178
   420.96         87.4827
   421.10         87.5551
   421.24         87.6363
   421.38         87.7222
   421.52         87.7990
   421.66         87.8498
   421.80         87.8618
   421.94         87.8266
   422.08         87.7368
   422.22         87.5882
   422.36         87.3818
   422.50         87.1248
   422.64         86.8269
   422.78         86.4992
   422.92         86.1586
   423.06         85.8291
   423.20         85.5319
   423.34         85.2827
   423.48         85.0966
   423.62         84.9836
   423.76         84.9396
   423.90         84.9415
   424.04         84.9565
   424.18         84.9570
   424.32         84.9246
   424.46         84.8469
   424.60         84.7156
   424.74         84.5278
   424.88         84.2861
   425.02         83.9977
   425.16         83.6702
   425.30         83.3086
   425.44         82.9233
   425.58         82.5367
   425.72         82.1789
   425.86         81.8739
   426.00         81.6355
   426.14         81.4667
   426.28         81.3592
   426.42         81.3011
   426.56         81.2844
   426.70         81.3105
   426.84         81.3839
   426.98         81.5027
   427.12         81.6584
   427.26         81.8367
   427.40         82.0219
   427.54         82.2005
   427.68         82.3616
   427.82         82.4951
   427.96         82.5931
   428.10         82.6527
   428.24         82.6734
   428.38         82.6526
   428.52         82.5875
   428.66         82.4805
   428.80         82.3415
   428.94         82.1852
   429.08         82.0253
   429.22         81.8691
   429.36         81.7175
   429.50         81.5646
   429.64         81.3994
   429.78         81.2127
   429.92         81.0018
   430.06         80.7685
   430.20         80.5151
   430.34         80.2430
   430.48         79.9543
   430.62         79.6517
   430.76         79.3380
   430.90         79.0168
   431.04         78.6979
   431.18         78.3943
   431.32         78.1167
   431.46         77.8693
   431.60         77.6471
   431.74         77.4369
   431.88         77.2206
   432.02         76.9775
   432.16         76.6824
   432.30         76.3049
   432.44         75.8076
   432.58         75.1444
   432.72         74.2681
   432.86         73.1517
   433.00         71.8045
   433.14         70.2770
   433.28         68.6573
   433.42         67.0580
   433.56         65.5995
   433.70         64.3943
   433.84         63.5352
   433.98         63.0873
   434.12         63.0834
   434.26         63.5197
   434.40         64.3557
   434.54         65.5191
   434.68         66.9114
   434.82         68.4181
   434.96         69.9192
   435.10         71.3023
   435.24         72.4779
   435.38         73.3956
   435.52         74.0497
   435.66         74.4671
   435.80         74.6904
   435.94         74.7674
   436.08         74.7454
   436.22         74.6700
   436.36         74.5871
   436.50         74.5386
   436.64         74.5540
   436.78         74.6465
   436.92         74.8117
   437.06         75.0278
   437.20         75.2594
   437.34         75.4597
   437.48         75.5789
   437.62         75.5791
   437.76         75.4450
   437.90         75.1852
   438.04         74.8271
   438.18         74.4099
   438.32         73.9783
   438.46         73.5772
   438.60         73.2476
   438.74         73.0232
   438.88         72.9249
   439.02         72.9583
   439.16         73.1144
   439.30         73.3694
   439.44         73.6873
   439.58         74.0247
   439.72         74.3372
   439.86         74.5877
   440.00         74.7500
   440.14         74.8090
   440.28         74.7599
   440.42         74.6048
   440.56         74.3493
   440.70         74.0040
   440.84         73.5884
   440.98         73.1298
   441.12         72.6568
   441.26         72.1954
   441.40         71.7673
   441.54         71.3872
   441.68         71.0610
   441.82         70.7846
   441.96         70.5472
   442.10         70.3370
   442.24         70.1419
   442.38         69.9502
   442.52         69.7523
   442.66         69.5419
   442.80         69.3198
   442.94         69.0992
   443.08         68.9018
   443.22         68.7492
   443.36         68.6573
   443.50         68.6366
   443.64         68.6918
   443.78         68.8198
   443.92         69.0075
   444.06         69.2309
   444.20         69.4635
   444.34         69.6818
   444.48         69.8669
   444.62         70.0070
   444.76         70.0969
   444.90         70.1388
   445.04         70.1421
   445.18         70.1184
   445.32         70.0746
   445.46         70.0049
   445.60         69.8865
   445.74         69.6840
   445.88         69.3617
   446.02         68.9010
   446.16         68.3109
   446.30         67.6241
   446.44         66.8877
   446.58         66.1540
   446.72         65.4750
   446.86         64.9004
   447.00         64.4721
   447.14         64.2200
   447.28         64.1628
   447.42         64.3028
   447.56         64.6210
   447.70         65.0772
   447.84         65.6156
   447.98         66.1749
   448.12         66.6982
   448.26         67.1458
   448.40         67.5045
   448.54         67.7843
   448.68         68.0031
   448.82         68.1736
   448.96         68.3003
   449.10         68.3840
   449.24         68.4243
   449.38         68.4227
   449.52         68.3854
   449.66         68.3208
   449.80         68.2334
   449.94         68.1245
   450.08         67.9964
   450.22         67.8567
   450.36         67.7178
   450.50         67.5958
   450.64         67.5074
   450.78         67.4644
   450.92         67.4720
   451.06         67.5276
   451.20         67.6200
   451.34         67.7332
   451.48         67.8492
   451.62         67.9511
   451.76         68.0244
   451.90         68.0586
   452.04         68.0481
   452.18         67.9909
   452.32         67.8892
   452.46         67.7530
   452.60         67.6018
   452.74         67.4578
   452.88         67.3382
   453.02         67.2536
   453.16         67.2096
   453.30         67.2045
   453.44         67.2319
   453.58         67.2784
   453.72         67.3201
   453.86         67.3282
   454.00         67.2801
   454.14         67.1678
   454.28         67.0002
   454.42         66.7993
   454.56         66.5889
   454.70         66.3864
   454.84         66.2030
   454.98         66.0493
   455.12         65.9328
   455.26         65.8522
   455.40         65.7968
   455.54         65.7543
   455.68         65.7154
   455.82         65.6719
   455.96         65.6133
   456.10         65.5257
   456.24         65.3973
   456.38         65.2294
   456.52         65.0456
   456.66         64.8852
   456.80         64.7839
   456.94         64.7593
   457.08         64.8096
   457.22         64.9171
   457.36         65.0525
   457.50         65.1814
   457.64         65.2677
   457.78         65.2768
   457.92         65.1884
   458.06         65.0006
   458.20         64.7263
   458.34         64.3888
   458.48         64.0157
   458.62         63.6332
   458.76         63.2676
   458.90         62.9505
   459.04         62.7130
   459.18         62.5722
   459.32         62.5225
   459.46         62.5409
   459.60         62.5998
   459.74         62.6732
   459.88         62.7392
   460.02         62.7832
   460.16         62.8026
   460.30         62.8049
   460.44         62.8035
   460.58         62.8138
   460.72         62.8464
   460.86         62.9040
   461.00         62.9831
   461.14         63.0720
   461.28         63.1509
   461.42         63.2001
   461.56         63.2051
   461.70         63.1539
   461.84         63.0376
   461.98         62.8541
   462.12         62.6139
   462.26         62.3384
   462.40         62.0520
   462.54         61.7771
   462.68         61.5306
   462.82         61.3207
   462.96         61.1457
   463.10         60.9984
   463.24         60.8699
   463.38         60.7473
   463.52         60.6133
   463.66         60.4518
   463.80         60.2544
   463.94         60.0246
   464.08         59.7776
   464.22         59.5379
   464.36         59.3360
   464.50         59.2003
   464.64         59.1488
   464.78         59.1856
   464.92         59.3011
   465.06         59.4745
   465.20         59.6829
   465.34         59.9060
   465.48         60.1264
   465.62         60.3278
   465.76         60.4958
   465.90         60.6165
   466.04         60.6790
   466.18         60.6784
   466.32         60.6189
   466.46         60.5151
   466.60         60.3883
   466.74         60.2594
   466.88         60.1440
   467.02         60.0501
   467.16         59.9793
   467.30         59.9286
   467.44         59.8959
   467.58         59.8846
   467.72         59.9017
   467.86         59.9483
   468.00         60.0132
   468.14         60.0772
   468.28         60.1213
   468.42         60.1321
   468.56         60.1030
   468.70         60.0313
   468.84         59.9169
   468.98         59.7647
   469.12         59.5861
   469.26         59.3980
   469.40         59.2180
   469.54         59.0601
   469.68         58.9345
   469.82         58.8417
   469.96         58.7685
   470.10         58.6954
   470.24         58.6055
   470.38         58.4874
   470.52         58.3370
   470.66         58.1626
   470.80         57.9824
   470.94         57.8159
   471.08         57.6772
   471.22         57.5727
   471.36         57.5031
   471.50         57.4681
   471.64         57.4702
   471.78         57.5150
   471.92         57.6046
   472.06         57.7284
   472.20         57.8624
   472.34         57.9811
   472.48         58.0683
   472.62         58.1182
   472.76         58.1355
   472.90         58.1336
   473.04         58.1265
   473.18         58.1220
   473.32         58.1198
   473.46         58.1095
   473.60         58.0750
   473.74         58.0008
   473.88         57.8756
   474.02         57.6968
   474.16         57.4697
   474.30         57.2048
   474.44         56.9144
   474.58         56.6095
   474.72         56.2972
   474.86         55.9839
   475.00         55.6812
   475.14         55.4025
   475.28         55.1561
   475.42         54.9512
   475.56         54.7996
   475.70         54.7067
   475.84         54.6657
   475.98         54.6650
   476.12         54.6928
   476.26         54.7398
   476.40         54.8053
   476.54         54.8958
   476.68         55.0158
   476.82         55.1604
   476.96         55.3136
   477.10         55.4565
   477.24         55.5752
   477.38         55.6657
   477.52         55.7311
   477.66         55.7773
   477.80         55.8079
   477.94         55.8236
   478.08         55.8323
   478.22         55.8458
   478.36         55.8696
   478.50         55.9045
   478.64         55.9499
   478.78         55.9992
   478.92         56.0404
   479.06         56.0585
   479.20         56.0363
   479.34         55.9613
   479.48         55.8316
   479.62         55.6587
   479.76         55.4626
   479.90         55.2632
   480.04         55.0758
   480.18         54.9090
   480.32         54.7659
   480.46         54.6496
   480.60         54.5622
   480.74         54.5029
   480.88         54.4629
   481.02         54.4292
   481.16         54.3949
   481.30         54.3568
   481.44         54.3113
   481.58         54.2566
   481.72         54.1959
   481.86         54.1391
   482.00         54.0950
   482.14         54.0641
   482.28         54.0403
   482.42         54.0177
   482.56         53.9927
   482.70         53.9653
   482.84         53.9330
   482.98         53.8882
   483.12         53.8206
   483.26         53.7182
   483.40         53.5765
   483.54         53.4003
   483.68         53.1988
   483.82         52.9770
   483.96         52.7305
   484.10         52.4509
   484.24         52.1297
   484.38         51.7562
   484.52         51.3122
   484.66         50.7695
   484.80         50.0959
   484.94         49.2720
   485.08         48.3030
   485.22         47.2215
   485.36         46.0847
   485.50         44.9675
   485.64         43.9542
   485.78         43.1311
   485.92         42.5768
   486.06         42.3472
   486.20         42.4590
   486.34         42.8874
   486.48         43.5772
   486.62         44.4544
   486.76         45.4347
   486.90         46.4307
   487.04         47.3621
   487.18         48.1652
   487.32         48.7987
   487.46         49.2499
   487.60         49.5330
   487.74         49.6780
   487.88         49.7203
   488.02         49.6961
   488.16         49.6388
   488.30         49.5773
   488.44         49.5325
   488.58         49.5121
   488.72         49.5128
   488.86         49.5312
   489.00         49.5706
   489.14         49.6369
   489.28         49.7290
   489.42         49.8382
   489.56         49.9523
   489.70         50.0597
   489.84         50.1482
   489.98         50.2053
   490.12         50.2249
   490.26         50.2065
   490.40         50.1564
   490.54         50.0847
   490.68         49.9946
   490.82         49.8772
   490.96         49.7175
   491.10         49.5011
   491.24         49.2216
   491.38         48.8873
   491.52         48.5212
   491.66         48.1545
   491.80         47.8195
   491.94         47.5475
   492.08         47.3686
   492.22         47.3052
   492.36         47.3622
   492.50         47.5243
   492.64         47.7668
   492.78         48.0631
   492.92         48.3848
   493.06         48.7014
   493.20         48.9828
   493.34         49.2074
   493.48         49.3699
   493.62         49.4788
   493.76         49.5470
   493.90         49.5907
   494.04         49.6244
   494.18         49.6552
   494.32         49.6863
   494.46         49.7207
   494.60         49.7575
   494.74         49.7893
   494.88         49.8051
   495.02         49.7947
   495.16         49.7590
   495.30         49.7107
   495.44         49.6632
   495.58         49.6236
   495.72         49.5919
   495.86         49.5639
   496.00         49.5321
   496.14         49.4863
   496.28         49.4164
   496.42         49.3172
   496.56         49.1921
   496.70         49.0504
   496.84         48.9065
   496.98         48.7764
   497.12         48.6683
   497.26         48.5802
   497.40         48.5078
   497.54         48.4507
   497.68         48.4085
   497.82         48.3779
   497.96         48.3521
   498.10         48.3230
   498.24         48.2881
   498.38         48.2499
   498.52         48.2107
   498.66         48.1715
   498.80         48.1342
   498.94         48.0964
   499.08         48.0508
   499.22         47.9918
   499.36         47.9176
   499.50         47.8267
   499.64         47.7163
   499.78         47.5867
   499.92         47.4431
   500.06         47.2913
   500.20         47.1345
   500.34         46.9743
   500.48         46.8177
   500.62         46.6796
   500.76         46.5768
   500.90         46.5171
   501.04         46.4947
   501.18         46.4965
   501.32         46.5088
   501.46         46.5196
   501.60         46.5179
   501.74         46.4969
   501.88         46.4558
   502.02         46.3946
   502.16         46.3109
   502.30         46.2012
   502.44         46.0643
   502.58         45.9047
   502.72         45.7314
   502.86         45.5582
   503.00         45.4043
   503.14         45.2892
   503.28         45.2223
   503.42         45.1966
   503.56         45.1971
   503.70         45.2112
   503.84         45.2315
   503.98         45.2522
   504.12         45.2679
   504.26         45.2759
   504.40         45.2788
   504.54         45.2840
   504.68         45.2977
   504.82         45.3206
   504.96         45.3497
   505.10         45.3812
   505.24         45.4101
   505.38         45.4256
   505.52         45.4128
   505.66         45.3576
   505.80         45.2520
   505.94         45.0975
   506.08         44.9052
   506.22         44.6952
   506.36         44.4899
   506.50         44.3118
   506.64         44.1827
   506.78         44.1185
   506.92         44.1254
   507.06         44.1963
   507.20         44.3122
   507.34         44.4501
   507.48         44.5887
   507.62         44.7120
   507.76         44.8100
   507.90         44.8796
   508.04         44.9258
   508.18         44.9589
   508.32         44.9881
   508.46         45.0181
   508.60         45.0449
   508.74         45.0582
   508.88         45.0481
   509.02         45.0097
   509.16         44.9438
   509.30         44.8526
   509.44         44.7368
   509.58         44.5992
   509.72         44.4484
   509.86         44.2973
   510.00         44.1614
   510.14         44.0529
   510.28         43.9792
   510.42         43.9442
   510.56         43.9450
   510.70         43.9684
   510.84         43.9962
   510.98         44.0136
   511.12         44.0140
   511.26         43.9977
   511.40         43.9685
   511.54         43.9325
   511.68         43.8965
   511.82         43.8660
   511.96         43.8420
   512.10         43.8222
   512.24         43.8035
   512.38         43.7821
   512.52         43.7546
   512.66         43.7166
   512.80         43.6616
   512.94         43.5828
   513.08         43.4766
   513.22         43.3433
   513.36         43.1910
   513.50         43.0348
   513.64         42.8873
   513.78         42.7545
   513.92         42.6391
   514.06         42.5453
   514.20         42.4776
   514.34         42.4376
   514.48         42.4245
   514.62         42.4350
   514.76         42.4668
   514.90         42.5198
   515.04         42.5917
   515.18         42.6757
   515.32         42.7605
   515.46         42.8330
   515.60         42.8821
   515.74         42.8991
   515.88         42.8782
   516.02         42.8180
   516.16         42.7200
   516.30         42.5849
   516.44         42.4160
   516.58         42.2230
   516.72         42.0201
   516.86         41.8224
   517.00         41.6451
   517.14         41.5024
   517.28         41.4051
   517.42         41.3604
   517.56         41.3685
   517.70         41.4193
   517.84         41.4986
   517.98         41.5929
   518.12         41.6878
   518.26         41.7693
   518.40         41.8277
   518.54         41.8595
   518.68         41.8655
   518.82         41.8493
   518.96         41.8166
   519.10         41.7728
   519.24         41.7217
   519.38         41.6664
   519.52         41.6089
   519.66         41.5486
   519.80         41.4841
   519.94         41.4132
   520.08         41.3324
   520.22         41.2393
   520.36         41.1385
   520.50         41.0397
   520.64         40.9472
   520.78         40.8592
   520.92         40.7741
   521.06         40.6941
   521.20         40.6223
   521.34         40.5599
   521.48         40.5066
   521.62         40.4585
   521.76         40.4086
   521.90         40.3537
   522.04         40.2948
   522.18         40.2321
   522.32         40.1648
   522.46         40.0962
   522.60         40.0328
   522.74         39.9797
   522.88         39.9396
   523.02         39.9112
   523.16         39.8855
   523.30         39.8527
   523.44         39.8107
   523.58         39.7650
   523.72         39.7245
   523.86         39.6966
   524.00         39.6857
   524.14         39.6927
   524.28         39.7141
   524.42         39.7443
   524.56         39.7781
   524.70         39.8110
   524.84         39.8418
   524.98         39.8708
   525.12         39.8966
   525.26         39.9138
   525.40         39.9147
   525.54         39.8920
   525.68         39.8393
   525.82         39.7526
   525.96         39.6330
   526.10         39.4858
   526.24         39.3170
   526.38         39.1314
   526.52         38.9366
   526.66         38.7442
   526.80         38.5665
   526.94         38.4145
   527.08         38.2957
   527.22         38.2139
   527.36         38.1713
   527.50         38.1669
   527.64         38.1934
   527.78         38.2385
   527.92         38.2891
   528.06         38.3327
   528.20         38.3563
   528.34         38.3499
   528.48         38.3082
   528.62         38.2293
   528.76         38.1145
   528.90         37.9695
   529.04         37.8066
   529.18         37.6424
   529.32         37.4919
   529.46         37.3648
   529.60         37.2681
   529.74         37.2056
   529.88         37.1804
   530.02         37.1949
   530.16         37.2479
   530.30         37.3333
   530.44         37.4437
   530.58         37.5738
   530.72         37.7187
   530.86         37.8717
   531.00         38.0254
   531.14         38.1707
   531.28         38.2971
   531.42         38.3970
   531.56         38.4660
   531.70         38.5015
   531.84         38.5012
   531.98         38.4652
   532.12         38.3987
   532.26         38.3105
   532.40         38.2108
   532.54         38.1092
   532.68         38.0124
   532.82         37.9237
   532.96         37.8424
   533.10         37.7652
   533.24         37.6889
   533.38         37.6100
   533.52         37.5269
   533.66         37.4433
   533.80         37.3657
   533.94         37.3007
   534.08         37.2547
   534.22         37.2312
   534.36         37.2294
   534.50         37.2448
   534.64         37.2705
   534.78         37.2977
   534.92         37.3158
   535.06         37.3164
   535.20         37.2948
   535.34         37.2498
   535.48         37.1829
   535.62         37.0965
   535.76         36.9953
   535.90         36.8864
   536.04         36.7776
   536.18         36.6749
   536.32         36.5809
   536.46         36.4944
   536.60         36.4146
   536.74         36.3430
   536.88         36.2812
   537.02         36.2287
   537.16         36.1841
   537.30         36.1475
   537.44         36.1204
   537.58         36.1046
   537.72         36.1018
   537.86         36.1121
   538.00         36.1323
   538.14         36.1579
   538.28         36.1845
   538.42         36.2081
   538.56         36.2255
   538.70         36.2339
   538.84         36.2297
   538.98         36.2091
   539.12         36.1710
   539.26         36.1157
   539.40         36.0413
   539.54         35.9457
   539.68         35.8308
   539.82         35.7033
   539.96         35.5722
   540.10         35.4459
   540.24         35.3325
   540.38         35.2401
   540.52         35.1717
   540.66         35.1257
   540.80         35.0992
   540.94         35.0890
   541.08         35.0920
   541.22         35.1060
   541.36         35.1285
   541.50         35.1556
   541.64         35.1827
   541.78         35.2062
   541.92         35.2217
   542.06         35.2255
   542.20         35.2177
   542.34         35.1997
   542.48         35.1726
   542.62         35.1386
   542.76         35.1011
   542.90         35.0625
   543.04         35.0232
   543.18         34.9820
   543.32         34.9395
   543.46         34.8973
   543.60         34.8572
   543.74         34.8206
   543.88         34.7876
   544.02         34.7552
   544.16         34.7204
   544.30         34.6843
   544.44         34.6502
   544.58         34.6194
   544.72         34.5906
   544.86         34.5607
   545.00         34.5243
   545.14         34.4770
   545.28         34.4169
   545.42         34.3457
   545.56         34.2679
   545.70         34.1888
   545.84         34.1125
   545.98         34.0430
   546.12         33.9855
   546.26         33.9450
   546.40         33.9235
   546.54         33.9168
   546.68         33.9179
   546.82         33.9203
   546.96         33.9159
   547.10         33.8947
   547.24         33.8476
   547.38         33.7707
   547.52         33.6696
   547.66         33.5553
   547.80         33.4409
   547.94         33.3405
   548.08         33.2664
   548.22         33.2239
   548.36         33.2105
   548.50         33.2201
   548.64         33.2478
   548.78         33.2886
   548.92         33.3339
   549.06         33.3725
   549.20         33.3963
   549.34         33.4041
   549.48         33.3983
   549.62         33.3816
   549.76         33.3572
   549.90         33.3286
   550.04         33.2983
   550.18         33.2671
   550.32         33.2314
   550.46         33.1860
   550.60         33.1280
   550.74         33.0567
   550.88         32.9721
   551.02         32.8780
   551.16         32.7854
   551.30         32.7070
   551.44         32.6518
   551.58         32.6243
   551.72         32.6258
   551.86         32.6546
   552.00         32.7056
   552.14         32.7698
   552.28         32.8375
   552.42         32.9014
   552.56         32.9574
   552.70         33.0025
   552.84         33.0338
   552.98         33.0488
   553.12         33.0459
   553.26         33.0269
   553.40         32.9972
   553.54         32.9636
   553.68         32.9323
   553.82         32.9056
   553.96         32.8801
   554.10         32.8511
   554.24         32.8178
   554.38         32.7820
   554.52         32.7458
   554.66         32.7124
   554.80         32.6821
   554.94         32.6508
   555.08         32.6117
   555.22         32.5579
   555.36         32.4855
   555.50         32.3952
   555.64         32.2927
   555.78         32.1859
   555.92         32.0819
   556.06         31.9844
   556.20         31.8932
   556.34         31.8070
   556.48         31.7278
   556.62         31.6619
   556.76         31.6162
   556.90         31.5943
   557.04         31.5935
   557.18         31.6074
   557.32         31.6300
   557.46         31.6553
   557.60         31.6772
   557.74         31.6901
   557.88         31.6910
   558.02         31.6790
   558.16         31.6533
   558.30         31.6125
   558.44         31.5544
   558.58         31.4799
   558.72         31.3953
   558.86         31.3107
   559.00         31.2362
   559.14         31.1788
   559.28         31.1388
   559.42         31.1104
   559.56         31.0852
   559.70         31.0568
   559.84         31.0216
   559.98         30.9766
   560.12         30.9190
   560.26         30.8486
   560.40         30.7705
   560.54         30.6957
   560.68         30.6365
   560.82         30.6015
   560.96         30.5944
   561.10         30.6139
   561.24         30.6551
   561.38         30.7113
   561.52         30.7738
   561.66         30.8333
   561.80         30.8808
   561.94         30.9092
   562.08         30.9153
   562.22         30.8999
   562.36         30.8660
   562.50         30.8161
   562.64         30.7515
   562.78         30.6761
   562.92         30.5977
   563.06         30.5237
   563.20         30.4591
   563.34         30.4048
   563.48         30.3564
   563.62         30.3075
   563.76         30.2523
   563.90         30.1876
   564.04         30.1135
   564.18         30.0333
   564.32         29.9516
   564.46         29.8716
   564.60         29.7958
   564.74         29.7263
   564.88         29.6629
   565.02         29.6045
   565.16         29.5512
   565.30         29.5063
   565.44         29.4758
   565.58         29.4626
   565.72         29.4654
   565.86         29.4810
   566.00         29.5053
   566.14         29.5324
   566.28         29.5551
   566.42         29.5673
   566.56         29.5633
   566.70         29.5379
   566.84         29.4886
   566.98         29.4150
   567.12         29.3191
   567.26         29.2070
   567.40         29.0870
   567.54         28.9683
   567.68         28.8609
   567.82         28.7733
   567.96         28.7122
   568.10         28.6812
   568.24         28.6798
   568.38         28.7032
   568.52         28.7436
   568.66         28.7902
   568.80         28.8319
   568.94         28.8600
   569.08         28.8689
   569.22         28.8555
   569.36         28.8204
   569.50         28.7681
   569.64         28.7038
   569.78         28.6316
   569.92         28.5560
   570.06         28.4822
   570.20         28.4158
   570.34         28.3624
   570.48         28.3270
   570.62         28.3112
   570.76         28.3120
   570.90         28.3228
   571.04         28.3344
   571.18         28.3378
   571.32         28.3256
   571.46         28.2933
   571.60         28.2394
   571.74         28.1644
   571.88         28.0716
   572.02         27.9673
   572.16         27.8584
   572.30         27.7528
   572.44         27.6582
   572.58         27.5780
   572.72         27.5117
   572.86         27.4587
   573.00         27.4199
   573.14         27.3953
   573.28         27.3818
   573.42         27.3747
   573.56         27.3705
   573.70         27.3675
   573.84         27.3669
   573.98         27.3720
   574.12         27.3860
   574.26         27.4103
   574.40         27.4430
   574.54         27.4812
   574.68         27.5219
   574.82         27.5614
   574.96         27.5953
   575.10         27.6184
   575.24         27.6266
   575.38         27.6197
   575.52         27.6010
   575.66         27.5723
   575.80         27.5312
   575.94         27.4758
   576.08         27.4086
   576.22         27.3349
   576.36         27.2590
   576.50         27.1836
   576.64         27.1073
   576.78         27.0240
   576.92         26.9256
   577.06         26.8077
   577.20         26.6715
   577.34         26.5242
   577.48         26.3771
   577.62         26.2438
   577.76         26.1385
   577.90         26.0719
   578.04         26.0476
   578.18         26.0626
   578.32         26.1096
   578.46         26.1786
   578.60         26.2586
   578.74         26.3372
   578.88         26.4029
   579.02         26.4485
   579.16         26.4728
   579.30         26.4791
   579.44         26.4746
   579.58         26.4707
   579.72         26.4799
   579.86         26.5114
   580.00         26.5699
   580.14         26.6530
   580.28         26.7497
   580.42         26.8438
   580.56         26.9179
   580.70         26.9596
   580.84         26.9656
   580.98         26.9385
   581.12         26.8838
   581.26         26.8097
   581.40         26.7281
   581.54         26.6515
   581.68         26.5885
   581.82         26.5432
   581.96         26.5169
   582.10         26.5073
   582.24         26.5078
   582.38         26.5091
   582.52         26.5016
   582.66         26.4776
   582.80         26.4335
   582.94         26.3691
   583.08         26.2886
   583.22         26.2022
   583.36         26.1225
   583.50         26.0601
   583.64         26.0206
   583.78         26.0061
   583.92         26.0170
   584.06         26.0489
   584.20         26.0930
   584.34         26.1384
   584.48         26.1755
   584.62         26.1976
   584.76         26.2004
   584.90         26.1835
   585.04         26.1515
   585.18         26.1129
   585.32         26.0763
   585.46         26.0475
   585.60         26.0295
   585.74         26.0229
   585.88         26.0217
   586.02         26.0096
   586.16         25.9637
   586.30         25.8647
   586.44         25.7058
   586.58         25.4946
   586.72         25.2467
   586.86         24.9828
   587.00         24.7276
   587.14         24.5070
   587.28         24.3423
   587.42         24.2460
   587.56         24.2170
   587.70         24.2361
   587.84         24.2731
   587.98         24.3021
   588.12         24.3045
   588.26         24.2628
   588.40         24.1584
   588.54         23.9807
   588.68         23.7402
   588.82         23.4684
   588.96         23.2073
   589.10         22.9982
   589.24         22.8720
   589.38         22.8459
   589.52         22.9240
   589.66         23.0989
   589.80         23.3515
   589.94         23.6541
   590.08         23.9767
   590.22         24.2894
   590.36         24.5672
   590.50         24.7975
   590.64         24.9781
   590.78         25.1071
   590.92         25.1809
   591.06         25.2034
   591.20         25.1895
   591.34         25.1571
   591.48         25.1155
   591.62         25.0671
   591.76         25.0148
   591.90         24.9629
   592.04         24.9146
   592.18         24.8715
   592.32         24.8356
   592.46         24.8092
   592.60         24.7936
   592.74         24.7876
   592.88         24.7866
   593.02         24.7845
   593.16         24.7761
   593.30         24.7567
   593.44         24.7223
   593.58         24.6696
   593.72         24.6002
   593.86         24.5199
   594.00         24.4336
   594.14         24.3471
   594.28         24.2691
   594.42         24.2096
   594.56         24.1739
   594.70         24.1619
   594.84         24.1701
   594.98         24.1924
   595.12         24.2206
   595.26         24.2458
   595.40         24.2606
   595.54         24.2589
   595.68         24.2375
   595.82         24.1964
   595.96         24.1383
   596.10         24.0678
   596.24         23.9905
   596.38         23.9157
   596.52         23.8535
   596.66         23.8120
   596.80         23.7967
   596.94         23.8084
   597.08         23.8420
   597.22         23.8903
   597.36         23.9469
   597.50         24.0068
   597.64         24.0645
   597.78         24.1133
   597.92         24.1472
   598.06         24.1622
   598.20         24.1565
   598.34         24.1319
   598.48         24.0921
   598.62         24.0387
   598.76         23.9711
   598.90         23.8911
   599.04         23.8034
   599.18         23.7113
   599.32         23.6163
   599.46         23.5179
   599.60         23.4169
   599.74         23.3173
   599.88         23.2263
   600.02         23.1525
   600.16         23.1004
   600.30         23.0692
   600.44         23.0581
   600.58         23.0674
   600.72         23.0951
   600.86         23.1353
   601.00         23.1796
   601.14         23.2184
   601.28         23.2436
   601.42         23.2493
   601.56         23.2324
   601.70         23.1936
   601.84         23.1366
   601.98         23.0683
   602.12         22.9966
   602.26         22.9294
   602.40         22.8732
   602.54         22.8317
   602.68         22.8065
   602.82         22.7942
   602.96         22.7907
   603.10         22.7940
   603.24         22.8004
   603.38         22.8036
   603.52         22.7977
   603.66         22.7799
   603.80         22.7508
   603.94         22.7127
   604.08         22.6690
   604.22         22.6257
   604.36         22.5904
   604.50         22.5673
   604.64         22.5558
   604.78         22.5523
   604.92         22.5544
   605.06         22.5621
   605.20         22.5757
   605.34         22.5946
   605.48         22.6161
   605.62         22.6367
   605.76         22.6517
   605.90         22.6551
   606.04         22.6435
   606.18         22.6173
   606.32         22.5787
   606.46         22.5312
   606.60         22.4785
   606.74         22.4250
   606.88         22.3744
   607.02         22.3291
   607.16         22.2885
   607.30         22.2503
   607.44         22.2140
   607.58         22.1819
   607.72         22.1566
   607.86         22.1388
   608.00         22.1285
   608.14         22.1255
   608.28         22.1283
   608.42         22.1359
   608.56         22.1486
   608.70         22.1664
   608.84         22.1880
   608.98         22.2092
   609.12         22.2245
   609.26         22.2285
   609.40         22.2179
   609.54         22.1912
   609.68         22.1489
   609.82         22.0942
   609.96         22.0345
   610.10         21.9812
   610.24         21.9425
   610.38         21.9199
   610.52         21.9102
   610.66         21.9091
   610.80         21.9110
   610.94         21.9108
   611.08         21.9054
   611.22         21.8944
   611.36         21.8786
   611.50         21.8594
   611.64         21.8387
   611.78         21.8184
   611.92         21.8013
   612.06         21.7910
   612.20         21.7883
   612.34         21.7907
   612.48         21.7935
   612.62         21.7906
   612.76         21.7764
   612.90         21.7456
   613.04         21.6965
   613.18         21.6322
   613.32         21.5583
   613.46         21.4814
   613.60         21.4097
   613.74         21.3515
   613.88         21.3134
   614.02         21.2993
   614.16         21.3107
   614.30         21.3457
   614.44         21.3989
   614.58         21.4621
   614.72         21.5258
   614.86         21.5817
   615.00         21.6236
   615.14         21.6472
   615.28         21.6514
   615.42         21.6385
   615.56         21.6124
   615.70         21.5768
   615.84         21.5334
   615.98         21.4811
   616.12         21.4189
   616.26         21.3482
   616.40         21.2729
   616.54         21.1969
   616.68         21.1225
   616.82         21.0486
   616.96         20.9727
   617.10         20.8938
   617.24         20.8142
   617.38         20.7390
   617.52         20.6728
   617.66         20.6187
   617.80         20.5783
   617.94         20.5535
   618.08         20.5447
   618.22         20.5488
   618.36         20.5617
   618.50         20.5800
   618.64         20.6033
   618.78         20.6331
   618.92         20.6697
   619.06         20.7086
   619.20         20.7426
   619.34         20.7657
   619.48         20.7753
   619.62         20.7733
   619.76         20.7653
   619.90         20.7557
   620.04         20.7458
   620.18         20.7358
   620.32         20.7274
   620.46         20.7218
   620.60         20.7177
   620.74         20.7123
   620.88         20.7027
   621.02         20.6859
   621.16         20.6601
   621.30         20.6246
   621.44         20.5787
   621.58         20.5239
   621.72         20.4647
   621.86         20.4101
   622.00         20.3693
   622.14         20.3499
   622.28         20.3573
   622.42         20.3916
   622.56         20.4485
   622.70         20.5225
   622.84         20.6092
   622.98         20.7033
   623.12         20.7971
   623.26         20.8813
   623.40         20.9493
   623.54         20.9993
   623.68         21.0341
   623.82         21.0570
   623.96         21.0686
   624.10         21.0672
   624.24         21.0515
   624.38         21.0216
   624.52         20.9781
   624.66         20.9221
   624.80         20.8549
   624.94         20.7786
   625.08         20.6952
   625.22         20.6084
   625.36         20.5251
   625.50         20.4517
   625.64         20.3914
   625.78         20.3437
   625.92         20.3072
   626.06         20.2818
   626.20         20.2668
   626.34         20.2554
   626.48         20.2363
   626.62         20.1995
   626.76         20.1392
   626.90         20.0526
   627.04         19.9370
   627.18         19.7907
   627.32         19.6147
   627.46         19.4148
   627.60         19.2017
   627.74         18.9891
   627.88         18.7914
   628.02         18.6226
   628.16         18.4940
   628.30         18.4152
   628.44         18.3931
   628.58         18.4312
   628.72         18.5272
   628.86         18.6713
   629.00         18.8480
   629.14         19.0379
   629.28         19.2224
   629.42         19.3872
   629.56         19.5220
   629.70         19.6219
   629.84         19.6889
   629.98         19.7298
   630.12         19.7534
   630.26         19.7666
   630.40         19.7733
   630.54         19.7757
   630.68         19.7761
   630.82         19.7769
   630.96         19.7780
   631.10         19.7760
   631.24         19.7675
   631.38         19.7496
   631.52         19.7202
   631.66         19.6786
   631.80         19.6277
   631.94         19.5755
   632.08         19.5308
   632.22         19.4985
   632.36         19.4796
   632.50         19.4721
   632.64         19.4732
   632.78         19.4796
   632.92         19.4871
   633.06         19.4918
   633.20         19.4895
   633.34         19.4771
   633.48         19.4523
   633.62         19.4145
   633.76         19.3648
   633.90         19.3057
   634.04         19.2407
   634.18         19.1736
   634.32         19.1088
   634.46         19.0497
   634.60         18.9986
   634.74         18.9563
   634.88         18.9213
   635.02         18.8924
   635.16         18.8685
   635.30         18.8482
   635.44         18.8295
   635.58         18.8106
   635.72         18.7904
   635.86         18.7689
   636.00         18.7472
   636.14         18.7276
   636.28         18.7115
   636.42         18.6965
   636.56         18.6790
   636.70         18.6567
   636.84         18.6283
   636.98         18.5925
   637.12         18.5511
   637.26         18.5091
   637.40         18.4707
   637.54         18.4378
   637.68         18.4115
   637.82         18.3918
   637.96         18.3780
   638.10         18.3701
   638.24         18.3684
   638.38         18.3712
   638.52         18.3762
   638.66         18.3820
   638.80         18.3859
   638.94         18.3833
   639.08         18.3713
   639.22         18.3506
   639.36         18.3250
   639.50         18.2987
   639.64         18.2776
   639.78         18.2680
   639.92         18.2736
   640.06         18.2938
   640.20         18.3246
   640.34         18.3615
   640.48         18.3990
   640.62         18.4315
   640.76         18.4545
   640.90         18.4639
   641.04         18.4567
   641.18         18.4323
   641.32         18.3919
   641.46         18.3370
   641.60         18.2725
   641.74         18.2063
   641.88         18.1463
   642.02         18.0977
   642.16         18.0638
   642.30         18.0464
   642.44         18.0460
   642.58         18.0622
   642.72         18.0935
   642.86         18.1375
   643.00         18.1918
   643.14         18.2534
   643.28         18.3198
   643.42         18.3873
   643.56         18.4505
   643.70         18.5036
   643.84         18.5408
   643.98         18.5575
   644.12         18.5522
   644.26         18.5260
   644.40         18.4803
   644.54         18.4161
   644.68         18.3359
   644.82         18.2452
   644.96         18.1507
   645.10         18.0584
   645.24         17.9731
   645.38         17.8979
   645.52         17.8358
   645.66         17.7903
   645.80         17.7625
   645.94         17.7511
   646.08         17.7516
   646.22         17.7595
   646.36         17.7728
   646.50         17.7901
   646.64         17.8099
   646.78         17.8292
   646.92         17.8426
   647.06         17.8431
   647.20         17.8254
   647.34         17.7881
   647.48         17.7340
   647.62         17.6684
   647.76         17.5970
   647.90         17.5255
   648.04         17.4598
   648.18         17.4052
   648.32         17.3638
   648.46         17.3348
   648.60         17.3165
   648.74         17.3084
   648.88         17.3111
   649.02         17.3250
   649.16         17.3489
   649.30         17.3812
   649.44         17.4202
   649.58         17.4638
   649.72         17.5098
   649.86         17.5572
   650.00         17.6060
   650.14         17.6548
   650.28         17.6992
   650.42         17.7327
   650.56         17.7497
   650.70         17.7483
   650.84         17.7290
   650.98         17.6947
   651.12         17.6504
   651.26         17.6038
   651.40         17.5630
   651.54         17.5359
   651.68         17.5289
   651.82         17.5442
   651.96         17.5802
   652.10         17.6305
   652.24         17.6857
   652.38         17.7376
   652.52         17.7806
   652.66         17.8112
   652.80         17.8269
   652.94         17.8270
   653.08         17.8135
   653.22         17.7908
   653.36         17.7635
   653.50         17.7352
   653.64         17.7070
   653.78         17.6782
   653.92         17.6464
   654.06         17.6067
   654.20         17.5545
   654.34         17.4846
   654.48         17.3917
   654.62         17.2709
   654.76         17.1160
   654.90         16.9214
   655.04         16.6844
   655.18         16.4075
   655.32         16.1002
   655.46         15.7795
   655.60         15.4667
   655.74         15.1846
   655.88         14.9550
   656.02         14.7970
   656.16         14.7243
   656.30         14.7427
   656.44         14.8473
   656.58         15.0250
   656.72         15.2571
   656.86         15.5210
   657.00         15.7916
   657.14         16.0437
   657.28         16.2560
   657.42         16.4153
   657.56         16.5190
   657.70         16.5756
   657.84         16.6015
   657.98         16.6149
   658.12         16.6316
   658.26         16.6600
   658.40         16.7030
   658.54         16.7597
   658.68         16.8261
   658.82         16.8962
   658.96         16.9627
   659.10         17.0211
   659.24         17.0702
   659.38         17.1109
   659.52         17.1426
   659.66         17.1642
   659.80         17.1754
   659.94         17.1772
   660.08         17.1710
   660.22         17.1577
   660.36         17.1397
   660.50         17.1201
   660.64         17.1021
   660.78         17.0875
   660.92         17.0766
   661.06         17.0703
   661.20         17.0705
   661.34         17.0785
   661.48         17.0956
   661.62         17.1223
   661.76         17.1557
   661.90         17.1892
   662.04         17.2151
   662.18         17.2271
   662.32         17.2219
   662.46         17.2002
   662.60         17.1651
   662.74         17.1206
   662.88         17.0723
   663.02         17.0259
   663.16         16.9836
   663.30         16.9434
   663.44         16.9020
   663.58         16.8568
   663.72         16.8068
   663.86         16.7519
   664.00         16.6928
   664.14         16.6307
   664.28         16.5661
   664.42         16.4998
   664.56         16.4346
   664.70         16.3753
   664.84         16.3272
   664.98         16.2951
   665.12         16.2803
   665.26         16.2799
   665.40         16.2876
   665.54         16.2946
   665.68         16.2915
   665.82         16.2700
   665.96         16.2256
   666.10         16.1587
   666.24         16.0715
   666.38         15.9654
   666.52         15.8413
   666.66         15.7031
   666.80         15.5587
   666.94         15.4192
   667.08         15.2973
   667.22         15.2044
   667.36         15.1480
   667.50         15.1302
   667.64         15.1482
   667.78         15.1944
   667.92         15.2612
   668.06         15.3421
   668.20         15.4305
   668.34         15.5203
   668.48         15.6058
   668.62         15.6816
   668.76         15.7424
   668.90         15.7840
   669.04         15.8050
   669.18         15.8090
   669.32         15.8034
   669.46         15.7953
   669.60         15.7902
   669.74         15.7902
   669.88         15.7946
   670.02         15.8013
   670.16         15.8087
   670.30         15.8159
   670.44         15.8229
   670.58         15.8289
   670.72         15.8323
   670.86         15.8315
   671.00         15.8266
   671.14         15.8193
   671.28         15.8110
   671.42         15.8025
   671.56         15.7941
   671.70         15.7843
   671.84         15.7703
   671.98         15.7498
   672.12         15.7232
   672.26         15.6933
   672.40         15.6636
   672.54         15.6355
   672.68         15.6094
   672.82         15.5853
   672.96         15.5650
   673.10         15.5514
   673.24         15.5474
   673.38         15.5544
   673.52         15.5732
   673.66         15.6017
   673.80         15.6344
   673.94         15.6629
   674.08         15.6799
   674.22         15.6806
   674.36         15.6635
   674.50         15.6315
   674.64         15.5896
   674.78         15.5416
   674.92         15.4885
   675.06         15.4299
   675.20         15.3669
   675.34         15.3033
   675.48         15.2447
   675.62         15.1966
   675.76         15.1617
   675.90         15.1406
   676.04         15.1325
   676.18         15.1341
   676.32         15.1399
   676.46         15.1460
   676.60         15.1516
   676.74         15.1573
   676.88         15.1631
   677.02         15.1674
   677.16         15.1676
   677.30         15.1606
   677.44         15.1454
   677.58         15.1243
   677.72         15.1008
   677.86         15.0777
   678.00         15.0562
   678.14         15.0365
   678.28         15.0184
   678.42         15.0025
   678.56         14.9891
   678.70         14.9774
   678.84         14.9661
   678.98         14.9558
   679.12         14.9490
   679.26         14.9478
   679.40         14.9533
   679.54         14.9656
   679.68         14.9826
   679.82         15.0012
   679.96         15.0174
   680.10         15.0270
   680.24         15.0271
   680.38         15.0172
   680.52         14.9989
   680.66         14.9740
   680.80         14.9438
   680.94         14.9107
   681.08         14.8782
   681.22         14.8484
   681.36         14.8231
   681.50         14.8041
   681.64         14.7942
   681.78         14.7948
   681.92         14.8040
   682.06         14.8161
   682.20         14.8235
   682.34         14.8199
   682.48         14.8027
   682.62         14.7745
   682.76         14.7420
   682.90         14.7137
   683.04         14.6961
   683.18         14.6916
   683.32         14.6977
   683.46         14.7111
   683.60         14.7315
   683.74         14.7599
   683.88         14.7962
   684.02         14.8389
   684.16         14.8851
   684.30         14.9297
   684.44         14.9663
   684.58         14.9875
   684.72         14.9884
   684.86         14.9677
   685.00         14.9276
   685.14         14.8715
   685.28         14.8026
   685.42         14.7195
   685.56         14.6139
   685.70         14.4717
   685.84         14.2800
   685.98         14.0323
   686.12         13.7322
   686.26         13.3918
   686.40         13.0282
   686.54         12.6609
   686.68         12.3101
   686.82         11.9965
   686.96         11.7389
   687.10         11.5534
   687.24         11.4507
   687.38         11.4340
   687.52         11.4983
   687.66         11.6315
   687.80         11.8149
   687.94         12.0237
   688.08         12.2299
   688.22         12.4090
   688.36         12.5450
   688.50         12.6314
   688.64         12.6707
   688.78         12.6714
   688.92         12.6464
   689.06         12.6093
   689.20         12.5711
   689.34         12.5392
   689.48         12.5183
   689.62         12.5114
   689.76         12.5196
   689.90         12.5426
   690.04         12.5780
   690.18         12.6214
   690.32         12.6692
   690.46         12.7182
   690.60         12.7653
   690.74         12.8094
   690.88         12.8507
   691.02         12.8910
   691.16         12.9326
   691.30         12.9779
   691.44         13.0292
   691.58         13.0882
   691.72         13.1539
   691.86         13.2217
   692.00         13.2861
   692.14         13.3424
   692.28         13.3879
   692.42         13.4219
   692.56         13.4438
   692.70         13.4506
   692.84         13.4405
   692.98         13.4158
   693.12         13.3808
   693.26         13.3399
   693.40         13.2965
   693.54         13.2544
   693.68         13.2166
   693.82         13.1861
   693.96         13.1665
   694.10         13.1624
   694.24         13.1749
   694.38         13.2002
   694.52         13.2328
   694.66         13.2687
   694.80         13.3061
   694.94         13.3435
   695.08         13.3801
   695.22         13.4147
   695.36         13.4479
   695.50         13.4836
   695.64         13.5269
   695.78         13.5811
   695.92         13.6460
   696.06         13.7195
   696.20         13.7987
   696.34         13.8809
   696.48         13.9637
   696.62         14.0435
   696.76         14.1154
   696.90         14.1739
   697.04         14.2149
   697.18         14.2362
   697.32         14.2371
   697.46         14.2172
   697.60         14.1765
   697.74         14.1171
   697.88         14.0437
   698.02         13.9607
   698.16         13.8709
   698.30         13.7770
   698.44         13.6836
   698.58         13.5963
   698.72         13.5200
   698.86         13.4582
   699.00         13.4125
   699.14         13.3825
   699.28         13.3657
   699.42         13.3594
   699.56         13.3612
   699.70         13.3683
   699.84         13.3774
   699.98         13.3851
   700.12         13.3876
   700.26         13.3807
   700.40         13.3624
   700.54         13.3318
   700.68         13.2898
   700.82         13.2416
   700.96         13.1941
   701.10         13.1519
   701.24         13.1138
   701.38         13.0762
   701.52         13.0371
   701.66         12.9970
   701.80         12.9585
   701.94         12.9257
   702.08         12.9032
   702.22         12.8943
   702.36         12.8998
   702.50         12.9185
   702.64         12.9470
   702.78         12.9824
   702.92         13.0236
   703.06         13.0716
   703.20         13.1276
   703.34         13.1911
   703.48         13.2577
   703.62         13.3193
   703.76         13.3673
   703.90         13.3965
   704.04         13.4072
   704.18         13.4022
   704.32         13.3844
   704.46         13.3565
   704.60         13.3230
   704.74         13.2888
   704.88         13.2559
   705.02         13.2229
   705.16         13.1856
   705.30         13.1401
   705.44         13.0851
   705.58         13.0223
   705.72         12.9542
   705.86         12.8841
   706.00         12.8150
   706.14         12.7514
   706.28         12.6984
   706.42         12.6598
   706.56         12.6374
   706.70         12.6313
   706.84         12.6403
   706.98         12.6635
   707.12         12.7008
   707.26         12.7512
   707.40         12.8097
   707.54         12.8679
   707.68         12.9190
   707.82         12.9605
   707.96         12.9938
   708.10         13.0219
   708.24         13.0477
   708.38         13.0735
   708.52         13.0982
   708.66         13.1179
   708.80         13.1283
   708.94         13.1243
   709.08         13.1011
   709.22         13.0570
   709.36         12.9942
   709.50         12.9183
   709.64         12.8357
   709.78         12.7522
   709.92         12.6714
   710.06         12.5978
   710.20         12.5382
   710.34         12.4994
   710.48         12.4857
   710.62         12.4973
   710.76         12.5321
   710.90         12.5853
   711.04         12.6483
   711.18         12.7112
   711.32         12.7659
   711.46         12.8076
   711.60         12.8337
   711.74         12.8442
   711.88         12.8409
   712.02         12.8284
   712.16         12.8144
   712.30         12.8060
   712.44         12.8091
   712.58         12.8284
   712.72         12.8658
   712.86         12.9185
   713.00         12.9790
   713.14         13.0383
   713.28         13.0886
   713.42         13.1237
   713.56         13.1387
   713.70         13.1320
   713.84         13.1068
   713.98         13.0694
   714.12         13.0266
   714.26         12.9835
   714.40         12.9445
   714.54         12.9143
   714.68         12.8964
   714.82         12.8899
   714.96         12.8888
   715.10         12.8868
   715.24         12.8778
   715.38         12.8564
   715.52         12.8172
   715.66         12.7568
   715.80         12.6745
   715.94         12.5717
   716.08         12.4513
   716.22         12.3180
   716.36         12.1792
   716.50         12.0426
   716.64         11.9142
   716.78         11.7973
   716.92         11.6937
   717.06         11.6053
   717.20         11.5316
   717.34         11.4675
   717.48         11.4062
   717.62         11.3461
   717.76         11.2892
   717.90         11.2355
   718.04         11.1817
   718.18         11.1259
   718.32         11.0694
   718.46         11.0150
   718.60         10.9641
   718.74         10.9166
   718.88         10.8720
   719.02         10.8308
   719.16         10.7942
   719.30         10.7650
   719.44         10.7465
   719.58         10.7415
   719.72         10.7536
   719.86         10.7874
   720.00         10.8492
   720.14         10.9453
   720.28         11.0779
   720.42         11.2400
   720.56         11.4175
   720.70         11.5976
   720.84         11.7709
   720.98         11.9295
   721.12         12.0652
   721.26         12.1709
   721.40         12.2447
   721.54         12.2904
   721.68         12.3167
   721.82         12.3320
   721.96         12.3403
   722.10         12.3400
   722.24         12.3273
   722.38         12.3004
   722.52         12.2606
   722.66         12.2079
   722.80         12.1375
   722.94         12.0436
   723.08         11.9252
   723.22         11.7867
   723.36         11.6378
   723.50         11.4897
   723.64         11.3522
   723.78         11.2336
   723.92         11.1410
   724.06         11.0781
   724.20         11.0454
   724.34         11.0401
   724.48         11.0553
   724.62         11.0816
   724.76         11.1111
   724.90         11.1401
   725.04         11.1672
   725.18         11.1899
   725.32         11.2034
   725.46         11.2062
   725.60         11.2041
   725.74         11.2051
   725.88         11.2149
   726.02         11.2363
   726.16         11.2681
   726.30         11.3054
   726.44         11.3407
   726.58         11.3655
   726.72         11.3723
   726.86         11.3587
   727.00         11.3278
   727.14         11.2869
   727.28         11.2451
   727.42         11.2108
   727.56         11.1888
   727.70         11.1811
   727.84         11.1862
   727.98         11.1990
   728.12         11.2130
   728.26         11.2214
   728.40         11.2168
   728.54         11.1953
   728.68         11.1569
   728.82         11.1043
   728.96         11.0416
   729.10         10.9736
   729.24         10.9057
   729.38         10.8449
   729.52         10.7993
   729.66         10.7750
   729.80         10.7714
   729.94         10.7812
   730.08         10.7945
   730.22         10.8045
   730.36         10.8097
   730.50         10.8112
   730.64         10.8113
   730.78         10.8143
   730.92         10.8265
   731.06         10.8533
   731.20         10.8962
   731.34         10.9525
   731.48         11.0170
   731.62         11.0839
   731.76         11.1479
   731.90         11.2046
   732.04         11.2511
   732.18         11.2841
   732.32         11.3002
   732.46         11.2965
   732.60         11.2729
   732.74         11.2335
   732.88         11.1849
   733.02         11.1338
   733.16         11.0833
   733.30         11.0353
   733.44         10.9937
   733.58         10.9616
   733.72         10.9400
   733.86         10.9271
   734.00         10.9207
   734.14         10.9194
   734.28         10.9230
   734.42         10.9312
   734.56         10.9437
   734.70         10.9604
   734.84         10.9809
   734.98         11.0043
   735.12         11.0288
   735.26         11.0533
   735.40         11.0762
   735.54         11.0942
   735.68         11.1021
   735.82         11.0960
   735.96         11.0747
   736.10         11.0390
   736.24         10.9890
   736.38         10.9259
   736.52         10.8525
   736.66         10.7719
   736.80         10.6874
   736.94         10.6032
   737.08         10.5230
   737.22         10.4502
   737.36         10.3879
   737.50         10.3382
   737.64         10.3018
   737.78         10.2772
   737.92         10.2615
   738.06         10.2503
   738.20         10.2387
   738.34         10.2222
   738.48         10.1993
   738.62         10.1720
   738.76         10.1432
   738.90         10.1169
   739.04         10.0979
   739.18         10.0892
   739.32         10.0907
   739.46         10.1011
   739.60         10.1179
   739.74         10.1371
   739.88         10.1535
   740.02         10.1611
   740.16         10.1550
   740.30         10.1323
   740.44         10.0944
   740.58         10.0467
   740.72         9.9981
   740.86         9.9586
   741.00         9.9373
   741.14         9.9413
   741.28         9.9737
   741.42         10.0312
   741.56         10.1054
   741.70         10.1846
   741.84         10.2573
   741.98         10.3161
   742.12         10.3576
   742.26         10.3815
   742.40         10.3906
   742.54         10.3901
   742.68         10.3859
   742.82         10.3825
   742.96         10.3825
   743.10         10.3859
   743.24         10.3901
   743.38         10.3906
   743.52         10.3815
   743.66         10.3576
   743.80         10.3161
   743.94         10.2573
   744.08         10.1846
   744.22         10.1054
