# File SAO12096
# Wavelength [nm]    Normalized Amplitude
   349.70         73.3256
   349.84         74.7378
   349.98         75.9267
   350.12         76.8208
   350.26         77.3124
   350.40         77.3782
   350.54         77.1960
   350.68         76.9888
   350.82         76.8748
   350.96         76.8576
   351.10         76.8680
   351.24         76.8576
   351.38         76.8748
   351.52         76.9888
   351.66         77.1960
   351.80         77.3782
   351.94         77.3124
   352.08         76.8208
   352.22         75.9267
   352.36         74.7378
   352.50         73.3256
   352.64         71.8326
   352.78         70.4692
   352.92         69.4588
   353.06         69.0384
   353.20         69.3718
   353.34         70.4595
   353.48         72.1716
   353.62         74.3396
   353.76         76.7665
   353.90         79.1812
   354.04         81.2579
   354.18         82.6823
   354.32         83.2644
   354.46         83.0074
   354.60         82.0565
   354.74         80.6506
   354.88         79.0705
   355.02         77.5863
   355.16         76.4390
   355.30         75.7902
   355.44         75.6710
   355.58         75.9823
   355.72         76.5158
   355.86         77.0735
   356.00         77.5395
   356.14         77.8234
   356.28         77.8547
   356.42         77.6403
   356.56         77.2932
   356.70         76.9743
   356.84         76.8054
   356.98         76.8454
   357.12         77.0865
   357.26         77.4356
   357.40         77.7398
   357.54         77.8795
   357.68         77.8944
   357.82         77.8471
   357.96         77.6743
   358.10         77.3454
   358.24         76.9442
   358.38         76.5863
   358.52         76.3692
   358.66         76.3923
   358.80         76.7680
   358.94         77.5456
   359.08         78.6457
   359.22         79.8786
   359.36         80.9772
   359.50         81.7312
   359.64         82.1141
   359.78         82.2309
   359.92         82.1815
   360.06         82.0009
   360.20         81.7020
   360.34         81.3019
   360.48         80.7685
   360.62         80.0784
   360.76         79.2778
   360.90         78.4198
   361.04         77.5402
   361.18         76.6566
   361.32         75.7845
   361.46         74.9169
   361.60         73.9756
   361.74         72.9100
   361.88         71.7909
   362.02         70.7517
   362.16         69.9592
   362.30         69.5629
   362.44         69.5981
   362.58         69.9657
   362.72         70.5310
   362.86         71.2269
   363.00         72.0431
   363.14         72.9696
   363.28         73.9309
   363.42         74.7951
   363.56         75.4721
   363.70         75.9462
   363.84         76.2483
   363.98         76.4506
   364.12         76.6105
   364.26         76.7272
   364.40         76.8007
   364.54         76.8473
   364.68         76.8655
   364.82         76.8578
   364.96         76.8337
   365.10         76.7830
   365.24         76.7034
   365.38         76.6345
   365.52         76.6461
   365.66         76.8303
   365.80         77.3009
   365.94         78.1335
   366.08         79.3267
   366.22         80.8366
   366.36         82.5869
   366.50         84.4512
   366.64         86.2666
   366.78         87.8766
   366.92         89.1919
   367.06         90.2289
   367.20         91.0563
   367.34         91.7219
   367.48         92.2735
   367.62         92.7959
   367.76         93.3722
   367.90         94.0637
   368.04         94.9193
   368.18         95.9633
   368.32         97.1725
   368.46         98.4627
   368.60         99.7369
   368.74         100.9845
   368.88         102.2880
   369.02         103.7230
   369.16         105.3005
   369.30         106.9977
   369.44         108.8238
   369.58         110.8466
   369.72         113.1181
   369.86         115.5680
   370.00         118.0041
   370.14         120.2640
   370.28         122.3404
   370.42         124.3326
   370.56         126.3588
   370.70         128.4937
   370.84         130.6923
   370.98         132.7950
   371.12         134.6803
   371.26         136.3845
   371.40         138.0439
   371.54         139.7964
   371.68         141.7766
   371.82         144.1431
   371.96         147.0048
   372.10         150.2985
   372.24         153.7595
   372.38         157.0213
   372.52         159.8141
   372.66         162.1427
   372.80         164.3045
   372.94         166.7068
   373.08         169.6366
   373.22         173.1842
   373.36         177.2469
   373.50         181.5082
   373.64         185.5369
   373.78         188.9649
   373.92         191.5540
   374.06         193.2060
   374.20         193.9668
   374.34         194.0418
   374.48         193.7549
   374.62         193.4296
   374.76         193.3715
   374.90         193.9537
   375.04         195.6026
   375.18         198.6272
   375.32         203.0654
   375.46         208.6116
   375.60         214.5988
   375.74         220.0831
   375.88         224.0378
   376.02         225.6363
   376.16         224.5301
   376.30         221.0119
   376.44         215.9543
   376.58         210.5468
   376.72         206.0177
   376.86         203.3944
   377.00         203.3537
   377.14         206.1875
   377.28         211.8858
   377.42         220.1975
   377.56         230.6026
   377.70         242.3407
   377.84         254.5074
   377.98         266.1565
   378.12         276.3010
   378.26         283.9495
   378.40         288.2851
   378.54         288.8430
   378.68         285.6170
   378.82         279.0709
   378.96         270.0287
   379.10         259.5263
   379.24         248.7248
   379.38         238.8674
   379.52         231.1139
   379.66         226.4013
   379.80         225.3976
   379.94         228.3753
   380.08         235.1107
   380.22         244.9694
   380.36         257.0697
   380.50         270.3767
   380.64         283.7800
   380.78         296.1947
   380.92         306.7536
   381.06         314.9172
   381.20         320.4802
   381.34         323.5382
   381.48         324.3693
   381.62         323.2796
   381.76         320.4921
   381.90         316.1103
   382.04         310.1197
   382.18         302.3941
   382.32         292.8026
   382.46         281.3559
   382.60         268.3231
   382.74         254.3077
   382.88         240.1897
   383.02         227.0152
   383.16         215.9244
   383.30         208.0049
   383.44         204.0795
   383.58         204.5850
   383.72         209.5536
   383.86         218.6410
   384.00         231.1480
   384.14         246.0959
   384.28         262.3626
   384.42         278.8035
   384.56         294.3298
   384.70         308.0178
   384.84         319.2639
   384.98         327.8861
   385.12         334.1334
   385.26         338.4971
   385.40         341.4884
   385.54         343.6131
   385.68         345.3841
   385.82         347.2124
   385.96         349.2618
   386.10         351.4529
   386.24         353.5732
   386.38         355.3786
   386.52         356.6207
   386.66         357.0412
   386.80         356.3849
   386.94         354.4142
   387.08         350.9094
   387.22         345.6486
   387.36         338.4545
   387.50         329.2441
   387.64         318.0166
   387.78         304.9066
   387.92         290.2748
   388.06         274.7816
   388.20         259.3399
   388.34         244.9243
   388.48         232.4484
   388.62         222.7328
   388.76         216.4780
   388.90         214.1939
   389.04         216.0809
   389.18         221.9518
   389.32         231.2711
   389.46         243.2760
   389.60         257.0673
   389.74         271.6540
   389.88         286.0183
   390.02         299.2242
   390.16         310.5724
   390.30         319.7213
   390.44         326.6710
   390.58         331.6152
   390.72         334.8157
   390.86         336.5993
   391.00         337.3886
   391.14         337.6598
   391.28         337.8113
   391.42         338.0660
   391.56         338.4280
   391.70         338.6607
   391.84         338.2742
   391.98         336.5321
   392.12         332.6140
   392.26         325.9045
   392.40         316.2545
   392.54         304.0849
   392.68         290.3084
   392.82         276.1587
   392.96         262.9734
   393.10         251.9794
   393.24         244.1747
   393.38         240.2994
   393.52         240.7469
   393.66         245.4314
   393.80         253.7614
   393.94         264.7511
   394.08         277.2214
   394.22         289.9510
   394.36         301.7697
   394.50         311.6830
   394.64         319.0540
   394.78         323.7260
   394.92         325.9089
   395.06         325.9267
   395.20         323.9699
   395.34         319.9391
   395.48         313.4880
   395.62         304.2375
   395.76         292.0479
   395.90         277.1951
   396.04         260.3737
   396.18         242.5769
   396.32         224.9979
   396.46         208.9470
   396.60         195.7019
   396.74         186.3187
   396.88         181.4518
   397.02         181.3260
   397.16         185.8184
   397.30         194.4927
   397.44         206.6038
   397.58         221.1192
   397.72         236.8342
   397.86         252.5541
   398.00         267.2789
   398.14         280.3475
   398.28         291.4776
   398.42         300.7149
   398.56         308.3009
   398.70         314.5346
   398.84         319.6973
   398.98         324.0236
   399.12         327.6770
   399.26         330.7368
   399.40         333.2282
   399.54         335.1784
   399.68         336.6595
   399.82         337.7507
   399.96         338.4897
   400.10         338.8673
   400.24         338.8590
   400.38         338.5070
   400.52         337.9348
   400.66         337.2647
   400.80         336.5525
   400.94         335.8051
   401.08         335.0425
   401.22         334.3076
   401.36         333.6148
   401.50         332.9256
   401.64         332.1811
   401.78         331.3153
   401.92         330.2687
   402.06         329.0217
   402.20         327.6097
   402.34         326.1027
   402.48         324.5945
   402.62         323.1970
   402.76         322.0175
   402.90         321.1530
   403.04         320.6817
   403.18         320.6412
   403.32         321.0000
   403.46         321.6355
   403.60         322.3679
   403.74         323.0239
   403.88         323.4715
   404.02         323.6177
   404.16         323.3861
   404.30         322.7204
   404.44         321.6216
   404.58         320.1876
   404.72         318.5872
   404.86         316.9799
   405.00         315.4630
   405.14         314.0706
   405.28         312.8186
   405.42         311.7378
   405.56         310.8662
   405.70         310.2193
   405.84         309.7683
   405.98         309.4719
   406.12         309.2938
   406.26         309.1867
   406.40         309.0829
   406.54         308.8900
   406.68         308.5250
   406.82         307.9432
   406.96         307.1744
   407.10         306.3078
   407.24         305.4088
   407.38         304.4735
   407.52         303.4637
   407.66         302.3825
   407.80         301.2566
   407.94         300.0921
   408.08         298.8449
   408.22         297.3702
   408.36         295.4116
   408.50         292.6252
   408.64         288.6228
   408.78         282.9837
   408.92         275.3564
   409.06         265.6592
   409.20         254.1748
   409.34         241.5117
   409.48         228.4967
   409.62         216.0596
   409.76         205.1288
   409.90         196.5584
   410.04         191.0556
   410.18         189.0978
   410.32         190.8602
   410.46         196.1533
   410.60         204.4588
   410.74         215.0092
   410.88         226.8553
   411.02         238.9979
   411.16         250.5423
   411.30         260.8023
   411.44         269.3578
   411.58         276.0934
   411.72         281.1623
   411.86         284.8569
   412.00         287.5020
   412.14         289.4281
   412.28         290.9453
   412.42         292.3087
   412.56         293.7117
   412.70         295.2817
   412.84         297.0680
   412.98         299.0433
   413.12         301.1239
   413.26         303.1965
   413.40         305.1345
   413.54         306.8155
   413.68         308.1497
   413.82         309.0958
   413.96         309.6615
   414.10         309.8914
   414.24         309.8289
   414.38         309.4942
   414.52         308.9045
   414.66         308.0971
   414.80         307.1113
   414.94         305.9578
   415.08         304.6334
   415.22         303.1851
   415.36         301.7209
   415.50         300.3484
   415.64         299.1512
   415.78         298.1701
   415.92         297.3624
   416.06         296.6122
   416.20         295.7872
   416.34         294.7813
   416.48         293.5113
   416.62         291.9096
   416.76         289.9508
   416.90         287.6807
   417.04         285.2295
   417.18         282.7949
   417.32         280.5830
   417.46         278.7663
   417.60         277.4955
   417.74         276.9080
   417.88         277.0836
   418.02         277.9736
   418.16         279.3985
   418.30         281.1135
   418.44         282.8460
   418.58         284.3506
   418.72         285.4856
   418.86         286.2148
   419.00         286.5466
   419.14         286.4931
   419.28         286.0942
   419.42         285.4482
   419.56         284.6710
   419.70         283.8477
   419.84         283.0485
   419.98         282.3548
   420.12         281.8551
   420.26         281.6139
   420.40         281.6544
   420.54         281.9598
   420.68         282.4695
   420.82         283.1033
   420.96         283.7758
   421.10         284.3855
   421.24         284.8263
   421.38         284.9980
   421.52         284.8127
   421.66         284.2328
   421.80         283.3177
   421.94         282.1903
   422.08         280.9658
   422.22         279.7243
   422.36         278.5394
   422.50         277.5048
   422.64         276.7062
   422.78         276.1859
   422.92         275.9448
   423.06         275.9799
   423.20         276.2730
   423.34         276.7523
   423.48         277.3192
   423.62         277.8762
   423.76         278.3393
   423.90         278.6671
   424.04         278.8842
   424.18         279.0665
   424.32         279.2957
   424.46         279.6108
   424.60         279.9771
   424.74         280.3144
   424.88         280.5511
   425.02         280.6578
   425.16         280.6497
   425.30         280.5677
   425.44         280.4448
   425.58         280.2951
   425.72         280.1167
   425.86         279.8617
   426.00         279.4654
   426.14         278.9083
   426.28         278.2273
   426.42         277.4961
   426.56         276.7876
   426.70         276.1544
   426.84         275.6202
   426.98         275.1657
   427.12         274.7427
   427.26         274.3026
   427.40         273.8243
   427.54         273.3233
   427.68         272.8007
   427.82         272.2050
   427.96         271.4577
   428.10         270.4889
   428.24         269.2838
   428.38         267.8908
   428.52         266.3945
   428.66         264.9037
   428.80         263.5145
   428.94         262.2712
   429.08         261.1708
   429.22         260.1842
   429.36         259.2839
   429.50         258.4496
   429.64         257.6835
   429.78         257.0417
   429.92         256.6133
   430.06         256.4475
   430.20         256.5033
   430.34         256.6883
   430.48         256.9442
   430.62         257.2657
   430.76         257.6352
   430.90         257.9958
   431.04         258.2750
   431.18         258.4043
   431.32         258.3183
   431.46         257.9760
   431.60         257.3864
   431.74         256.5860
   431.88         255.5936
   432.02         254.3929
   432.16         252.9276
   432.30         251.0744
   432.44         248.5916
   432.58         245.1055
   432.72         240.2096
   432.86         233.6357
   433.00         225.3771
   433.14         215.7068
   433.28         205.1418
   433.42         194.3806
   433.56         184.2366
   433.70         175.5352
   433.84         168.9766
   433.98         165.0571
   434.12         164.0708
   434.26         166.0974
   434.40         170.9654
   434.54         178.2620
   434.68         187.3825
   434.82         197.5954
   434.96         208.1276
   435.10         218.2920
   435.24         227.6092
   435.38         235.8282
   435.52         242.8630
   435.66         248.7461
   435.80         253.6076
   435.94         257.6209
   436.08         260.9147
   436.22         263.5379
   436.36         265.5134
   436.50         266.8973
   436.64         267.7920
   436.78         268.3119
   436.92         268.5344
   437.06         268.4769
   437.20         268.1079
   437.34         267.3957
   437.48         266.3778
   437.62         265.1781
   437.76         263.9536
   437.90         262.8234
   438.04         261.8295
   438.18         260.9687
   438.32         260.2498
   438.46         259.7019
   438.60         259.3308
   438.74         259.0922
   438.88         258.9393
   439.02         258.8599
   439.16         258.8317
   439.30         258.7856
   439.44         258.6478
   439.58         258.3811
   439.72         257.9722
   439.86         257.4275
   440.00         256.7999
   440.14         256.1634
   440.28         255.5249
   440.42         254.7795
   440.56         253.7786
   440.70         252.4355
   440.84         250.7701
   440.98         248.8942
   441.12         246.9750
   441.26         245.1763
   441.40         243.6151
   441.54         242.3692
   441.68         241.4808
   441.82         240.9449
   441.96         240.7144
   442.10         240.7119
   442.24         240.8363
   442.38         240.9795
   442.52         241.0680
   442.66         241.0834
   442.80         241.0320
   442.94         240.9160
   443.08         240.7438
   443.22         240.5625
   443.36         240.4522
   443.50         240.4767
   443.64         240.6564
   443.78         240.9743
   443.92         241.3987
   444.06         241.9118
   444.20         242.5224
   444.34         243.2494
   444.48         244.1050
   444.62         245.0850
   444.76         246.1799
   444.90         247.3908
   445.04         248.7079
   445.18         250.0815
   445.32         251.4272
   445.46         252.6247
   445.60         253.5227
   445.74         254.0083
   445.88         254.0695
   446.02         253.7784
   446.16         253.2397
   446.30         252.5619
   446.44         251.8488
   446.58         251.1895
   446.72         250.6213
   446.86         250.1173
   447.00         249.6338
   447.14         249.1667
   447.28         248.7400
   447.42         248.3818
   447.56         248.0978
   447.70         247.8342
   447.84         247.5238
   447.98         247.1510
   448.12         246.7440
   448.26         246.3647
   448.40         246.1089
   448.54         246.0736
   448.68         246.3084
   448.82         246.7913
   448.96         247.4497
   449.10         248.2104
   449.24         249.0272
   449.38         249.8606
   449.52         250.6822
   449.66         251.4916
   449.80         252.2899
   449.94         253.0521
   450.08         253.7337
   450.22         254.2666
   450.36         254.5715
   450.50         254.6061
   450.64         254.3697
   450.78         253.8680
   450.92         253.1064
   451.06         252.1279
   451.20         251.0196
   451.34         249.8700
   451.48         248.7392
   451.62         247.6861
   451.76         246.7973
   451.90         246.1159
   452.04         245.5929
   452.18         245.1587
   452.32         244.7773
   452.46         244.4453
   452.60         244.1862
   452.74         243.9982
   452.88         243.8312
   453.02         243.6413
   453.16         243.4153
   453.30         243.1570
   453.44         242.8566
   453.58         242.4871
   453.72         242.0180
   453.86         241.4106
   454.00         240.6223
   454.14         239.6184
   454.28         238.4101
   454.42         237.0667
   454.56         235.6756
   454.70         234.3572
   454.84         233.2764
   454.98         232.5790
   455.12         232.3371
   455.26         232.5567
   455.40         233.2062
   455.54         234.2490
   455.68         235.6509
   455.82         237.3443
   455.96         239.2133
   456.10         241.1200
   456.24         242.9398
   456.38         244.5822
   456.52         245.9883
   456.66         247.1052
   456.80         247.8832
   456.94         248.2948
   457.08         248.3278
   457.22         247.9822
   457.36         247.2870
   457.50         246.2890
   457.64         245.0404
   457.78         243.6297
   457.92         242.2046
   458.06         240.9332
   458.20         239.9417
   458.34         239.2924
   458.48         238.9945
   458.62         239.0283
   458.76         239.3732
   458.90         240.0030
   459.04         240.8630
   459.18         241.8739
   459.32         242.9442
   459.46         243.9854
   459.60         244.9392
   459.74         245.7969
   459.88         246.5906
   460.02         247.3511
   460.16         248.0766
   460.30         248.7373
   460.44         249.2935
   460.58         249.7072
   460.72         249.9504
   460.86         250.0060
   461.00         249.8695
   461.14         249.5573
   461.28         249.1301
   461.42         248.6836
   461.56         248.2905
   461.70         247.9880
   461.84         247.8153
   461.98         247.8068
   462.12         247.9521
   462.26         248.2063
   462.40         248.5267
   462.54         248.8748
   462.68         249.2073
   462.82         249.4777
   462.96         249.6420
   463.10         249.6909
   463.24         249.6783
   463.38         249.7001
   463.52         249.8360
   463.66         250.1146
   463.80         250.5353
   463.94         251.0846
   464.08         251.7152
   464.22         252.3314
   464.36         252.8204
   464.50         253.0866
   464.64         253.0623
   464.78         252.7262
   464.92         252.1183
   465.06         251.3080
   465.20         250.3454
   465.34         249.2504
   465.48         248.0428
   465.62         246.7898
   465.76         245.6096
   465.90         244.6152
   466.04         243.8799
   466.18         243.4309
   466.32         243.2647
   466.46         243.3724
   466.60         243.7334
   466.74         244.3104
   466.88         245.0454
   467.02         245.8759
   467.16         246.7640
   467.30         247.6874
   467.44         248.6047
   467.58         249.4399
   467.72         250.0998
   467.86         250.5050
   468.00         250.6050
   468.14         250.3977
   468.28         249.9209
   468.42         249.2140
   468.56         248.3202
   468.70         247.3053
   468.84         246.2318
   468.98         245.1396
   469.12         244.0601
   469.26         243.0208
   469.40         242.0411
   469.54         241.1410
   469.68         240.3606
   469.82         239.7506
   469.96         239.3625
   470.10         239.2256
   470.24         239.3200
   470.38         239.6014
   470.52         240.0447
   470.66         240.6535
   470.80         241.4307
   470.94         242.3484
   471.08         243.3350
   471.22         244.2790
   471.36         245.0481
   471.50         245.5282
   471.64         245.6489
   471.78         245.3807
   471.92         244.7235
   472.06         243.7207
   472.20         242.4604
   472.34         241.0574
   472.48         239.6404
   472.62         238.3367
   472.76         237.2372
   472.90         236.4108
   473.04         235.9314
   473.18         235.8416
   473.32         236.1124
   473.46         236.6363
   473.60         237.2716
   473.74         237.8832
   473.88         238.3708
   474.02         238.6815
   474.16         238.7937
   474.30         238.6940
   474.44         238.3826
   474.58         237.8939
   474.72         237.3060
   474.86         236.7170
   475.00         236.2096
   475.14         235.8084
   475.28         235.4822
   475.42         235.1918
   475.56         234.9150
   475.70         234.6295
   475.84         234.2935
   475.98         233.8639
   476.12         233.3252
   476.26         232.6938
   476.40         231.9927
   476.54         231.2420
   476.68         230.4627
   476.82         229.6897
   476.96         228.9782
   477.10         228.3945
   477.24         227.9955
   477.38         227.8007
   477.52         227.7902
   477.66         227.9154
   477.80         228.1199
   477.94         228.3817
   478.08         228.7130
   478.22         229.1094
   478.36         229.5306
   478.50         229.9181
   478.64         230.2271
   478.78         230.4389
   478.92         230.5459
   479.06         230.5387
   479.20         230.4076
   479.34         230.1551
   479.48         229.8028
   479.62         229.3792
   479.76         228.9101
   479.90         228.4036
   480.04         227.8518
   480.18         227.2647
   480.32         226.6753
   480.46         226.1323
   480.60         225.6884
   480.74         225.3651
   480.88         225.1431
   481.02         224.9876
   481.16         224.8798
   481.30         224.8154
   481.44         224.7807
   481.58         224.7517
   481.72         224.7006
   481.86         224.6160
   482.00         224.4968
   482.14         224.3378
   482.28         224.1435
   482.42         223.9246
   482.56         223.6933
   482.70         223.4783
   482.84         223.3308
   482.98         223.2979
   483.12         223.3855
   483.26         223.5471
   483.40         223.7222
   483.54         223.8599
   483.68         223.9022
   483.82         223.7769
   483.96         223.3908
   484.10         222.6414
   484.24         221.4509
   484.38         219.7650
   484.52         217.5371
   484.66         214.7045
   484.80         211.1924
   484.94         206.9319
   485.08         201.8490
   485.22         195.8701
   485.36         188.9715
   485.50         181.2502
   485.64         172.9492
   485.78         164.4493
   485.92         156.2554
   486.06         148.9214
   486.20         142.9535
   486.34         138.7609
   486.48         136.6212
   486.62         136.6564
   486.76         138.8215
   486.90         142.8967
   487.04         148.5184
   487.18         155.2341
   487.32         162.5421
   487.46         169.9270
   487.60         176.9248
   487.74         183.1899
   487.88         188.5389
   488.02         192.9602
   488.16         196.5585
   488.30         199.4649
   488.44         201.7987
   488.58         203.6666
   488.72         205.1612
   488.86         206.3726
   489.00         207.3823
   489.14         208.2442
   489.28         209.0017
   489.42         209.7054
   489.56         210.4177
   489.70         211.2075
   489.84         212.1150
   489.98         213.1309
   490.12         214.2107
   490.26         215.2947
   490.40         216.3206
   490.54         217.2330
   490.68         218.0060
   490.82         218.6406
   490.96         219.1468
   491.10         219.5397
   491.24         219.8275
   491.38         220.0011
   491.52         220.0184
   491.66         219.8225
   491.80         219.4022
   491.94         218.8248
   492.08         218.2100
   492.22         217.6667
   492.36         217.2509
   492.50         216.9806
   492.64         216.8520
   492.78         216.8365
   492.92         216.9043
   493.06         217.0485
   493.20         217.2719
   493.34         217.5597
   493.48         217.8649
   493.62         218.1232
   493.76         218.2896
   493.90         218.3631
   494.04         218.3799
   494.18         218.3878
   494.32         218.4501
   494.46         218.6424
   494.60         219.0117
   494.74         219.5457
   494.88         220.1629
   495.02         220.7494
   495.16         221.2185
   495.30         221.5319
   495.44         221.6860
   495.58         221.6847
   495.72         221.5265
   495.86         221.2206
   496.00         220.8011
   496.14         220.3156
   496.28         219.8030
   496.42         219.2932
   496.56         218.8127
   496.70         218.3824
   496.84         218.0243
   496.98         217.7648
   497.12         217.6197
   497.26         217.5764
   497.40         217.5890
   497.54         217.5858
   497.68         217.5013
   497.82         217.3072
   497.96         217.0117
   498.10         216.6354
   498.24         216.2065
   498.38         215.7701
   498.52         215.3763
   498.66         215.0594
   498.80         214.8263
   498.94         214.6499
   499.08         214.4597
   499.22         214.1438
   499.36         213.6090
   499.50         212.8268
   499.64         211.8040
   499.78         210.5607
   499.92         209.1412
   500.06         207.6276
   500.20         206.1433
   500.34         204.8372
   500.48         203.8491
   500.62         203.2684
   500.76         203.1100
   500.90         203.3162
   501.04         203.7457
   501.18         204.1940
   501.32         204.4738
   501.46         204.4681
   501.60         204.1459
   501.74         203.5633
   501.88         202.8479
   502.02         202.1712
   502.16         201.6794
   502.30         201.4482
   502.44         201.5153
   502.58         201.9069
   502.72         202.6232
   502.86         203.6087
   503.00         204.7436
   503.14         205.8727
   503.28         206.8340
   503.42         207.4858
   503.56         207.7418
   503.70         207.5798
   503.84         207.0567
   503.98         206.3056
   504.12         205.4730
   504.26         204.6694
   504.40         203.9550
   504.54         203.3426
   504.68         202.8263
   504.82         202.4101
   504.96         202.1115
   505.10         201.9481
   505.24         201.9246
   505.38         202.0255
   505.52         202.2115
   505.66         202.4346
   505.80         202.6498
   505.94         202.8132
   506.08         202.9117
   506.22         202.9713
   506.36         203.0020
   506.50         202.9798
   506.64         202.8852
   506.78         202.7226
   506.92         202.5093
   507.06         202.2738
   507.20         202.0597
   507.34         201.9186
   507.48         201.8960
   507.62         202.0119
   507.76         202.2538
   507.90         202.5877
   508.04         202.9636
   508.18         203.3286
   508.32         203.6498
   508.46         203.9141
   508.60         204.1191
   508.74         204.2775
   508.88         204.3949
   509.02         204.4522
   509.16         204.4363
   509.30         204.3589
   509.44         204.2337
   509.58         204.0659
   509.72         203.8683
   509.86         203.6541
   510.00         203.4188
   510.14         203.1471
   510.28         202.8321
   510.42         202.4851
   510.56         202.1357
   510.70         201.8229
   510.84         201.5827
   510.98         201.4343
   511.12         201.3731
   511.26         201.3791
   511.40         201.4278
   511.54         201.4872
   511.68         201.5237
   511.82         201.5211
   511.96         201.4734
   512.10         201.3624
   512.24         201.1607
   512.38         200.8464
   512.52         200.4161
   512.66         199.8940
   512.80         199.3316
   512.94         198.7938
   513.08         198.3390
   513.22         198.0060
   513.36         197.8143
   513.50         197.7697
   513.64         197.8623
   513.78         198.0618
   513.92         198.3139
   514.06         198.5589
   514.20         198.7508
   514.34         198.8534
   514.48         198.8271
   514.62         198.6203
   514.76         198.1907
   514.90         197.5482
   515.04         196.7598
   515.18         195.9087
   515.32         195.0541
   515.46         194.2267
   515.60         193.4533
   515.74         192.7608
   515.88         192.1421
   516.02         191.5408
   516.16         190.8824
   516.30         190.1103
   516.44         189.2001
   516.58         188.1685
   516.72         187.0810
   516.86         186.0343
   517.00         185.1271
   517.14         184.4471
   517.28         184.0628
   517.42         184.0136
   517.56         184.3004
   517.70         184.8778
   517.84         185.6586
   517.98         186.5342
   518.12         187.3992
   518.26         188.1616
   518.40         188.7392
   518.54         189.0630
   518.68         189.1015
   518.82         188.8745
   518.96         188.4381
   519.10         187.8632
   519.24         187.2353
   519.38         186.6482
   519.52         186.1739
   519.66         185.8299
   519.80         185.5840
   519.94         185.3972
   520.08         185.2481
   520.22         185.1308
   520.36         185.0538
   520.50         185.0307
   520.64         185.0682
   520.78         185.1671
   520.92         185.3248
   521.06         185.5336
   521.20         185.7795
   521.34         186.0465
   521.48         186.3291
   521.62         186.6303
   521.76         186.9361
   521.90         187.2012
   522.04         187.3654
   522.18         187.3744
   522.32         187.1893
   522.46         186.8017
   522.60         186.2341
   522.74         185.5156
   522.88         184.6827
   523.02         183.8009
   523.16         182.9616
   523.30         182.2620
   523.44         181.7838
   523.58         181.5739
   523.72         181.6386
   523.86         181.9507
   524.00         182.4617
   524.14         183.1095
   524.28         183.8210
   524.42         184.5194
   524.56         185.1426
   524.70         185.6514
   524.84         186.0128
   524.98         186.1916
   525.12         186.1700
   525.26         185.9547
   525.40         185.5707
   525.54         185.0511
   525.68         184.4155
   525.82         183.6640
   525.96         182.7839
   526.10         181.7553
   526.24         180.5726
   526.38         179.2675
   526.52         177.9024
   526.66         176.5491
   526.80         175.2793
   526.94         174.1611
   527.08         173.2544
   527.22         172.6097
   527.36         172.2601
   527.50         172.2081
   527.64         172.4237
   527.78         172.8556
   527.92         173.4447
   528.06         174.1408
   528.20         174.9064
   528.34         175.7092
   528.48         176.5312
   528.62         177.3697
   528.76         178.2208
   528.90         179.0776
   529.04         179.9276
   529.18         180.7426
   529.32         181.4870
   529.46         182.1229
   529.60         182.5977
   529.74         182.8515
   529.88         182.8428
   530.02         182.5620
   530.16         182.0363
   530.30         181.3347
   530.44         180.5577
   530.58         179.7982
   530.72         179.0978
   530.86         178.4492
   531.00         177.8372
   531.14         177.2741
   531.28         176.7944
   531.42         176.4258
   531.56         176.1751
   531.70         176.0195
   531.84         175.9110
   531.98         175.7907
   532.12         175.6096
   532.26         175.3537
   532.40         175.0509
   532.54         174.7470
   532.68         174.4767
   532.82         174.2523
   532.96         174.0611
   533.10         173.8797
   533.24         173.6982
   533.38         173.5358
   533.52         173.4396
   533.66         173.4651
   533.80         173.6453
   533.94         173.9715
   534.08         174.3930
   534.22         174.8406
   534.36         175.2566
   534.50         175.6084
   534.64         175.8915
   534.78         176.1253
   534.92         176.3329
   535.06         176.5194
   535.20         176.6751
   535.34         176.7863
   535.48         176.8344
   535.62         176.7995
   535.76         176.6686
   535.90         176.4344
   536.04         176.0886
   536.18         175.6284
   536.32         175.0639
   536.46         174.4202
   536.60         173.7325
   536.74         173.0445
   536.88         172.4121
   537.02         171.8855
   537.16         171.4899
   537.30         171.2337
   537.44         171.1197
   537.58         171.1431
   537.72         171.2838
   537.86         171.5099
   538.00         171.7827
   538.14         172.0640
   538.28         172.3237
   538.42         172.5460
   538.56         172.7294
   538.70         172.8712
   538.84         172.9531
   538.98         172.9440
   539.12         172.8173
   539.26         172.5655
   539.40         172.2001
   539.54         171.7386
   539.68         171.1964
   539.82         170.5956
   539.96         169.9708
   540.10         169.3603
   540.24         168.7931
   540.38         168.2861
   540.52         167.8467
   540.66         167.4696
   540.80         167.1360
   540.94         166.8232
   541.08         166.5167
   541.22         166.2202
   541.36         165.9529
   541.50         165.7335
   541.64         165.5676
   541.78         165.4514
   541.92         165.3849
   542.06         165.3684
   542.20         165.3880
   542.34         165.4215
   542.48         165.4529
   542.62         165.4742
   542.76         165.4827
   542.90         165.4774
   543.04         165.4501
   543.18         165.3922
   543.32         165.3101
   543.46         165.2204
   543.60         165.1356
   543.74         165.0548
   543.88         164.9599
   544.02         164.8168
   544.16         164.5962
   544.30         164.2957
   544.44         163.9430
   544.58         163.5780
   544.72         163.2242
   544.86         162.8921
   545.00         162.6076
   545.14         162.4138
   545.28         162.3451
   545.42         162.4146
   545.56         162.6125
   545.70         162.9077
   545.84         163.2633
   545.98         163.6358
   546.12         163.9700
   546.26         164.2220
   546.40         164.3756
   546.54         164.4406
   546.68         164.4444
   546.82         164.4149
   546.96         164.3591
   547.10         164.2673
   547.24         164.1386
   547.38         163.9922
   547.52         163.8668
   547.66         163.7971
   547.80         163.7874
   547.94         163.8190
   548.08         163.8644
   548.22         163.8921
   548.36         163.8754
   548.50         163.8025
   548.64         163.6706
   548.78         163.4840
   548.92         163.2579
   549.06         163.0022
   549.20         162.7129
   549.34         162.3867
   549.48         162.0324
   549.62         161.6766
   549.76         161.3635
   549.90         161.1382
   550.04         161.0190
   550.18         160.9934
   550.32         161.0362
   550.46         161.1249
   550.60         161.2413
   550.74         161.3619
   550.88         161.4577
   551.02         161.5059
   551.16         161.4983
   551.30         161.4370
   551.44         161.3295
   551.58         161.1780
   551.72         160.9692
   551.86         160.6831
   552.00         160.3037
   552.14         159.8237
   552.28         159.2498
   552.42         158.6020
   552.56         157.9051
   552.70         157.1856
   552.84         156.4786
   552.98         155.8255
   553.12         155.2647
   553.26         154.8228
   553.40         154.5113
   553.54         154.3289
   553.68         154.2646
   553.82         154.3011
   553.96         154.4205
   554.10         154.6012
   554.24         154.8147
   554.38         155.0332
   554.52         155.2393
   554.66         155.4263
   554.80         155.6012
   554.94         155.7799
   555.08         155.9728
   555.22         156.1762
   555.36         156.3780
   555.50         156.5695
   555.64         156.7476
   555.78         156.9024
   555.92         157.0107
   556.06         157.0492
   556.20         157.0085
   556.34         156.8897
   556.48         156.6999
   556.62         156.4550
   556.76         156.1764
   556.90         155.8825
   557.04         155.5871
   557.18         155.3030
   557.32         155.0418
   557.46         154.8182
   557.60         154.6491
   557.74         154.5414
   557.88         154.4841
   558.02         154.4520
   558.16         154.4147
   558.30         154.3403
   558.44         154.2051
   558.58         154.0052
   558.72         153.7563
   558.86         153.4790
   559.00         153.1929
   559.14         152.9192
   559.28         152.6775
   559.42         152.4764
   559.56         152.3077
   559.70         152.1558
   559.84         152.0083
   559.98         151.8541
   560.12         151.6848
   560.26         151.4938
   560.40         151.2747
   560.54         151.0255
   560.68         150.7504
   560.82         150.4559
   560.96         150.1513
   561.10         149.8539
   561.24         149.5859
   561.38         149.3683
   561.52         149.2191
   561.66         149.1486
   561.80         149.1536
   561.94         149.2301
   562.08         149.3840
   562.22         149.6183
   562.36         149.9203
   562.50         150.2601
   562.64         150.6007
   562.78         150.9126
   562.92         151.1770
   563.06         151.3769
   563.20         151.4889
   563.34         151.4880
   563.48         151.3625
   563.62         151.1249
   563.76         150.8044
   563.90         150.4286
   564.04         150.0204
   564.18         149.5992
   564.32         149.1805
   564.46         148.7845
   564.60         148.4346
   564.74         148.1442
   564.88         147.9067
   565.02         147.6997
   565.16         147.5002
   565.30         147.2893
   565.44         147.0444
   565.58         146.7408
   565.72         146.3642
   565.86         145.9140
   566.00         145.3937
   566.14         144.8099
   566.28         144.1813
   566.42         143.5428
   566.56         142.9418
   566.70         142.4330
   566.84         142.0651
   566.98         141.8642
   567.12         141.8356
   567.26         141.9743
   567.40         142.2670
   567.54         142.6809
   567.68         143.1615
   567.82         143.6474
   567.96         144.0750
   568.10         144.3849
   568.24         144.5373
   568.38         144.5146
   568.52         144.3102
   568.66         143.9306
   568.80         143.4138
   568.94         142.8274
   569.08         142.2457
   569.22         141.7312
   569.36         141.3245
   569.50         141.0449
   569.64         140.8984
   569.78         140.8781
   569.92         140.9541
   570.06         141.0699
   570.20         141.1602
   570.34         141.1796
   570.48         141.1126
   570.62         140.9692
   570.76         140.7812
   570.90         140.5954
   571.04         140.4569
   571.18         140.3933
   571.32         140.4162
   571.46         140.5291
   571.60         140.7282
   571.74         141.0007
   571.88         141.3171
   572.02         141.6331
   572.16         141.9116
   572.30         142.1275
   572.44         142.2588
   572.58         142.2945
   572.72         142.2433
   572.86         142.1273
   573.00         141.9635
   573.14         141.7566
   573.28         141.5130
   573.42         141.2486
   573.56         140.9758
   573.70         140.7007
   573.84         140.4341
   573.98         140.1891
   574.12         139.9745
   574.26         139.7963
   574.40         139.6587
   574.54         139.5646
   574.68         139.5210
   574.82         139.5374
   574.96         139.6109
   575.10         139.7261
   575.24         139.8655
   575.38         140.0146
   575.52         140.1632
   575.66         140.3008
   575.80         140.4185
   575.94         140.5106
   576.08         140.5603
   576.22         140.5344
   576.36         140.4033
   576.50         140.1542
   576.64         139.7869
   576.78         139.3157
   576.92         138.7701
   577.06         138.1799
   577.20         137.5474
   577.34         136.8400
   577.48         136.0220
   577.62         135.0907
   577.76         134.0798
   577.90         133.0382
   578.04         132.0158
   578.18         131.0613
   578.32         130.2193
   578.46         129.5242
   578.60         128.9970
   578.74         128.6456
   578.88         128.4687
   579.02         128.4609
   579.16         128.6104
   579.30         128.8908
   579.44         129.2583
   579.58         129.6599
   579.72         130.0527
   579.86         130.4144
   580.00         130.7522
   580.14         131.0994
   580.28         131.4806
   580.42         131.8854
   580.56         132.2852
   580.70         132.6626
   580.84         133.0121
   580.98         133.3181
   581.12         133.5535
   581.26         133.7064
   581.40         133.7887
   581.54         133.8214
   581.68         133.8293
   581.82         133.8375
   581.96         133.8640
   582.10         133.9161
   582.24         133.9901
   582.38         134.0775
   582.52         134.1613
   582.66         134.2139
   582.80         134.2125
   582.94         134.1533
   583.08         134.0589
   583.22         133.9721
   583.36         133.9309
   583.50         133.9390
   583.64         133.9732
   583.78         134.0170
   583.92         134.0730
   584.06         134.1411
   584.20         134.2062
   584.34         134.2479
   584.48         134.2450
   584.62         134.1761
   584.76         134.0268
   584.90         133.7914
   585.04         133.4761
   585.18         133.0963
   585.32         132.6724
   585.46         132.2340
   585.60         131.8090
   585.74         131.4151
   585.88         131.0662
   586.02         130.7682
   586.16         130.5175
   586.30         130.3163
   586.44         130.1785
   586.58         130.1136
   586.72         130.1154
   586.86         130.1752
   587.00         130.2885
   587.14         130.4426
   587.28         130.6199
   587.42         130.8110
   587.56         131.0002
   587.70         131.1564
   587.84         131.2424
   587.98         131.1978
   588.12         130.9083
   588.26         130.2442
   588.40         129.1516
   588.54         127.6604
   588.68         125.8056
   588.82         123.6167
   588.96         121.1897
   589.10         118.7089
   589.24         116.3901
   589.38         114.4348
   589.52         113.0175
   589.66         112.2662
   589.80         112.2453
   589.94         112.9511
   590.08         114.3029
   590.22         116.1491
   590.36         118.3041
   590.50         120.5792
   590.64         122.7861
   590.78         124.7704
   590.92         126.4620
   591.06         127.8498
   591.20         128.9112
   591.34         129.6094
   591.48         129.9599
   591.62         130.0470
   591.76         129.9625
   591.90         129.7667
   592.04         129.5015
   592.18         129.2034
   592.32         128.8939
   592.46         128.5781
   592.60         128.2648
   592.74         127.9781
   592.88         127.7518
   593.02         127.6120
   593.16         127.5598
   593.30         127.5757
   593.44         127.6341
   593.58         127.7122
   593.72         127.7895
   593.86         127.8417
   594.00         127.8431
   594.14         127.7827
   594.28         127.6690
   594.42         127.5114
   594.56         127.3029
   594.70         127.0271
   594.84         126.6769
   594.98         126.2610
   595.12         125.8053
   595.26         125.3496
   595.40         124.9253
   595.54         124.5469
   595.68         124.2141
   595.82         123.9132
   595.96         123.6338
   596.10         123.3758
   596.24         123.1422
   596.38         122.9301
   596.52         122.7334
   596.66         122.5551
   596.80         122.3977
   596.94         122.2474
   597.08         122.0871
   597.22         121.9200
   597.36         121.7649
   597.50         121.6384
   597.64         121.5515
   597.78         121.5087
   597.92         121.5020
   598.06         121.5103
   598.20         121.5083
   598.34         121.4737
   598.48         121.3993
   598.62         121.3010
   598.76         121.1986
   598.90         121.0967
   599.04         120.9887
   599.18         120.8672
   599.32         120.7261
   599.46         120.5655
   599.60         120.3902
   599.74         120.2074
   599.88         120.0193
   600.02         119.8177
   600.16         119.5957
   600.30         119.3551
   600.44         119.0997
   600.58         118.8349
   600.72         118.5796
   600.86         118.3657
   601.00         118.2188
   601.14         118.1576
   601.28         118.1882
   601.42         118.2949
   601.56         118.4549
   601.70         118.6524
   601.84         118.8763
   601.98         119.1209
   602.12         119.3805
   602.26         119.6355
   602.40         119.8623
   602.54         120.0492
   602.68         120.1985
   602.82         120.3191
   602.96         120.4065
   603.10         120.4399
   603.24         120.4001
   603.38         120.2850
   603.52         120.0999
   603.66         119.8479
   603.80         119.5485
   603.94         119.2291
   604.08         118.9143
   604.22         118.6335
   604.36         118.4170
   604.50         118.2964
   604.64         118.3055
   604.78         118.4637
   604.92         118.7667
   605.06         119.1922
   605.20         119.7033
   605.34         120.2508
   605.48         120.7760
   605.62         121.2168
   605.76         121.5261
   605.90         121.6814
   606.04         121.6792
   606.18         121.5287
   606.32         121.2467
   606.46         120.8588
   606.60         120.3955
   606.74         119.8919
   606.88         119.3933
   607.02         118.9465
   607.16         118.5926
   607.30         118.3573
   607.44         118.2439
   607.58         118.2358
   607.72         118.3085
   607.86         118.4397
   608.00         118.6119
   608.14         118.8049
   608.28         118.9935
   608.42         119.1502
   608.56         119.2472
   608.70         119.2576
   608.84         119.1581
   608.98         118.9369
   609.12         118.6037
   609.26         118.1849
   609.40         117.7109
   609.54         117.2140
   609.68         116.7295
   609.82         116.2883
   609.96         115.9104
   610.10         115.6037
   610.24         115.3696
   610.38         115.2082
   610.52         115.1162
   610.66         115.0821
   610.80         115.0874
   610.94         115.1111
   611.08         115.1350
   611.22         115.1483
   611.36         115.1444
   611.50         115.1210
   611.64         115.0835
   611.78         115.0352
   611.92         114.9693
   612.06         114.8762
   612.20         114.7510
   612.34         114.5919
   612.48         114.4023
   612.62         114.1953
   612.76         113.9871
   612.90         113.7867
   613.04         113.6001
   613.18         113.4334
   613.32         113.2883
   613.46         113.1620
   613.60         113.0499
   613.74         112.9513
   613.88         112.8722
   614.02         112.8200
   614.16         112.8006
   614.30         112.8127
   614.44         112.8448
   614.58         112.8861
   614.72         112.9291
   614.86         112.9647
   615.00         112.9839
   615.14         112.9829
   615.28         112.9572
   615.42         112.8928
   615.56         112.7743
   615.70         112.5974
   615.84         112.3651
   615.98         112.0877
   616.12         111.7852
   616.26         111.4807
   616.40         111.1951
   616.54         110.9405
   616.68         110.7140
   616.82         110.5057
   616.96         110.3117
   617.10         110.1414
   617.24         110.0137
   617.38         109.9444
   617.52         109.9400
   617.66         110.0032
   617.80         110.1331
   617.94         110.3224
   618.08         110.5589
   618.22         110.8315
   618.36         111.1302
   618.50         111.4440
   618.64         111.7608
   618.78         112.0612
   618.92         112.3191
   619.06         112.5103
   619.20         112.6175
   619.34         112.6376
   619.48         112.5828
   619.62         112.4749
   619.76         112.3398
   619.90         112.2006
   620.04         112.0706
   620.18         111.9591
   620.32         111.8796
   620.46         111.8446
   620.60         111.8625
   620.74         111.9394
   620.88         112.0788
   621.02         112.2780
   621.16         112.5261
   621.30         112.8044
   621.44         113.0916
   621.58         113.3708
   621.72         113.6296
   621.86         113.8596
   622.00         114.0593
   622.14         114.2247
   622.28         114.3421
   622.42         114.3882
   622.56         114.3342
   622.70         114.1581
   622.84         113.8579
   622.98         113.4517
   623.12         112.9659
   623.26         112.4255
   623.40         111.8541
   623.54         111.2749
   623.68         110.7170
   623.82         110.2135
   623.96         109.7939
   624.10         109.4810
   624.24         109.2894
   624.38         109.2215
   624.52         109.2674
   624.66         109.4088
   624.80         109.6137
   624.94         109.8386
   625.08         110.0374
   625.22         110.1679
   625.36         110.2056
   625.50         110.1533
   625.64         110.0269
   625.78         109.8336
   625.92         109.5794
   626.06         109.2884
   626.20         108.9965
   626.34         108.7334
   626.48         108.5042
   626.62         108.2905
   626.76         108.0610
   626.90         107.7731
   627.04         107.3742
   627.18         106.8130
   627.32         106.0558
   627.46         105.1039
   627.60         104.0023
   627.74         102.8354
   627.88         101.7166
   628.02         100.7698
   628.16         100.1042
   628.30         99.7908
   628.44         99.8617
   628.58         100.3210
   628.72         101.1360
   628.86         102.2276
   629.00         103.4833
   629.14         104.7793
   629.28         105.9985
   629.42         107.0418
   629.56         107.8383
   629.70         108.3523
   629.84         108.5862
   629.98         108.5795
   630.12         108.3985
   630.26         108.1124
   630.40         107.7761
   630.54         107.4304
   630.68         107.1070
   630.82         106.8333
   630.96         106.6297
   631.10         106.5050
   631.24         106.4581
   631.38         106.4828
   631.52         106.5706
   631.66         106.7115
   631.80         106.8922
   631.94         107.0978
   632.08         107.3181
   632.22         107.5478
   632.36         107.7817
   632.50         108.0115
   632.64         108.2285
   632.78         108.4194
   632.92         108.5655
   633.06         108.6502
   633.20         108.6608
   633.34         108.5817
   633.48         108.3964
   633.62         108.0992
   633.76         107.7003
   633.90         107.2232
   634.04         106.7011
   634.18         106.1740
   634.32         105.6856
   634.46         105.2779
   634.60         104.9825
   634.74         104.8154
   634.88         104.7784
   635.02         104.8592
   635.16         105.0312
   635.30         105.2593
   635.44         105.5032
   635.58         105.7196
   635.72         105.8641
   635.86         105.8944
   636.00         105.7867
   636.14         105.5521
   636.28         105.2280
   636.42         104.8549
   636.56         104.4656
   636.70         104.0871
   636.84         103.7423
   636.98         103.4537
   637.12         103.2449
   637.26         103.1360
   637.40         103.1398
   637.54         103.2591
   637.68         103.4821
   637.82         103.7880
   637.96         104.1551
   638.10         104.5569
   638.24         104.9629
   638.38         105.3442
   638.52         105.6776
   638.66         105.9476
   638.80         106.1466
   638.94         106.2735
   639.08         106.3318
   639.22         106.3329
   639.36         106.2961
   639.50         106.2429
   639.64         106.1907
   639.78         106.1429
   639.92         106.0872
   640.06         106.0065
   640.20         105.8875
   640.34         105.7182
   640.48         105.4863
   640.62         105.1843
   640.76         104.8132
   640.90         104.3886
   641.04         103.9411
   641.18         103.5078
   641.32         103.1260
   641.46         102.8308
   641.60         102.6471
   641.74         102.5838
   641.88         102.6332
   642.02         102.7729
   642.16         102.9766
   642.30         103.2213
   642.44         103.4827
   642.58         103.7361
   642.72         103.9577
   642.86         104.1253
   643.00         104.2218
   643.14         104.2458
   643.28         104.2078
   643.42         104.1166
   643.56         103.9780
   643.70         103.8005
   643.84         103.5963
   643.98         103.3792
   644.12         103.1582
   644.26         102.9292
   644.40         102.6760
   644.54         102.3863
   644.68         102.0660
   644.82         101.7327
   644.96         101.4016
   645.10         101.0840
   645.24         100.7915
   645.38         100.5390
   645.52         100.3436
   645.66         100.2197
   645.80         100.1738
   645.94         100.2001
   646.08         100.2901
   646.22         100.4380
   646.36         100.6348
   646.50         100.8635
   646.64         101.0992
   646.78         101.3124
   646.92         101.4795
   647.06         101.5911
   647.20         101.6522
   647.34         101.6708
   647.48         101.6526
   647.62         101.6048
   647.76         101.5336
   647.90         101.4383
   648.04         101.3164
   648.18         101.1676
   648.32         100.9976
   648.46         100.8236
   648.60         100.6738
   648.74         100.5821
   648.88         100.5745
   649.02         100.6628
   649.16         100.8468
   649.30         101.1136
   649.44         101.4391
   649.58         101.8026
   649.72         102.1894
   649.86         102.5830
   650.00         102.9596
   650.14         103.2841
   650.28         103.5132
   650.42         103.6105
   650.56         103.5652
   650.70         103.4005
   650.84         103.1609
   650.98         102.8945
   651.12         102.6424
   651.26         102.4295
   651.40         102.2612
   651.54         102.1336
   651.68         102.0440
   651.82         101.9883
   651.96         101.9552
   652.10         101.9299
   652.24         101.9035
   652.38         101.8652
   652.52         101.7990
   652.66         101.6925
   652.80         101.5458
   652.94         101.3736
   653.08         101.1955
   653.22         101.0217
   653.36         100.8466
   653.50         100.6517
   653.64         100.4146
   653.78         100.1133
   653.92         99.7266
   654.06         99.2365
   654.20         98.6280
   654.34         97.8780
   654.48         96.9481
   654.62         95.7882
   654.76         94.3385
   654.90         92.5363
   655.04         90.3448
   655.18         87.7899
   655.32         84.9751
   655.46         82.0648
   655.60         79.2556
   655.74         76.7529
   655.88         74.7530
   656.02         73.4237
   656.16         72.8848
   656.30         73.1884
   656.44         74.3142
   656.58         76.1768
   656.72         78.6329
   656.86         81.4898
   657.00         84.5263
   657.14         87.5213
   657.28         90.2796
   657.42         92.6572
   657.56         94.5878
   657.70         96.0849
   657.84         97.2089
   657.98         98.0290
   658.12         98.6052
   658.26         98.9908
   658.40         99.2366
   658.54         99.3909
   658.68         99.4995
   658.82         99.6058
   658.96         99.7474
   659.10         99.9486
   659.24         100.2159
   659.38         100.5349
   659.52         100.8791
   659.66         101.2237
   659.80         101.5445
   659.94         101.8066
   660.08         101.9677
   660.22         101.9965
   660.36         101.8830
   660.50         101.6408
   660.64         101.3000
   660.78         100.8975
   660.92         100.4702
   661.06         100.0545
   661.20         99.6868
   661.34         99.3977
   661.48         99.2060
   661.62         99.1199
   661.76         99.1400
   661.90         99.2556
   662.04         99.4430
   662.18         99.6702
   662.32         99.9024
   662.46         100.1049
   662.60         100.2516
   662.74         100.3404
   662.88         100.3884
   663.02         100.4096
   663.16         100.4057
   663.30         100.3653
   663.44         100.2715
   663.58         100.1133
   663.72         99.8948
   663.86         99.6315
   664.00         99.3436
   664.14         99.0509
   664.28         98.7714
   664.42         98.5147
   664.56         98.2787
   664.70         98.0582
   664.84         97.8553
   664.98         97.6777
   665.12         97.5321
   665.26         97.4198
   665.40         97.3362
   665.54         97.2664
   665.68         97.1928
   665.82         97.1101
   665.96         97.0220
   666.10         96.9328
   666.24         96.8465
   666.38         96.7661
   666.52         96.6884
   666.66         96.6052
   666.80         96.5085
   666.94         96.3981
   667.08         96.2825
   667.22         96.1759
   667.36         96.0984
   667.50         96.0722
   667.64         96.1110
   667.78         96.2187
   667.92         96.3927
   668.06         96.6219
   668.20         96.8868
   668.34         97.1688
   668.48         97.4501
   668.62         97.7048
   668.76         97.9051
   668.90         98.0348
   669.04         98.0927
   669.18         98.0897
   669.32         98.0424
   669.46         97.9665
   669.60         97.8721
   669.74         97.7663
   669.88         97.6550
   670.02         97.5416
   670.16         97.4224
   670.30         97.2874
   670.44         97.1273
   670.58         96.9381
   670.72         96.7220
   670.86         96.4889
   671.00         96.2549
   671.14         96.0380
   671.28         95.8566
   671.42         95.7312
   671.56         95.6758
   671.70         95.6907
   671.84         95.7625
   671.98         95.8688
   672.12         95.9842
   672.26         96.0867
   672.40         96.1618
   672.54         96.1977
   672.68         96.1837
   672.82         96.1124
   672.96         95.9846
   673.10         95.8084
   673.24         95.6022
   673.38         95.3943
   673.52         95.2127
   673.66         95.0772
   673.80         94.9984
   673.94         94.9775
   674.08         95.0054
   674.22         95.0654
   674.36         95.1412
   674.50         95.2180
   674.64         95.2807
   674.78         95.3160
   674.92         95.3158
   675.06         95.2795
   675.20         95.2098
   675.34         95.1105
   675.48         94.9899
   675.62         94.8636
   675.76         94.7497
   675.90         94.6629
   676.04         94.6076
   676.18         94.5781
   676.32         94.5682
   676.46         94.5743
   676.60         94.5902
   676.74         94.6019
   676.88         94.5914
   677.02         94.5414
   677.16         94.4382
   677.30         94.2777
   677.44         94.0714
   677.58         93.8431
   677.72         93.6205
   677.86         93.4278
   678.00         93.2812
   678.14         93.1871
   678.28         93.1440
   678.42         93.1442
   678.56         93.1798
   678.70         93.2449
   678.84         93.3312
   678.98         93.4243
   679.12         93.5045
   679.26         93.5534
   679.40         93.5602
   679.54         93.5253
   679.68         93.4595
   679.82         93.3783
   679.96         93.2979
   680.10         93.2320
   680.24         93.1875
   680.38         93.1605
   680.52         93.1372
   680.66         93.1001
   680.80         93.0353
   680.94         92.9368
   681.08         92.8046
   681.22         92.6407
   681.36         92.4454
   681.50         92.2186
   681.64         91.9648
   681.78         91.6982
   681.92         91.4383
   682.06         91.2007
   682.20         90.9951
   682.34         90.8255
   682.48         90.6899
   682.62         90.5813
   682.76         90.4904
   682.90         90.4075
   683.04         90.3263
   683.18         90.2453
   683.32         90.1670
   683.46         90.0960
   683.60         90.0344
   683.74         89.9832
   683.88         89.9472
   684.02         89.9337
   684.16         89.9494
   684.30         89.9939
   684.44         90.0565
   684.58         90.1199
   684.72         90.1669
   684.86         90.1844
   685.00         90.1633
   685.14         90.0962
   685.28         89.9735
   685.42         89.7739
   685.56         89.4538
   685.70         88.9454
   685.84         88.1747
   685.98         87.0881
   686.12         85.6700
   686.26         83.9488
   686.40         81.9971
   686.54         79.9243
   686.68         77.8635
   686.82         75.9596
   686.96         74.3593
   687.10         73.1968
   687.24         72.5702
   687.38         72.5174
   687.52         73.0067
   687.66         73.9434
   687.80         75.1878
   687.94         76.5761
   688.08         77.9393
   688.22         79.1285
   688.36         80.0442
   688.50         80.6487
   688.64         80.9586
   688.78         81.0237
   688.92         80.9105
   689.06         80.6985
   689.20         80.4676
   689.34         80.2868
   689.48         80.2091
   689.62         80.2634
   689.76         80.4459
   689.90         80.7290
   690.04         81.0791
   690.18         81.4625
   690.32         81.8522
   690.46         82.2328
   690.60         82.5956
   690.74         82.9330
   690.88         83.2420
   691.02         83.5243
   691.16         83.7791
   691.30         84.0037
   691.44         84.1959
   691.58         84.3569
   691.72         84.4914
   691.86         84.6026
   692.00         84.6984
   692.14         84.7907
   692.28         84.8870
   692.42         84.9927
   692.56         85.1147
   692.70         85.2585
   692.84         85.4269
   692.98         85.6244
   693.12         85.8526
   693.26         86.1064
   693.40         86.3761
   693.54         86.6495
   693.68         86.9110
   693.82         87.1454
   693.96         87.3446
   694.10         87.5093
   694.24         87.6447
   694.38         87.7567
   694.52         87.8493
   694.66         87.9235
   694.80         87.9780
   694.94         88.0130
   695.08         88.0319
   695.22         88.0406
   695.36         88.0478
   695.50         88.0652
   695.64         88.1025
   695.78         88.1645
   695.92         88.2513
   696.06         88.3593
   696.20         88.4807
   696.34         88.6027
   696.48         88.7102
   696.62         88.7910
   696.76         88.8374
   696.90         88.8462
   697.04         88.8176
   697.18         88.7547
   697.32         88.6660
   697.46         88.5615
   697.60         88.4484
   697.74         88.3322
   697.88         88.2175
   698.02         88.1018
   698.16         87.9753
   698.30         87.8273
   698.44         87.6497
   698.58         87.4370
   698.72         87.1878
   698.86         86.9055
   699.00         86.6013
   699.14         86.2921
   699.28         85.9946
   699.42         85.7242
   699.56         85.4974
   699.70         85.3307
   699.84         85.2357
   699.98         85.2178
   700.12         85.2752
   700.26         85.4010
   700.40         85.5833
   700.54         85.8023
   700.68         86.0331
   700.82         86.2571
   700.96         86.4622
   701.10         86.6352
   701.24         86.7617
   701.38         86.8324
   701.52         86.8433
   701.66         86.7920
   701.80         86.6787
   701.94         86.5133
   702.08         86.3159
   702.22         86.1093
   702.36         85.9089
   702.50         85.7250
   702.64         85.5673
   702.78         85.4422
   702.92         85.3552
   703.06         85.3149
   703.20         85.3294
   703.34         85.3995
   703.48         85.5149
   703.62         85.6574
   703.76         85.8055
   703.90         85.9369
   704.04         86.0275
   704.18         86.0590
   704.32         86.0291
   704.46         85.9494
   704.60         85.8315
   704.74         85.6824
   704.88         85.5099
   705.02         85.3261
   705.16         85.1477
   705.30         84.9876
   705.44         84.8485
   705.58         84.7257
   705.72         84.6096
   705.86         84.4886
   706.00         84.3566
   706.14         84.2171
   706.28         84.0797
   706.42         83.9552
   706.56         83.8537
   706.70         83.7876
   706.84         83.7717
   706.98         83.8159
   707.12         83.9175
   707.26         84.0649
   707.40         84.2473
   707.54         84.4544
   707.68         84.6684
   707.82         84.8659
   707.96         85.0266
   708.10         85.1407
   708.24         85.2069
   708.38         85.2309
   708.52         85.2233
   708.66         85.1954
   708.80         85.1553
   708.94         85.1092
   709.08         85.0643
   709.22         85.0306
   709.36         85.0172
   709.50         85.0281
   709.64         85.0618
   709.78         85.1110
   709.92         85.1610
   710.06         85.1936
   710.20         85.1972
   710.34         85.1699
   710.48         85.1144
   710.62         85.0376
   710.76         84.9493
   710.90         84.8567
   711.04         84.7661
   711.18         84.6854
   711.32         84.6252
   711.46         84.5981
   711.60         84.6145
   711.74         84.6817
   711.88         84.8002
   712.02         84.9577
   712.16         85.1307
   712.30         85.2915
   712.44         85.4158
   712.58         85.4875
   712.72         85.5022
   712.86         85.4637
   713.00         85.3748
   713.14         85.2367
   713.28         85.0606
   713.42         84.8667
   713.56         84.6722
   713.70         84.4894
   713.84         84.3294
   713.98         84.2043
   714.12         84.1212
   714.26         84.0772
   714.40         84.0626
   714.54         84.0658
   714.68         84.0752
   714.82         84.0819
   714.96         84.0822
   715.10         84.0767
   715.24         84.0668
   715.38         84.0487
   715.52         84.0113
   715.66         83.9377
   715.80         83.8104
   715.94         83.6169
   716.08         83.3504
   716.22         83.0071
   716.36         82.5874
   716.50         82.0992
   716.64         81.5600
   716.78         80.9944
   716.92         80.4297
   717.06         79.8891
   717.20         79.3820
   717.34         78.9033
   717.48         78.4519
   717.62         78.0417
   717.76         77.6897
   717.90         77.4044
   718.04         77.1883
   718.18         77.0475
   718.32         76.9930
   718.46         77.0380
   718.60         77.1877
   718.74         77.4275
   718.88         77.7304
   719.02         78.0683
   719.16         78.4088
   719.30         78.7202
   719.44         78.9805
   719.58         79.1840
   719.72         79.3370
   719.86         79.4542
   720.00         79.5657
   720.14         79.7104
   720.28         79.9151
   720.42         80.1854
   720.56         80.5177
   720.70         80.9060
   720.84         81.3313
   720.98         81.7511
   721.12         82.1100
   721.26         82.3628
   721.40         82.4918
   721.54         82.5087
   721.68         82.4364
   721.82         82.2951
   721.96         82.1052
   722.10         81.8870
   722.24         81.6554
   722.38         81.4189
   722.52         81.1833
   722.66         80.9502
   722.80         80.7122
   722.94         80.4591
   723.08         80.1872
   723.22         79.8987
   723.36         79.5972
   723.50         79.2908
   723.64         78.9993
   723.78         78.7519
   723.92         78.5712
   724.06         78.4636
   724.20         78.4246
   724.34         78.4496
   724.48         78.5340
   724.62         78.6712
   724.76         78.8553
   724.90         79.0804
   725.04         79.3320
   725.18         79.5802
   725.32         79.7915
   725.46         79.9480
   725.60         80.0510
   725.74         80.1069
   725.88         80.1170
   726.02         80.0755
   726.16         79.9713
   726.30         79.7921
   726.44         79.5299
   726.58         79.1948
   726.72         78.8192
   726.86         78.4435
   727.00         78.0991
   727.14         77.8073
   727.28         77.5811
   727.42         77.4267
   727.56         77.3447
   727.70         77.3235
   727.84         77.3412
   727.98         77.3793
   728.12         77.4277
   728.26         77.4742
   728.40         77.5032
   728.54         77.5024
   728.68         77.4679
   728.82         77.4024
   728.96         77.3112
   729.10         77.2019
   729.24         77.0840
   729.38         76.9672
   729.52         76.8567
   729.66         76.7535
   729.80         76.6569
   729.94         76.5675
   730.08         76.4940
   730.22         76.4506
   730.36         76.4424
   730.50         76.4675
   730.64         76.5297
   730.78         76.6320
   730.92         76.7661
   731.06         76.9152
   731.20         77.0599
   731.34         77.1826
   731.48         77.2703
   731.62         77.3182
   731.76         77.3297
   731.90         77.3093
   732.04         77.2596
   732.18         77.1795
   732.32         77.0690
   732.46         76.9347
   732.60         76.7879
   732.74         76.6404
   732.88         76.4949
   733.02         76.3471
   733.16         76.2023
   733.30         76.0785
   733.44         75.9938
   733.58         75.9588
   733.72         75.9792
   733.86         76.0564
   734.00         76.1845
   734.14         76.3484
   734.28         76.5241
   734.42         76.6866
   734.56         76.8194
   734.70         76.9169
   734.84         76.9803
   734.98         77.0127
   735.12         77.0182
   735.26         77.0018
   735.40         76.9693
   735.54         76.9232
   735.68         76.8635
   735.82         76.7874
   735.96         76.6890
   736.10         76.5626
   736.24         76.4053
   736.38         76.2191
   736.52         76.0077
   736.66         75.7769
   736.80         75.5392
   736.94         75.3149
   737.08         75.1256
   737.22         74.9850
   737.36         74.8937
   737.50         74.8451
   737.64         74.8308
   737.78         74.8393
   737.92         74.8593
   738.06         74.8831
   738.20         74.9006
   738.34         74.8965
   738.48         74.8551
   738.62         74.7683
   738.76         74.6419
   738.90         74.4913
   739.04         74.3330
   739.18         74.1810
   739.32         74.0478
   739.46         73.9444
   739.60         73.8769
   739.74         73.8449
   739.88         73.8400
   740.02         73.8510
   740.16         73.8680
   740.30         73.8849
   740.44         73.8972
   740.58         73.9003
   740.72         73.8853
   740.86         73.8400
   741.00         73.7553
   741.14         73.6301
   741.28         73.4720
   741.42         73.2952
   741.56         73.1102
   741.70         72.9214
   741.84         72.7344
   741.98         72.5564
   742.12         72.3930
   742.26         72.2481
   742.40         72.1232
   742.54         72.0183
   742.68         71.9382
   742.82         71.8935
   742.96         71.8935
   743.10         71.9382
   743.24         72.0183
   743.38         72.1232
   743.52         72.2481
   743.66         72.3930
   743.80         72.5564
   743.94         72.7344
   744.08         72.9214
   744.22         73.1102
