# File SAO11810
# Wavelength [nm]    Normalized Amplitude
   349.70         432.6345
   349.84         433.6326
   349.98         434.1868
   350.12         434.2825
   350.26         433.9719
   350.40         433.3726
   350.54         432.6202
   350.68         431.8420
   350.82         431.1607
   350.96         430.6923
   351.10         430.5252
   351.24         430.6923
   351.38         431.1607
   351.52         431.8420
   351.66         432.6202
   351.80         433.3726
   351.94         433.9719
   352.08         434.2825
   352.22         434.1868
   352.36         433.6326
   352.50         432.6345
   352.64         431.2510
   352.78         429.5869
   352.92         427.7977
   353.06         426.0612
   353.20         424.5503
   353.34         423.4223
   353.48         422.7855
   353.62         422.6623
   353.76         422.9855
   353.90         423.6461
   354.04         424.5063
   354.18         425.3801
   354.32         426.0803
   354.46         426.4609
   354.60         426.4230
   354.74         425.9284
   354.88         425.0262
   355.02         423.8349
   355.16         422.4943
   355.30         421.1367
   355.44         419.8773
   355.58         418.8178
   355.72         418.0395
   355.86         417.5781
   356.00         417.4052
   356.14         417.4300
   356.28         417.5336
   356.42         417.6065
   356.56         417.5564
   356.70         417.2911
   356.84         416.7523
   356.98         415.9548
   357.12         414.9379
   357.26         413.7188
   357.40         412.2878
   357.54         410.6268
   357.68         408.7334
   357.82         406.6461
   357.96         404.4508
   358.10         402.2549
   358.24         400.1715
   358.38         398.3019
   358.52         396.7057
   358.66         395.3955
   358.80         394.3413
   358.94         393.5030
   359.08         392.8384
   359.22         392.2850
   359.36         391.7774
   359.50         391.2613
   359.64         390.6890
   359.78         390.0275
   359.92         389.2901
   360.06         388.5436
   360.20         387.8967
   360.34         387.4923
   360.48         387.4584
   360.62         387.8300
   360.76         388.5371
   360.90         389.4647
   361.04         390.4819
   361.18         391.4267
   361.32         392.1315
   361.46         392.4640
   361.60         392.3448
   361.74         391.7489
   361.88         390.7288
   362.02         389.4210
   362.16         387.9918
   362.30         386.5778
   362.44         385.2650
   362.58         384.1057
   362.72         383.1294
   362.86         382.3567
   363.00         381.8137
   363.14         381.5045
   363.28         381.4024
   363.42         381.4931
   363.56         381.7776
   363.70         382.2368
   363.84         382.8299
   363.98         383.5190
   364.12         384.2647
   364.26         385.0322
   364.40         385.8157
   364.54         386.5966
   364.68         387.3093
   364.82         387.8827
   364.96         388.2788
   365.10         388.4915
   365.24         388.5379
   365.38         388.4663
   365.52         388.3283
   365.66         388.1314
   365.80         387.8427
   365.94         387.4149
   366.08         386.8046
   366.22         385.9811
   366.36         384.9366
   366.50         383.6744
   366.64         382.2076
   366.78         380.5857
   366.92         378.8981
   367.06         377.2425
   367.20         375.7000
   367.34         374.3506
   367.48         373.2509
   367.62         372.4089
   367.76         371.7948
   367.90         371.3579
   368.04         371.0450
   368.18         370.7823
   368.32         370.4871
   368.46         370.1118
   368.60         369.6376
   368.74         369.0488
   368.88         368.3253
   369.02         367.4417
   369.16         366.3815
   369.30         365.1636
   369.44         363.8459
   369.58         362.5003
   369.72         361.1830
   369.86         359.9222
   370.00         358.7202
   370.14         357.5512
   370.28         356.3931
   370.42         355.2669
   370.56         354.2495
   370.70         353.4351
   370.84         352.8672
   370.98         352.5270
   371.12         352.3609
   371.26         352.3050
   371.40         352.3037
   371.54         352.3270
   371.68         352.3777
   371.82         352.4884
   371.96         352.6878
   372.10         352.9643
   372.24         353.2710
   372.38         353.5543
   372.52         353.7973
   372.66         354.0496
   372.80         354.4045
   372.94         354.9567
   373.08         355.7794
   373.22         356.8852
   373.36         358.1798
   373.50         359.4841
   373.64         360.6055
   373.78         361.3801
   373.92         361.6818
   374.06         361.4269
   374.20         360.5627
   374.34         359.0593
   374.48         356.9200
   374.62         354.1715
   374.76         350.8857
   374.90         347.2445
   375.04         343.5366
   375.18         340.0784
   375.32         337.1374
   375.46         334.8784
   375.60         333.3320
   375.74         332.3984
   375.88         331.8658
   376.02         331.4778
   376.16         331.0544
   376.30         330.5411
   376.44         329.9812
   376.58         329.4963
   376.72         329.2630
   376.86         329.4568
   377.00         330.2186
   377.14         331.6538
   377.28         333.8198
   377.42         336.7222
   377.56         340.3039
   377.70         344.4026
   377.84         348.7284
   377.98         352.9310
   378.12         356.6575
   378.26         359.5555
   378.40         361.3215
   378.54         361.7860
   378.68         360.9664
   378.82         359.0424
   378.96         356.2870
   379.10         353.0370
   379.24         349.6786
   379.38         346.5883
   379.52         344.0689
   379.66         342.3418
   379.80         341.5493
   379.94         341.7333
   380.08         342.8361
   380.22         344.7092
   380.36         347.1114
   380.50         349.7492
   380.64         352.3232
   380.78         354.5249
   380.92         356.0893
   381.06         356.9004
   381.20         357.0225
   381.34         356.6305
   381.48         355.9215
   381.62         355.0585
   381.76         354.1241
   381.90         353.1056
   382.04         351.9097
   382.18         350.4032
   382.32         348.4738
   382.46         346.0715
   382.60         343.2344
   382.74         340.1023
   382.88         336.8908
   383.02         333.8472
   383.16         331.2274
   383.30         329.2750
   383.44         328.1906
   383.58         328.1122
   383.72         329.0771
   383.86         330.9912
   384.00         333.6337
   384.14         336.6856
   384.28         339.7807
   384.42         342.5627
   384.56         344.7449
   384.70         346.1673
   384.84         346.8095
   384.98         346.7583
   385.12         346.1598
   385.26         345.1746
   385.40         343.9406
   385.54         342.5470
   385.68         341.0421
   385.82         339.4829
   385.96         337.9558
   386.10         336.5428
   386.24         335.2994
   386.38         334.2523
   386.52         333.3949
   386.66         332.6860
   386.80         332.0610
   386.94         331.4586
   387.08         330.8307
   387.22         330.1217
   387.36         329.2305
   387.50         327.9849
   387.64         326.1896
   387.78         323.7158
   387.92         320.5626
   388.06         316.8798
   388.20         312.9540
   388.34         309.1590
   388.48         305.8831
   388.62         303.4605
   388.76         302.1298
   388.90         302.0061
   389.04         303.0730
   389.18         305.1922
   389.32         308.1180
   389.46         311.5293
   389.60         315.0752
   389.74         318.4119
   389.88         321.2345
   390.02         323.3254
   390.16         324.6031
   390.30         325.1256
   390.44         325.0462
   390.58         324.5585
   390.72         323.8500
   390.86         323.0590
   391.00         322.2424
   391.14         321.3921
   391.28         320.4904
   391.42         319.5360
   391.56         318.5380
   391.70         317.5194
   391.84         316.4984
   391.98         315.4565
   392.12         314.3579
   392.26         313.2011
   392.40         312.0404
   392.54         310.9612
   392.68         310.0459
   392.82         309.3620
   392.96         308.9629
   393.10         308.8889
   393.24         309.1585
   393.38         309.7579
   393.52         310.6281
   393.66         311.6669
   393.80         312.7618
   393.94         313.8211
   394.08         314.7603
   394.22         315.4876
   394.36         315.9146
   394.50         315.9699
   394.64         315.6275
   394.78         314.9345
   394.92         313.9863
   395.06         312.8586
   395.20         311.5472
   395.34         309.9628
   395.48         307.9493
   395.62         305.3160
   395.76         301.9030
   395.90         297.6640
   396.04         292.7130
   396.18         287.3092
   396.32         281.8205
   396.46         276.6786
   396.60         272.3055
   396.74         269.0374
   396.88         267.0921
   397.02         266.5549
   397.16         267.3762
   397.30         269.4018
   397.44         272.3975
   397.58         276.0531
   397.72         280.0071
   397.86         283.8875
   398.00         287.3531
   398.14         290.1677
   398.28         292.2537
   398.42         293.6743
   398.56         294.5786
   398.70         295.1269
   398.84         295.4303
   398.98         295.5424
   399.12         295.4797
   399.26         295.2377
   399.40         294.8070
   399.54         294.1891
   399.68         293.3997
   399.82         292.4744
   399.96         291.4612
   400.10         290.4002
   400.24         289.3240
   400.38         288.2712
   400.52         287.2806
   400.66         286.3810
   400.80         285.5944
   400.94         284.9121
   401.08         284.2694
   401.22         283.5530
   401.36         282.6321
   401.50         281.4142
   401.64         279.8836
   401.78         278.0925
   401.92         276.1282
   402.06         274.1026
   402.20         272.1551
   402.34         270.4410
   402.48         269.1035
   402.62         268.2462
   402.76         267.9250
   402.90         268.1407
   403.04         268.8365
   403.18         269.9170
   403.32         271.2663
   403.46         272.7457
   403.60         274.1939
   403.74         275.4587
   403.88         276.4449
   404.02         277.1411
   404.16         277.5966
   404.30         277.8675
   404.44         277.9871
   404.58         277.9842
   404.72         277.8988
   404.86         277.7754
   405.00         277.6542
   405.14         277.5612
   405.28         277.5087
   405.42         277.4913
   405.56         277.4782
   405.70         277.4246
   405.84         277.2813
   405.98         276.9930
   406.12         276.5110
   406.26         275.8205
   406.40         274.9537
   406.54         273.9786
   406.68         272.9753
   406.82         272.0155
   406.96         271.1474
   407.10         270.3932
   407.24         269.7526
   407.38         269.1997
   407.52         268.6906
   407.66         268.1745
   407.80         267.5998
   407.94         266.9285
   408.08         266.1374
   408.22         265.2129
   408.36         264.1354
   408.50         262.8494
   408.64         261.2554
   408.78         259.2286
   408.92         256.6504
   409.06         253.4584
   409.20         249.7006
   409.34         245.5528
   409.48         241.2966
   409.62         237.2661
   409.76         233.7981
   409.90         231.2052
   410.04         229.7401
   410.18         229.5498
   410.32         230.6494
   410.46         232.9225
   410.60         236.1311
   410.74         239.9387
   410.88         243.9522
   411.02         247.7766
   411.16         251.0798
   411.30         253.6440
   411.44         255.3812
   411.58         256.3322
   411.72         256.6543
   411.86         256.5698
   412.00         256.2914
   412.14         255.9770
   412.28         255.7157
   412.42         255.5407
   412.56         255.4489
   412.70         255.4036
   412.84         255.3492
   412.98         255.2352
   413.12         255.0215
   413.26         254.6758
   413.40         254.1849
   413.54         253.5646
   413.68         252.8525
   413.82         252.0969
   413.96         251.3457
   414.10         250.6422
   414.24         250.0251
   414.38         249.5237
   414.52         249.1485
   414.66         248.8855
   414.80         248.6971
   414.94         248.5267
   415.08         248.3078
   415.22         247.9878
   415.36         247.5484
   415.50         247.0052
   415.64         246.3931
   415.78         245.7531
   415.92         245.1307
   416.06         244.5750
   416.20         244.1179
   416.34         243.7687
   416.48         243.5295
   416.62         243.3941
   416.76         243.3406
   416.90         243.3381
   417.04         243.3573
   417.18         243.3685
   417.32         243.3380
   417.46         243.2343
   417.60         243.0362
   417.74         242.7361
   417.88         242.3430
   418.02         241.8722
   418.16         241.3293
   418.30         240.7049
   418.44         239.9785
   418.58         239.1246
   418.72         238.1174
   418.86         236.9434
   419.00         235.6239
   419.14         234.2113
   419.28         232.7670
   419.42         231.3612
   419.56         230.0768
   419.70         229.0013
   419.84         228.2115
   419.98         227.7686
   420.12         227.7195
   420.26         228.0767
   420.40         228.7962
   420.54         229.7843
   420.68         230.9151
   420.82         232.0539
   420.96         233.0723
   421.10         233.8606
   421.24         234.3525
   421.38         234.5446
   421.52         234.4867
   421.66         234.2504
   421.80         233.9079
   421.94         233.5255
   422.08         233.1584
   422.22         232.8397
   422.36         232.5761
   422.50         232.3515
   422.64         232.1408
   422.78         231.9196
   422.92         231.6604
   423.06         231.3477
   423.20         230.9974
   423.34         230.6399
   423.48         230.3001
   423.62         229.9891
   423.76         229.7130
   423.90         229.4834
   424.04         229.3153
   424.18         229.2049
   424.32         229.1215
   424.46         229.0220
   424.60         228.8589
   424.74         228.5920
   424.88         228.2005
   425.02         227.6869
   425.16         227.0734
   425.30         226.3966
   425.44         225.6946
   425.58         225.0002
   425.72         224.3454
   425.86         223.7579
   426.00         223.2504
   426.14         222.8234
   426.28         222.4719
   426.42         222.1867
   426.56         221.9567
   426.70         221.7640
   426.84         221.5741
   426.98         221.3470
   427.12         221.0616
   427.26         220.7231
   427.40         220.3576
   427.54         219.9987
   427.68         219.6688
   427.82         219.3775
   427.96         219.1358
   428.10         218.9619
   428.24         218.8761
   428.38         218.8915
   428.52         219.0042
   428.66         219.1940
   428.80         219.4299
   428.94         219.6749
   429.08         219.8954
   429.22         220.0626
   429.36         220.1450
   429.50         220.1127
   429.64         219.9522
   429.78         219.6742
   429.92         219.3059
   430.06         218.8791
   430.20         218.4199
   430.34         217.9440
   430.48         217.4726
   430.62         217.0421
   430.76         216.6874
   430.90         216.4222
   431.04         216.2357
   431.18         216.1076
   431.32         216.0163
   431.46         215.9378
   431.60         215.8541
   431.74         215.7580
   431.88         215.6394
   432.02         215.4761
   432.16         215.2375
   432.30         214.8785
   432.44         214.3219
   432.58         213.4514
   432.72         212.1290
   432.86         210.2405
   433.00         207.7474
   433.14         204.7241
   433.28         201.3550
   433.42         197.8905
   433.56         194.6032
   433.70         191.7677
   433.84         189.6344
   433.98         188.3938
   434.12         188.1554
   434.26         188.9385
   434.40         190.6624
   434.54         193.1511
   434.68         196.1606
   434.82         199.4107
   434.96         202.6112
   435.10         205.4982
   435.24         207.8721
   435.38         209.6302
   435.52         210.7744
   435.66         211.3833
   435.80         211.5683
   435.94         211.4362
   436.08         211.0743
   436.22         210.5629
   436.36         209.9793
   436.50         209.3832
   436.64         208.8165
   436.78         208.3071
   436.92         207.8678
   437.06         207.4957
   437.20         207.1769
   437.34         206.8860
   437.48         206.5855
   437.62         206.2317
   437.76         205.7893
   437.90         205.2490
   438.04         204.6326
   438.18         203.9826
   438.32         203.3519
   438.46         202.7947
   438.60         202.3567
   438.74         202.0663
   438.88         201.9266
   439.02         201.9159
   439.16         202.0038
   439.30         202.1603
   439.44         202.3485
   439.58         202.5230
   439.72         202.6392
   439.86         202.6602
   440.00         202.5626
   440.14         202.3431
   440.28         202.0183
   440.42         201.6214
   440.56         201.1936
   440.70         200.7638
   440.84         200.3396
   440.98         199.9111
   441.12         199.4537
   441.26         198.9354
   441.40         198.3233
   441.54         197.5932
   441.68         196.7412
   441.82         195.7790
   441.96         194.7216
   442.10         193.5912
   442.24         192.4312
   442.38         191.3069
   442.52         190.2894
   442.66         189.4437
   442.80         188.8205
   442.94         188.4489
   443.08         188.3341
   443.22         188.4548
   443.36         188.7682
   443.50         189.2251
   443.64         189.7749
   443.78         190.3677
   443.92         190.9591
   444.06         191.5147
   444.20         192.0133
   444.34         192.4438
   444.48         192.7964
   444.62         193.0614
   444.76         193.2362
   444.90         193.3292
   445.04         193.3518
   445.18         193.3091
   445.32         193.1953
   445.46         192.9851
   445.60         192.6287
   445.74         192.0622
   445.88         191.2286
   446.02         190.1021
   446.16         188.7043
   446.30         187.1028
   446.44         185.4003
   446.58         183.7162
   446.72         182.1700
   446.86         180.8663
   447.00         179.8872
   447.14         179.2926
   447.28         179.1130
   447.42         179.3497
   447.56         179.9706
   447.70         180.8995
   447.84         182.0196
   447.98         183.1957
   448.12         184.3009
   448.26         185.2366
   448.40         185.9531
   448.54         186.4599
   448.68         186.8107
   448.82         187.0700
   448.96         187.2813
   449.10         187.4592
   449.24         187.6037
   449.38         187.7108
   449.52         187.7626
   449.66         187.7279
   449.80         187.5758
   449.94         187.2814
   450.08         186.8332
   450.22         186.2300
   450.36         185.4826
   450.50         184.6252
   450.64         183.7151
   450.78         182.8150
   450.92         181.9761
   451.06         181.2438
   451.20         180.6638
   451.34         180.2712
   451.48         180.0725
   451.62         180.0419
   451.76         180.1357
   451.90         180.3018
   452.04         180.4766
   452.18         180.5908
   452.32         180.5941
   452.46         180.4628
   452.60         180.1808
   452.74         179.7208
   452.88         179.0480
   453.02         178.1481
   453.16         177.0465
   453.30         175.8033
   453.44         174.5081
   453.58         173.2717
   453.72         172.2031
   453.86         171.3861
   454.00         170.8665
   454.14         170.6598
   454.28         170.7620
   454.42         171.1554
   454.56         171.8042
   454.70         172.6494
   454.84         173.6134
   454.98         174.6098
   455.12         175.5499
   455.26         176.3508
   455.40         176.9563
   455.54         177.3574
   455.68         177.5926
   455.82         177.7210
   455.96         177.7951
   456.10         177.8485
   456.24         177.8889
   456.38         177.9045
   456.52         177.8826
   456.66         177.8179
   456.80         177.7104
   456.94         177.5578
   457.08         177.3508
   457.22         177.0735
   457.36         176.7122
   457.50         176.2653
   457.64         175.7476
   457.78         175.1914
   457.92         174.6394
   458.06         174.1321
   458.20         173.6983
   458.34         173.3516
   458.48         173.0947
   458.62         172.9208
   458.76         172.8127
   458.90         172.7450
   459.04         172.6872
   459.18         172.6134
   459.32         172.5084
   459.46         172.3742
   459.60         172.2256
   459.74         172.0733
   459.88         171.9214
   460.02         171.7821
   460.16         171.6803
   460.30         171.6423
   460.44         171.6831
   460.58         171.7998
   460.72         171.9752
   460.86         172.1873
   461.00         172.4180
   461.14         172.6548
   461.28         172.8764
   461.42         173.0538
   461.56         173.1631
   461.70         173.1926
   461.84         173.1525
   461.98         173.0711
   462.12         172.9788
   462.26         172.8925
   462.40         172.8170
   462.54         172.7642
   462.68         172.7613
   462.82         172.8345
   462.96         172.9913
   463.10         173.2174
   463.24         173.4802
   463.38         173.7286
   463.52         173.8964
   463.66         173.9187
   463.80         173.7492
   463.94         173.3659
   464.08         172.7797
   464.22         172.0339
   464.36         171.1909
   464.50         170.3184
   464.64         169.4801
   464.78         168.7310
   464.92         168.1197
   465.06         167.6892
   465.20         167.4664
   465.34         167.4455
   465.48         167.5890
   465.62         167.8418
   465.76         168.1414
   465.90         168.4239
   466.04         168.6408
   466.18         168.7658
   466.32         168.7913
   466.46         168.7240
   466.60         168.5753
   466.74         168.3575
   466.88         168.0771
   467.02         167.7260
   467.16         167.2860
   467.30         166.7460
   467.44         166.1140
   467.58         165.4091
   467.72         164.6587
   467.86         163.8995
   468.00         163.1730
   468.14         162.5283
   468.28         162.0134
   468.42         161.6642
   468.56         161.4982
   468.70         161.5104
   468.84         161.6684
   468.98         161.9264
   469.12         162.2371
   469.26         162.5522
   469.40         162.8248
   469.54         163.0062
   469.68         163.0523
   469.82         162.9389
   469.96         162.6629
   470.10         162.2329
   470.24         161.6702
   470.38         161.0187
   470.52         160.3352
   470.66         159.6689
   470.80         159.0533
   470.94         158.5091
   471.08         158.0477
   471.22         157.6712
   471.36         157.3697
   471.50         157.1228
   471.64         156.9087
   471.78         156.7145
   471.92         156.5343
   472.06         156.3564
   472.20         156.1598
   472.34         155.9259
   472.48         155.6482
   472.62         155.3340
   472.76         155.0110
   472.90         154.7254
   473.04         154.5205
   473.18         154.4186
   473.32         154.4205
   473.46         154.5071
   473.60         154.6481
   473.74         154.8140
   473.88         154.9794
   474.02         155.1212
   474.16         155.2127
   474.30         155.2271
   474.44         155.1422
   474.58         154.9374
   474.72         154.5987
   474.86         154.1344
   475.00         153.5730
   475.14         152.9489
   475.28         152.2965
   475.42         151.6486
   475.56         151.0358
   475.70         150.4864
   475.84         150.0198
   475.98         149.6417
   476.12         149.3467
   476.26         149.1353
   476.40         149.0141
   476.54         148.9728
   476.68         148.9755
   476.82         148.9725
   476.96         148.9186
   477.10         148.7893
   477.24         148.5853
   477.38         148.3234
   477.52         148.0251
   477.66         147.7132
   477.80         147.4107
   477.94         147.1431
   478.08         146.9408
   478.22         146.8344
   478.36         146.8372
   478.50         146.9418
   478.64         147.1304
   478.78         147.3801
   478.92         147.6659
   479.06         147.9574
   479.20         148.2173
   479.34         148.4168
   479.48         148.5428
   479.62         148.5918
   479.76         148.5773
   479.90         148.5281
   480.04         148.4764
   480.18         148.4490
   480.32         148.4618
   480.46         148.5136
   480.60         148.5910
   480.74         148.6778
   480.88         148.7524
   481.02         148.7871
   481.16         148.7587
   481.30         148.6494
   481.44         148.4457
   481.58         148.1453
   481.72         147.7529
   481.86         147.2764
   482.00         146.7345
   482.14         146.1498
   482.28         145.5502
   482.42         144.9790
   482.56         144.4832
   482.70         144.0968
   482.84         143.8332
   482.98         143.6856
   483.12         143.6344
   483.26         143.6613
   483.40         143.7504
   483.54         143.8785
   483.68         144.0137
   483.82         144.1208
   483.96         144.1623
   484.10         144.1070
   484.24         143.9316
   484.38         143.6046
   484.52         143.0742
   484.66         142.2728
   484.80         141.1280
   484.94         139.5896
   485.08         137.6612
   485.22         135.4094
   485.36         132.9553
   485.50         130.4625
   485.64         128.1151
   485.78         126.0955
   485.92         124.5624
   486.06         123.6235
   486.20         123.3291
   486.34         123.6791
   486.48         124.6180
   486.62         126.0336
   486.76         127.7715
   486.90         129.6491
   487.04         131.4687
   487.18         133.0531
   487.32         134.2850
   487.46         135.1246
   487.60         135.6095
   487.74         135.8293
   487.88         135.8823
   488.02         135.8490
   488.16         135.7861
   488.30         135.7261
   488.44         135.6845
   488.58         135.6682
   488.72         135.6751
   488.86         135.6923
   489.00         135.6982
   489.14         135.6727
   489.28         135.6037
   489.42         135.4843
   489.56         135.3154
   489.70         135.1097
   489.84         134.8918
   489.98         134.6945
   490.12         134.5511
   490.26         134.4889
   490.40         134.5168
   490.54         134.6211
   490.68         134.7745
   490.82         134.9400
   490.96         135.0726
   491.10         135.1311
   491.24         135.0960
   491.38         134.9730
   491.52         134.7838
   491.66         134.5666
   491.80         134.3657
   491.94         134.2057
   492.08         134.0898
   492.22         134.0204
   492.36         134.0030
   492.50         134.0336
   492.64         134.0969
   492.78         134.1734
   492.92         134.2477
   493.06         134.3072
   493.20         134.3391
   493.34         134.3408
   493.48         134.3262
   493.62         134.3174
   493.76         134.3399
   493.90         134.4187
   494.04         134.5625
   494.18         134.7489
   494.32         134.9351
   494.46         135.0756
   494.60         135.1284
   494.74         135.0729
   494.88         134.9207
   495.02         134.6971
   495.16         134.4179
   495.30         134.0955
   495.44         133.7455
   495.58         133.3757
   495.72         132.9842
   495.86         132.5695
   496.00         132.1439
   496.14         131.7282
   496.28         131.3383
   496.42         130.9858
   496.56         130.6783
   496.70         130.4174
   496.84         130.1947
   496.98         129.9970
   497.12         129.8116
   497.26         129.6312
   497.40         129.4658
   497.54         129.3289
   497.68         129.2177
   497.82         129.1171
   497.96         129.0206
   498.10         128.9350
   498.24         128.8748
   498.38         128.8594
   498.52         128.9041
   498.66         129.0132
   498.80         129.1812
   498.94         129.3963
   499.08         129.6407
   499.22         129.8857
   499.36         130.0937
   499.50         130.2275
   499.64         130.2594
   499.78         130.1769
   499.92         129.9813
   500.06         129.6770
   500.20         129.2585
   500.34         128.7231
   500.48         128.0903
   500.62         127.4026
   500.76         126.7156
   500.90         126.0830
   501.04         125.5476
   501.18         125.1390
   501.32         124.8696
   501.46         124.7301
   501.60         124.6865
   501.74         124.6868
   501.88         124.6794
   502.02         124.6301
   502.16         124.5268
   502.30         124.3675
   502.44         124.1524
   502.58         123.8847
   502.72         123.5725
   502.86         123.2331
   503.00         122.8949
   503.14         122.5880
   503.28         122.3344
   503.42         122.1416
   503.56         122.0034
   503.70         121.9060
   503.84         121.8334
   503.98         121.7716
   504.12         121.7078
   504.26         121.6397
   504.40         121.5796
   504.54         121.5384
   504.68         121.5104
   504.82         121.4798
   504.96         121.4319
   505.10         121.3574
   505.24         121.2592
   505.38         121.1556
   505.52         121.0701
   505.66         121.0150
   505.80         120.9872
   505.94         120.9771
   506.08         120.9693
   506.22         120.9441
   506.36         120.8867
   506.50         120.7898
   506.64         120.6503
   506.78         120.4674
   506.92         120.2418
   507.06         119.9719
   507.20         119.6534
   507.34         119.2907
   507.48         118.9042
   507.62         118.5174
   507.76         118.1462
   507.90         117.8010
   508.04         117.4886
   508.18         117.2061
   508.32         116.9490
   508.46         116.7229
   508.60         116.5409
   508.74         116.4199
   508.88         116.3744
   509.02         116.4105
   509.16         116.5195
   509.30         116.6806
   509.44         116.8677
   509.58         117.0505
   509.72         117.2022
   509.86         117.3048
   510.00         117.3487
   510.14         117.3312
   510.28         117.2576
   510.42         117.1439
   510.56         117.0141
   510.70         116.8920
   510.84         116.7914
   510.98         116.7194
   511.12         116.6810
   511.26         116.6747
   511.40         116.6915
   511.54         116.7150
   511.68         116.7233
   511.82         116.6934
   511.96         116.6076
   512.10         116.4576
   512.24         116.2414
   512.38         115.9640
   512.52         115.6408
   512.66         115.2939
   512.80         114.9516
   512.94         114.6449
   513.08         114.3976
   513.22         114.2189
   513.36         114.1046
   513.50         114.0461
   513.64         114.0294
   513.78         114.0328
   513.92         114.0328
   514.06         114.0051
   514.20         113.9240
   514.34         113.7720
   514.48         113.5523
   514.62         113.2830
   514.76         112.9867
   514.90         112.6838
   515.04         112.3882
   515.18         112.1060
   515.32         111.8420
   515.46         111.6018
   515.60         111.3874
   515.74         111.1908
   515.88         110.9937
   516.02         110.7801
   516.16         110.5476
   516.30         110.3038
   516.44         110.0671
   516.58         109.8641
   516.72         109.7148
   516.86         109.6294
   517.00         109.6165
   517.14         109.6757
   517.28         109.7935
   517.42         109.9486
   517.56         110.1103
   517.70         110.2435
   517.84         110.3241
   517.98         110.3462
   518.12         110.3153
   518.26         110.2404
   518.40         110.1300
   518.54         109.9997
   518.68         109.8785
   518.82         109.7930
   518.96         109.7524
   519.10         109.7507
   519.24         109.7720
   519.38         109.7958
   519.52         109.8033
   519.66         109.7773
   519.80         109.7033
   519.94         109.5754
   520.08         109.3919
   520.22         109.1573
   520.36         108.8862
   520.50         108.5975
   520.64         108.3075
   520.78         108.0273
   520.92         107.7576
   521.06         107.4936
   521.20         107.2338
   521.34         106.9767
   521.48         106.7232
   521.62         106.4832
   521.76         106.2661
   521.90         106.0746
   522.04         105.9095
   522.18         105.7675
   522.32         105.6424
   522.46         105.5352
   522.60         105.4477
   522.74         105.3779
   522.88         105.3139
   523.02         105.2370
   523.16         105.1330
   523.30         104.9950
   523.44         104.8202
   523.58         104.6095
   523.72         104.3719
   523.86         104.1216
   524.00         103.8750
   524.14         103.6540
   524.28         103.4756
   524.42         103.3446
   524.56         103.2611
   524.70         103.2258
   524.84         103.2334
   524.98         103.2750
   525.12         103.3405
   525.26         103.4160
   525.40         103.4853
   525.54         103.5304
   525.68         103.5446
   525.82         103.5360
   525.96         103.5112
   526.10         103.4689
   526.24         103.4089
   526.38         103.3345
   526.52         103.2445
   526.66         103.1292
   526.80         102.9775
   526.94         102.7808
   527.08         102.5348
   527.22         102.2499
   527.36         101.9476
   527.50         101.6495
   527.64         101.3737
   527.78         101.1370
   527.92         100.9475
   528.06         100.8010
   528.20         100.6895
   528.34         100.6034
   528.48         100.5238
   528.62         100.4234
   528.76         100.2815
   528.90         100.0946
   529.04         99.8708
   529.18         99.6225
   529.32         99.3671
   529.46         99.1291
   529.60         98.9329
   529.74         98.8001
   529.88         98.7491
   530.02         98.7851
   530.16         98.9000
   530.30         99.0764
   530.44         99.2902
   530.58         99.5127
   530.72         99.7173
   530.86         99.8824
   531.00         99.9879
   531.14         100.0165
   531.28         99.9627
   531.42         99.8328
   531.56         99.6371
   531.70         99.3871
   531.84         99.0961
   531.98         98.7841
   532.12         98.4761
   532.26         98.1956
   532.40         97.9603
   532.54         97.7785
   532.68         97.6461
   532.82         97.5476
   532.96         97.4623
   533.10         97.3741
   533.24         97.2715
   533.38         97.1437
   533.52         96.9832
   533.66         96.7862
   533.80         96.5529
   533.94         96.2907
   534.08         96.0099
   534.22         95.7227
   534.36         95.4428
   534.50         95.1827
   534.64         94.9514
   534.78         94.7527
   534.92         94.5866
   535.06         94.4503
   535.20         94.3399
   535.34         94.2511
   535.48         94.1804
   535.62         94.1261
   535.76         94.0928
   535.90         94.0852
   536.04         94.1017
   536.18         94.1352
   536.32         94.1756
   536.46         94.2161
   536.60         94.2519
   536.74         94.2765
   536.88         94.2848
   537.02         94.2708
   537.16         94.2261
   537.30         94.1425
   537.44         94.0177
   537.58         93.8570
   537.72         93.6728
   537.86         93.4804
   538.00         93.2944
   538.14         93.1235
   538.28         92.9736
   538.42         92.8498
   538.56         92.7503
   538.70         92.6672
   538.84         92.5936
   538.98         92.5234
   539.12         92.4469
   539.26         92.3468
   539.40         92.2043
   539.54         92.0019
   539.68         91.7174
   539.82         91.3283
   539.96         90.8246
   540.10         90.2137
   540.24         89.5189
   540.38         88.7751
   540.52         88.0248
   540.66         87.3167
   540.80         86.7035
   540.94         86.2382
   541.08         85.9646
   541.22         85.9065
   541.36         86.0659
   541.50         86.4205
   541.64         86.9270
   541.78         87.5324
   541.92         88.1837
   542.06         88.8321
   542.20         89.4300
   542.34         89.9332
   542.48         90.3158
   542.62         90.5741
   542.76         90.7161
   542.90         90.7553
   543.04         90.7098
   543.18         90.5986
   543.32         90.4341
   543.46         90.2228
   543.60         89.9732
   543.74         89.6957
   543.88         89.4012
   544.02         89.0986
   544.16         88.7939
   544.30         88.4947
   544.44         88.2108
   544.58         87.9495
   544.72         87.7160
   544.86         87.5093
   545.00         87.3247
   545.14         87.1582
   545.28         87.0068
   545.42         86.8698
   545.56         86.7541
   545.70         86.6706
   545.84         86.6230
   545.98         86.6060
   546.12         86.6154
   546.26         86.6496
   546.40         86.7041
   546.54         86.7696
   546.68         86.8343
   546.82         86.8863
   546.96         86.9193
   547.10         86.9328
   547.24         86.9288
   547.38         86.9069
   547.52         86.8624
   547.66         86.7894
   547.80         86.6880
   547.94         86.5681
   548.08         86.4453
   548.22         86.3369
   548.36         86.2546
   548.50         86.1957
   548.64         86.1504
   548.78         86.1104
   548.92         86.0707
   549.06         86.0266
   549.20         85.9718
   549.34         85.8958
   549.48         85.7876
   549.62         85.6403
   549.76         85.4518
   549.90         85.2228
   550.04         84.9587
   550.18         84.6715
   550.32         84.3778
   550.46         84.0961
   550.60         83.8425
   550.74         83.6253
   550.88         83.4442
   551.02         83.2900
   551.16         83.1469
   551.30         83.0031
   551.44         82.8549
   551.58         82.7027
   551.72         82.5495
   551.86         82.4024
   552.00         82.2678
   552.14         82.1476
   552.28         82.0420
   552.42         81.9551
   552.56         81.8880
   552.70         81.8348
   552.84         81.7883
   552.98         81.7425
   553.12         81.6936
   553.26         81.6402
   553.40         81.5807
   553.54         81.5100
   553.68         81.4225
   553.82         81.3171
   553.96         81.2003
   554.10         81.0841
   554.24         80.9790
   554.38         80.8934
   554.52         80.8305
   554.66         80.7850
   554.80         80.7486
   554.94         80.7189
   555.08         80.6975
   555.22         80.6839
   555.36         80.6739
   555.50         80.6629
   555.64         80.6452
   555.78         80.6117
   555.92         80.5512
   556.06         80.4512
   556.20         80.3051
   556.34         80.1206
   556.48         79.9149
   556.62         79.7073
   556.76         79.5153
   556.90         79.3513
   557.04         79.2254
   557.18         79.1390
   557.32         79.0819
   557.46         79.0398
   557.60         78.9970
   557.74         78.9340
   557.88         78.8274
   558.02         78.6548
   558.16         78.4033
   558.30         78.0712
   558.44         77.6681
   558.58         77.2155
   558.72         76.7462
   558.86         76.3036
   559.00         75.9312
   559.14         75.6612
   559.28         75.5120
   559.42         75.4852
   559.56         75.5687
   559.70         75.7421
   559.84         75.9773
   559.98         76.2386
   560.12         76.4881
   560.26         76.6917
   560.40         76.8258
   560.54         76.8799
   560.68         76.8561
   560.82         76.7673
   560.96         76.6298
   561.10         76.4591
   561.24         76.2728
   561.38         76.0898
   561.52         75.9236
   561.66         75.7771
   561.80         75.6451
   561.94         75.5172
   562.08         75.3797
   562.22         75.2227
   562.36         75.0449
   562.50         74.8490
   562.64         74.6384
   562.78         74.4242
   562.92         74.2291
   563.06         74.0749
   563.20         73.9691
   563.34         73.9096
   563.48         73.8930
   563.62         73.9133
   563.76         73.9656
   563.90         74.0437
   564.04         74.1356
   564.18         74.2240
   564.32         74.2915
   564.46         74.3311
   564.60         74.3456
   564.74         74.3411
   564.88         74.3249
   565.02         74.3018
   565.16         74.2727
   565.30         74.2364
   565.44         74.1926
   565.58         74.1380
   565.72         74.0636
   565.86         73.9580
   566.00         73.8157
   566.14         73.6375
   566.28         73.4277
   566.42         73.1932
   566.56         72.9390
   566.70         72.6718
   566.84         72.4028
   566.98         72.1471
   567.12         71.9250
   567.26         71.7522
   567.40         71.6344
   567.54         71.5734
   567.68         71.5670
   567.82         71.6073
   567.96         71.6821
   568.10         71.7762
   568.24         71.8744
   568.38         71.9712
   568.52         72.0684
   568.66         72.1670
   568.80         72.2651
   568.94         72.3567
   569.08         72.4301
   569.22         72.4725
   569.36         72.4781
   569.50         72.4474
   569.64         72.3839
   569.78         72.2893
   569.92         72.1603
   570.06         71.9954
   570.20         71.8009
   570.34         71.5922
   570.48         71.3889
   570.62         71.2063
   570.76         71.0512
   570.90         70.9256
   571.04         70.8281
   571.18         70.7471
   571.32         70.6658
   571.46         70.5730
   571.60         70.4650
   571.74         70.3433
   571.88         70.2132
   572.02         70.0809
   572.16         69.9518
   572.30         69.8287
   572.44         69.7104
   572.58         69.5964
   572.72         69.4903
   572.86         69.3925
   573.00         69.2993
   573.14         69.2035
   573.28         69.0962
   573.42         68.9733
   573.56         68.8363
   573.70         68.6897
   573.84         68.5369
   573.98         68.3800
   574.12         68.2242
   574.26         68.0793
   574.40         67.9547
   574.54         67.8541
   574.68         67.7767
   574.82         67.7196
   574.96         67.6776
   575.10         67.6459
   575.24         67.6217
   575.38         67.6009
   575.52         67.5785
   575.66         67.5523
   575.80         67.5201
   575.94         67.4802
   576.08         67.4318
   576.22         67.3740
   576.36         67.3048
   576.50         67.2186
   576.64         67.1074
   576.78         66.9625
   576.92         66.7762
   577.06         66.5431
   577.20         66.2617
   577.34         65.9387
   577.48         65.5896
   577.62         65.2366
   577.76         64.9092
   577.90         64.6367
   578.04         64.4409
   578.18         64.3323
   578.32         64.3025
   578.46         64.3272
   578.60         64.3759
   578.74         64.4146
   578.88         64.4120
   579.02         64.3476
   579.16         64.2166
   579.30         64.0266
   579.44         63.7972
   579.58         63.5573
   579.72         63.3339
   579.86         63.1428
   580.00         62.9943
   580.14         62.8981
   580.28         62.8646
   580.42         62.8997
   580.56         62.9950
   580.70         63.1331
   580.84         63.2955
   580.98         63.4664
   581.12         63.6404
   581.26         63.8204
   581.40         64.0064
   581.54         64.1933
   581.68         64.3744
   581.82         64.5420
   581.96         64.6856
   582.10         64.7959
   582.24         64.8686
   582.38         64.9034
   582.52         64.9074
   582.66         64.8977
   582.80         64.8929
   582.94         64.9035
   583.08         64.9264
   583.22         64.9496
   583.36         64.9610
   583.50         64.9518
   583.64         64.9166
   583.78         64.8531
   583.92         64.7626
   584.06         64.6520
   584.20         64.5337
   584.34         64.4181
   584.48         64.3118
   584.62         64.2182
   584.76         64.1407
   584.90         64.0821
   585.04         64.0395
   585.18         64.0031
   585.32         63.9599
   585.46         63.8947
   585.60         63.7959
   585.74         63.6596
   585.88         63.4835
   586.02         63.2604
   586.16         62.9784
   586.30         62.6269
   586.44         62.2077
   586.58         61.7429
   586.72         61.2678
   586.86         60.8179
   587.00         60.4263
   587.14         60.1265
   587.28         59.9449
   587.42         59.8906
   587.56         59.9465
   587.70         60.0645
   587.84         60.1891
   587.98         60.2797
   588.12         60.3042
   588.26         60.2322
   588.40         60.0353
   588.54         59.7037
   588.68         59.2619
   588.82         58.7655
   588.96         58.2902
   589.10         57.9162
   589.24         57.7094
   589.38         57.7055
   589.52         57.9079
   589.66         58.2947
   589.80         58.8236
   589.94         59.4362
   590.08         60.0701
   590.22         60.6705
   590.36         61.1973
   590.50         61.6350
   590.64         61.9791
   590.78         62.2229
   590.92         62.3658
   591.06         62.4246
   591.20         62.4312
   591.34         62.4126
   591.48         62.3802
   591.62         62.3384
   591.76         62.2881
   591.90         62.2312
   592.04         62.1684
   592.18         62.0986
   592.32         62.0214
   592.46         61.9392
   592.60         61.8555
   592.74         61.7758
   592.88         61.7029
   593.02         61.6300
   593.16         61.5469
   593.30         61.4440
   593.44         61.3136
   593.58         61.1497
   593.72         60.9467
   593.86         60.6979
   594.00         60.3998
   594.14         60.0639
   594.28         59.7149
   594.42         59.3781
   594.56         59.0761
   594.70         58.8284
   594.84         58.6508
   594.98         58.5543
   595.12         58.5448
   595.26         58.6226
   595.40         58.7825
   595.54         59.0120
   595.68         59.2923
   595.82         59.6019
   595.96         59.9152
   596.10         60.2011
   596.24         60.4277
   596.38         60.5676
   596.52         60.6049
   596.66         60.5434
   596.80         60.4039
   596.94         60.2127
   597.08         59.9934
   597.22         59.7661
   597.36         59.5484
   597.50         59.3534
   597.64         59.1920
   597.78         59.0744
   597.92         59.0069
   598.06         58.9902
   598.20         59.0183
   598.34         59.0756
   598.48         59.1363
   598.62         59.1757
   598.76         59.1794
   598.90         59.1412
   599.04         59.0627
   599.18         58.9540
   599.32         58.8314
   599.46         58.7060
   599.60         58.5800
   599.74         58.4507
   599.88         58.3184
   600.02         58.1904
   600.16         58.0757
   600.30         57.9808
   600.44         57.9067
   600.58         57.8497
   600.72         57.8038
   600.86         57.7601
   601.00         57.7068
   601.14         57.6346
   601.28         57.5408
   601.42         57.4239
   601.56         57.2836
   601.70         57.1286
   601.84         56.9729
   601.98         56.8259
   602.12         56.6927
   602.26         56.5812
   602.40         56.5006
   602.54         56.4545
   602.68         56.4412
   602.82         56.4564
   602.96         56.4877
   603.10         56.5201
   603.24         56.5469
   603.38         56.5663
   603.52         56.5780
   603.66         56.5862
   603.80         56.5969
   603.94         56.6154
   604.08         56.6455
   604.22         56.6896
   604.36         56.7462
   604.50         56.8061
   604.64         56.8572
   604.78         56.8923
   604.92         56.9069
   605.06         56.8964
   605.20         56.8577
   605.34         56.7924
   605.48         56.7053
   605.62         56.6033
   605.76         56.5009
   605.90         56.4157
   606.04         56.3562
   606.18         56.3224
   606.32         56.3080
   606.46         56.2995
   606.60         56.2834
   606.74         56.2500
   606.88         56.1942
   607.02         56.1165
   607.16         56.0190
   607.30         55.9043
   607.44         55.7760
   607.58         55.6375
   607.72         55.4925
   607.86         55.3467
   608.00         55.2075
   608.14         55.0806
   608.28         54.9665
   608.42         54.8655
   608.56         54.7800
   608.70         54.7100
   608.84         54.6506
   608.98         54.5964
   609.12         54.5430
   609.26         54.4875
   609.40         54.4313
   609.54         54.3786
   609.68         54.3352
   609.82         54.3039
   609.96         54.2841
   610.10         54.2747
   610.24         54.2708
   610.38         54.2648
   610.52         54.2526
   610.66         54.2340
   610.80         54.2092
   610.94         54.1835
   611.08         54.1671
   611.22         54.1675
   611.36         54.1858
   611.50         54.2200
   611.64         54.2684
   611.78         54.3297
   611.92         54.4015
   612.06         54.4780
   612.20         54.5494
   612.34         54.6040
   612.48         54.6309
   612.62         54.6226
   612.76         54.5781
   612.90         54.5020
   613.04         54.4050
   613.18         54.3025
   613.32         54.2087
   613.46         54.1339
   613.60         54.0855
   613.74         54.0677
   613.88         54.0790
   614.02         54.1139
   614.16         54.1667
   614.30         54.2332
   614.44         54.3099
   614.58         54.3891
   614.72         54.4603
   614.86         54.5153
   615.00         54.5476
   615.14         54.5511
   615.28         54.5210
   615.42         54.4603
   615.56         54.3776
   615.70         54.2791
   615.84         54.1688
   615.98         54.0510
   616.12         53.9281
   616.26         53.7991
   616.40         53.6609
   616.54         53.5086
   616.68         53.3397
   616.82         53.1571
   616.96         52.9672
   617.10         52.7767
   617.24         52.5901
   617.38         52.4147
   617.52         52.2598
   617.66         52.1310
   617.80         52.0300
   617.94         51.9568
   618.08         51.9086
   618.22         51.8738
   618.36         51.8371
   618.50         51.7907
   618.64         51.7335
   618.78         51.6674
   618.92         51.5956
   619.06         51.5223
   619.20         51.4536
   619.34         51.3981
   619.48         51.3642
   619.62         51.3572
   619.76         51.3769
   619.90         51.4212
   620.04         51.4871
   620.18         51.5668
   620.32         51.6498
   620.46         51.7278
   620.60         51.7951
   620.74         51.8456
   620.88         51.8736
   621.02         51.8769
   621.16         51.8556
   621.30         51.8122
   621.44         51.7525
   621.58         51.6837
   621.72         51.6109
   621.86         51.5380
   622.00         51.4671
   622.14         51.3961
   622.28         51.3202
   622.42         51.2358
   622.56         51.1432
   622.70         51.0432
   622.84         50.9353
   622.98         50.8223
   623.12         50.7125
   623.26         50.6155
   623.40         50.5397
   623.54         50.4902
   623.68         50.4696
   623.82         50.4777
   623.96         50.5128
   624.10         50.5704
   624.24         50.6410
   624.38         50.7118
   624.52         50.7711
   624.66         50.8119
   624.80         50.8340
   624.94         50.8418
   625.08         50.8431
   625.22         50.8441
   625.36         50.8474
   625.50         50.8552
   625.64         50.8690
   625.78         50.8860
   625.92         50.8969
   626.06         50.8890
   626.20         50.8520
   626.34         50.7777
   626.48         50.6586
   626.62         50.4885
   626.76         50.2628
   626.90         49.9779
   627.04         49.6314
   627.18         49.2277
   627.32         48.7815
   627.46         48.3146
   627.60         47.8521
   627.74         47.4236
   627.88         47.0614
   628.02         46.7951
   628.16         46.6453
   628.30         46.6199
   628.44         46.7147
   628.58         46.9141
   628.72         47.1945
   628.86         47.5257
   629.00         47.8723
   629.14         48.1995
   629.28         48.4770
   629.42         48.6816
   629.56         48.7990
   629.70         48.8265
   629.84         48.7741
   629.98         48.6604
   630.12         48.5090
   630.26         48.3447
   630.40         48.1916
   630.54         48.0668
   630.68         47.9780
   630.82         47.9266
   630.96         47.9106
   631.10         47.9259
   631.24         47.9677
   631.38         48.0323
   631.52         48.1147
   631.66         48.2055
   631.80         48.2950
   631.94         48.3753
   632.08         48.4416
   632.22         48.4923
   632.36         48.5305
   632.50         48.5590
   632.64         48.5785
   632.78         48.5882
   632.92         48.5857
   633.06         48.5671
   633.20         48.5285
   633.34         48.4695
   633.48         48.3944
   633.62         48.3100
   633.76         48.2239
   633.90         48.1424
   634.04         48.0686
   634.18         48.0021
   634.32         47.9426
   634.46         47.8902
   634.60         47.8421
   634.74         47.7927
   634.88         47.7382
   635.02         47.6764
   635.16         47.6026
   635.30         47.5142
   635.44         47.4127
   635.58         47.3026
   635.72         47.1918
   635.86         47.0906
   636.00         47.0060
   636.14         46.9382
   636.28         46.8830
   636.42         46.8358
   636.56         46.7920
   636.70         46.7483
   636.84         46.7051
   636.98         46.6636
   637.12         46.6217
   637.26         46.5772
   637.40         46.5330
   637.54         46.4963
   637.68         46.4710
   637.82         46.4576
   637.96         46.4557
   638.10         46.4668
   638.24         46.4935
   638.38         46.5371
   638.52         46.5950
   638.66         46.6582
   638.80         46.7155
   638.94         46.7576
   639.08         46.7773
   639.22         46.7682
   639.36         46.7254
   639.50         46.6469
   639.64         46.5342
   639.78         46.3935
   639.92         46.2368
   640.06         46.0784
   640.20         45.9313
   640.34         45.8074
   640.48         45.7175
   640.62         45.6689
   640.76         45.6643
   640.90         45.6981
   641.04         45.7561
   641.18         45.8214
   641.32         45.8781
   641.46         45.9162
   641.60         45.9333
   641.74         45.9310
   641.88         45.9114
   642.02         45.8761
   642.16         45.8257
   642.30         45.7612
   642.44         45.6857
   642.58         45.6038
   642.72         45.5189
   642.86         45.4360
   643.00         45.3601
   643.14         45.2930
   643.28         45.2336
   643.42         45.1807
   643.56         45.1333
   643.70         45.0910
   643.84         45.0534
   643.98         45.0193
   644.12         44.9863
   644.26         44.9515
   644.40         44.9129
   644.54         44.8701
   644.68         44.8233
   644.82         44.7757
   644.96         44.7341
   645.10         44.7064
   645.24         44.6943
   645.38         44.6959
   645.52         44.7118
   645.66         44.7411
   645.80         44.7779
   645.94         44.8157
   646.08         44.8504
   646.22         44.8796
   646.36         44.9000
   646.50         44.9102
   646.64         44.9126
   646.78         44.9116
   646.92         44.9104
   647.06         44.9101
   647.20         44.9087
   647.34         44.9025
   647.48         44.8871
   647.62         44.8601
   647.76         44.8204
   647.90         44.7665
   648.04         44.7000
   648.18         44.6247
   648.32         44.5441
   648.46         44.4609
   648.60         44.3789
   648.74         44.3036
   648.88         44.2428
   649.02         44.2058
   649.16         44.2011
   649.30         44.2320
   649.44         44.2939
   649.58         44.3757
   649.72         44.4653
   649.86         44.5524
   650.00         44.6285
   650.14         44.6878
   650.28         44.7266
   650.42         44.7403
   650.56         44.7263
   650.70         44.6871
   650.84         44.6288
   650.98         44.5577
   651.12         44.4781
   651.26         44.3949
   651.40         44.3143
   651.54         44.2423
   651.68         44.1817
   651.82         44.1303
   651.96         44.0830
   652.10         44.0351
   652.24         43.9853
   652.38         43.9368
   652.52         43.8958
   652.66         43.8673
   652.80         43.8526
   652.94         43.8517
   653.08         43.8656
   653.22         43.8943
   653.36         43.9366
   653.50         43.9901
   653.64         44.0509
   653.78         44.1133
   653.92         44.1726
   654.06         44.2238
   654.20         44.2581
   654.34         44.2631
   654.48         44.2237
   654.62         44.1247
   654.76         43.9547
   654.90         43.7091
   655.04         43.3932
   655.18         43.0221
   655.32         42.6188
   655.46         42.2127
   655.60         41.8370
   655.74         41.5239
   655.88         41.3015
   656.02         41.1905
   656.16         41.1999
   656.30         41.3237
   656.44         41.5434
   656.58         41.8343
   656.72         42.1652
   656.86         42.5026
   657.00         42.8176
   657.14         43.0887
   657.28         43.3019
   657.42         43.4521
   657.56         43.5427
   657.70         43.5848
   657.84         43.5919
   657.98         43.5740
   658.12         43.5362
   658.26         43.4810
   658.40         43.4114
   658.54         43.3289
   658.68         43.2328
   658.82         43.1258
   658.96         43.0151
   659.10         42.9105
   659.24         42.8225
   659.38         42.7585
   659.52         42.7199
   659.66         42.7036
   659.80         42.7029
   659.94         42.7069
   660.08         42.7024
   660.22         42.6782
   660.36         42.6276
   660.50         42.5459
   660.64         42.4327
   660.78         42.2931
   660.92         42.1368
   661.06         41.9767
   661.20         41.8254
   661.34         41.6956
   661.48         41.5996
   661.62         41.5435
   661.76         41.5264
   661.90         41.5418
   662.04         41.5794
   662.18         41.6279
   662.32         41.6780
   662.46         41.7223
   662.60         41.7556
   662.74         41.7738
   662.88         41.7747
   663.02         41.7578
   663.16         41.7243
   663.30         41.6793
   663.44         41.6281
   663.58         41.5750
   663.72         41.5251
   663.86         41.4836
   664.00         41.4545
   664.14         41.4378
   664.28         41.4291
   664.42         41.4227
   664.56         41.4101
   664.70         41.3816
   664.84         41.3315
   664.98         41.2585
   665.12         41.1657
   665.26         41.0590
   665.40         40.9449
   665.54         40.8298
   665.68         40.7207
   665.82         40.6245
   665.96         40.5448
   666.10         40.4774
   666.24         40.4112
   666.38         40.3326
   666.52         40.2272
   666.66         40.0811
   666.80         39.8845
   666.94         39.6368
   667.08         39.3482
   667.22         39.0366
   667.36         38.7269
   667.50         38.4464
   667.64         38.2170
   667.78         38.0535
   667.92         37.9648
   668.06         37.9532
   668.20         38.0148
   668.34         38.1412
   668.48         38.3197
   668.62         38.5329
   668.76         38.7603
   668.90         38.9838
   669.04         39.1910
   669.18         39.3744
   669.32         39.5302
   669.46         39.6589
   669.60         39.7642
   669.74         39.8488
   669.88         39.9130
   670.02         39.9554
   670.16         39.9750
   670.30         39.9734
   670.44         39.9560
   670.58         39.9265
   670.72         39.8847
   670.86         39.8307
   671.00         39.7675
   671.14         39.6991
   671.28         39.6300
   671.42         39.5654
   671.56         39.5082
   671.70         39.4592
   671.84         39.4184
   671.98         39.3860
   672.12         39.3602
   672.26         39.3373
   672.40         39.3134
   672.54         39.2857
   672.68         39.2519
   672.82         39.2099
   672.96         39.1561
   673.10         39.0862
   673.24         38.9994
   673.38         38.9007
   673.52         38.7988
   673.66         38.7019
   673.80         38.6152
   673.94         38.5424
   674.08         38.4856
   674.22         38.4443
   674.36         38.4178
   674.50         38.4050
   674.64         38.4017
   674.78         38.4001
   674.92         38.3940
   675.06         38.3799
   675.20         38.3565
   675.34         38.3247
   675.48         38.2864
   675.62         38.2437
   675.76         38.2027
   675.90         38.1704
   676.04         38.1502
   676.18         38.1412
   676.32         38.1394
   676.46         38.1401
   676.60         38.1371
   676.74         38.1223
   676.88         38.0888
   677.02         38.0336
   677.16         37.9579
   677.30         37.8670
   677.44         37.7691
   677.58         37.6743
   677.72         37.5909
   677.86         37.5255
   678.00         37.4823
   678.14         37.4602
   678.28         37.4559
   678.42         37.4651
   678.56         37.4822
   678.70         37.5028
   678.84         37.5245
   678.98         37.5447
   679.12         37.5603
   679.26         37.5674
   679.40         37.5626
   679.54         37.5450
   679.68         37.5156
   679.82         37.4758
   679.96         37.4270
   680.10         37.3702
   680.24         37.3069
   680.38         37.2409
   680.52         37.1794
   680.66         37.1287
   680.80         37.0920
   680.94         37.0714
   681.08         37.0668
   681.22         37.0766
   681.36         37.0975
   681.50         37.1232
   681.64         37.1473
   681.78         37.1653
   681.92         37.1752
   682.06         37.1775
   682.20         37.1754
   682.34         37.1726
   682.48         37.1717
   682.62         37.1742
   682.76         37.1792
   682.90         37.1851
   683.04         37.1906
   683.18         37.1951
   683.32         37.1969
   683.46         37.1935
   683.60         37.1845
   683.74         37.1707
   683.88         37.1545
   684.02         37.1399
   684.16         37.1302
   684.30         37.1266
   684.44         37.1271
   684.58         37.1290
   684.72         37.1294
   684.86         37.1229
   685.00         37.1035
   685.14         37.0659
   685.28         37.0033
   685.42         36.9031
   685.56         36.7431
   685.70         36.4937
   685.84         36.1271
   685.98         35.6259
   686.12         34.9868
   686.26         34.2221
   686.40         33.3608
   686.54         32.4484
   686.68         31.5436
   686.82         30.7109
   686.96         30.0133
   687.10         29.5028
   687.24         29.2099
   687.38         29.1377
   687.52         29.2645
   687.66         29.5493
   687.80         29.9342
   687.94         30.3533
   688.08         30.7440
   688.22         31.0574
   688.36         31.2685
   688.50         31.3777
   688.64         31.4034
   688.78         31.3729
   688.92         31.3168
   689.06         31.2670
   689.20         31.2530
   689.34         31.2969
   689.48         31.4088
   689.62         31.5851
   689.76         31.8102
   689.90         32.0638
   690.04         32.3265
   690.18         32.5819
   690.32         32.8180
   690.46         33.0276
   690.60         33.2093
   690.74         33.3654
   690.88         33.4980
   691.02         33.6096
   691.16         33.7016
   691.30         33.7761
   691.44         33.8375
   691.58         33.8932
   691.72         33.9508
   691.86         34.0163
   692.00         34.0938
   692.14         34.1844
   692.28         34.2834
   692.42         34.3814
   692.56         34.4691
   692.70         34.5381
   692.84         34.5813
   692.98         34.5947
   693.12         34.5797
   693.26         34.5414
   693.40         34.4867
   693.54         34.4232
   693.68         34.3570
   693.82         34.2934
   693.96         34.2399
   694.10         34.2045
   694.24         34.1923
   694.38         34.2045
   694.52         34.2404
   694.66         34.2972
   694.80         34.3683
   694.94         34.4449
   695.08         34.5205
   695.22         34.5922
   695.36         34.6575
   695.50         34.7139
   695.64         34.7630
   695.78         34.8114
   695.92         34.8654
   696.06         34.9290
   696.20         35.0036
   696.34         35.0883
   696.48         35.1816
   696.62         35.2822
   696.76         35.3874
   696.90         35.4929
   697.04         35.5929
   697.18         35.6792
   697.32         35.7413
   697.46         35.7671
   697.60         35.7470
   697.74         35.6782
   697.88         35.5652
   698.02         35.4165
   698.16         35.2412
   698.30         35.0500
   698.44         34.8526
   698.58         34.6557
   698.72         34.4656
   698.86         34.2885
   699.00         34.1304
   699.14         33.9959
   699.28         33.8893
   699.42         33.8140
   699.56         33.7712
   699.70         33.7561
   699.84         33.7597
   699.98         33.7734
   700.12         33.7908
   700.26         33.8090
   700.40         33.8252
   700.54         33.8360
   700.68         33.8364
   700.82         33.8242
   700.96         33.8022
   701.10         33.7743
   701.24         33.7449
   701.38         33.7194
   701.52         33.7033
   701.66         33.6998
   701.80         33.7083
   701.94         33.7249
   702.08         33.7437
   702.22         33.7577
   702.36         33.7594
   702.50         33.7439
   702.64         33.7092
   702.78         33.6560
   702.92         33.5884
   703.06         33.5146
   703.20         33.4459
   703.34         33.3928
   703.48         33.3640
   703.62         33.3642
   703.76         33.3921
   703.90         33.4429
   704.04         33.5096
   704.18         33.5830
   704.32         33.6535
   704.46         33.7123
   704.60         33.7522
   704.74         33.7650
   704.88         33.7411
   705.02         33.6723
   705.16         33.5539
   705.30         33.3857
   705.44         33.1722
   705.58         32.9255
   705.72         32.6637
   705.86         32.4072
   706.00         32.1779
   706.14         31.9962
   706.28         31.8757
   706.42         31.8231
   706.56         31.8418
   706.70         31.9292
   706.84         32.0747
   706.98         32.2607
   707.12         32.4653
   707.26         32.6621
   707.40         32.8286
   707.54         32.9529
   707.68         33.0332
   707.82         33.0746
   707.96         33.0860
   708.10         33.0794
   708.24         33.0699
   708.38         33.0715
   708.52         33.0925
   708.66         33.1335
   708.80         33.1878
   708.94         33.2418
   709.08         33.2820
   709.22         33.2978
   709.36         33.2812
   709.50         33.2296
   709.64         33.1472
   709.78         33.0415
   709.92         32.9201
   710.06         32.7906
   710.20         32.6606
   710.34         32.5369
   710.48         32.4250
   710.62         32.3288
   710.76         32.2514
   710.90         32.1966
   711.04         32.1654
   711.18         32.1529
   711.32         32.1514
   711.46         32.1528
   711.60         32.1517
   711.74         32.1486
   711.88         32.1459
   712.02         32.1460
   712.16         32.1497
   712.30         32.1571
   712.44         32.1665
   712.58         32.1740
   712.72         32.1783
   712.86         32.1829
   713.00         32.1925
   713.14         32.2105
   713.28         32.2393
   713.42         32.2796
   713.56         32.3289
   713.70         32.3823
   713.84         32.4336
   713.98         32.4765
   714.12         32.5049
   714.26         32.5154
   714.40         32.5090
   714.54         32.4887
   714.68         32.4596
   714.82         32.4261
   714.96         32.3892
   715.10         32.3475
   715.24         32.3023
   715.38         32.2578
   715.52         32.2171
   715.66         32.1790
   715.80         32.1385
   715.94         32.0880
   716.08         32.0160
   716.22         31.9110
   716.36         31.7653
   716.50         31.5769
   716.64         31.3499
   716.78         31.0957
   716.92         30.8283
   717.06         30.5609
   717.20         30.3038
   717.34         30.0623
   717.48         29.8404
   717.62         29.6463
   717.76         29.4916
   717.90         29.3824
   718.04         29.3162
   718.18         29.2862
   718.32         29.2865
   718.46         29.3135
   718.60         29.3632
   718.74         29.4289
   718.88         29.5036
   719.02         29.5847
   719.16         29.6723
   719.30         29.7643
   719.44         29.8565
   719.58         29.9454
   719.72         30.0308
   719.86         30.1132
   720.00         30.1945
   720.14         30.2788
   720.28         30.3679
   720.42         30.4582
   720.56         30.5449
   720.70         30.6277
   720.84         30.7102
   720.98         30.7965
   721.12         30.8851
   721.26         30.9681
   721.40         31.0372
   721.54         31.0877
   721.68         31.1190
   721.82         31.1299
   721.96         31.1175
   722.10         31.0783
   722.24         31.0079
   722.38         30.9039
   722.52         30.7701
   722.66         30.6175
   722.80         30.4582
   722.94         30.3029
   723.08         30.1630
   723.22         30.0483
   723.36         29.9650
   723.50         29.9174
   723.64         29.9085
   723.78         29.9347
   723.92         29.9855
   724.06         30.0487
   724.20         30.1117
   724.34         30.1646
   724.48         30.2020
   724.62         30.2209
   724.76         30.2190
   724.90         30.1990
   725.04         30.1693
   725.18         30.1375
   725.32         30.1050
   725.46         30.0730
   725.60         30.0464
   725.74         30.0321
   725.88         30.0350
   726.02         30.0573
   726.16         30.0981
   726.30         30.1505
   726.44         30.1989
   726.58         30.2265
   726.72         30.2252
   726.86         30.1956
   727.00         30.1426
   727.14         30.0713
   727.28         29.9848
   727.42         29.8866
   727.56         29.7826
   727.70         29.6763
   727.84         29.5684
   727.98         29.4610
   728.12         29.3607
   728.26         29.2731
   728.40         29.1992
   728.54         29.1372
   728.68         29.0865
   728.82         29.0502
   728.96         29.0285
   729.10         29.0175
   729.24         29.0158
   729.38         29.0266
   729.52         29.0536
   729.66         29.0961
   729.80         29.1481
   729.94         29.2002
   730.08         29.2427
   730.22         29.2696
   730.36         29.2774
   730.50         29.2654
   730.64         29.2360
   730.78         29.1954
   730.92         29.1513
   731.06         29.1117
   731.20         29.0828
   731.34         29.0694
   731.48         29.0720
   731.62         29.0854
   731.76         29.1015
   731.90         29.1130
   732.04         29.1137
   732.18         29.0970
   732.32         29.0556
   732.46         28.9858
   732.60         28.8916
   732.74         28.7843
   732.88         28.6777
   733.02         28.5825
   733.16         28.5070
   733.30         28.4590
   733.44         28.4441
   733.58         28.4616
   733.72         28.5019
   733.86         28.5489
   734.00         28.5882
   734.14         28.6104
   734.28         28.6066
   734.42         28.5710
   734.56         28.5047
   734.70         28.4167
   734.84         28.3206
   734.98         28.2284
   735.12         28.1486
   735.26         28.0847
   735.40         28.0365
   735.54         28.0026
   735.68         27.9798
   735.82         27.9654
   735.96         27.9575
   736.10         27.9547
   736.24         27.9541
   736.38         27.9514
   736.52         27.9451
   736.66         27.9359
   736.80         27.9216
   736.94         27.8970
   737.08         27.8603
   737.22         27.8146
   737.36         27.7647
   737.50         27.7134
   737.64         27.6611
   737.78         27.6087
   737.92         27.5604
   738.06         27.5217
   738.20         27.4965
   738.34         27.4865
   738.48         27.4915
   738.62         27.5083
   738.76         27.5296
   738.90         27.5467
   739.04         27.5544
   739.18         27.5521
   739.32         27.5410
   739.46         27.5224
   739.60         27.5006
   739.74         27.4822
   739.88         27.4728
   740.02         27.4745
   740.16         27.4882
   740.30         27.5142
   740.44         27.5514
   740.58         27.5968
   740.72         27.6476
   740.86         27.7024
   741.00         27.7603
   741.14         27.8198
   741.28         27.8780
   741.42         27.9325
   741.56         27.9827
   741.70         28.0291
   741.84         28.0703
   741.98         28.1043
   742.12         28.1314
   742.26         28.1543
   742.40         28.1747
   742.54         28.1922
   742.68         28.2052
   742.82         28.2122
   742.96         28.2122
   743.10         28.2052
   743.24         28.1922
   743.38         28.1747
   743.52         28.1543
   743.66         28.1314
   743.80         28.1043
   743.94         28.0703
   744.08         28.0291
   744.22         27.9827
