# File SAO102986
# Wavelength [nm]    Normalized Amplitude
   349.70         3.5443
   349.84         3.5324
   349.98         3.5215
   350.12         3.5122
   350.26         3.5056
   350.40         3.5023
   350.54         3.5021
   350.68         3.5043
   350.82         3.5076
   350.96         3.5105
   351.10         3.5115
   351.24         3.5105
   351.38         3.5076
   351.52         3.5043
   351.66         3.5021
   351.80         3.5023
   351.94         3.5056
   352.08         3.5122
   352.22         3.5215
   352.36         3.5324
   352.50         3.5443
   352.64         3.5570
   352.78         3.5696
   352.92         3.5802
   353.06         3.5877
   353.20         3.5923
   353.34         3.5960
   353.48         3.6014
   353.62         3.6105
   353.76         3.6246
   353.90         3.6445
   354.04         3.6693
   354.18         3.6967
   354.32         3.7240
   354.46         3.7487
   354.60         3.7686
   354.74         3.7820
   354.88         3.7878
   355.02         3.7859
   355.16         3.7761
   355.30         3.7580
   355.44         3.7315
   355.58         3.6974
   355.72         3.6580
   355.86         3.6167
   356.00         3.5762
   356.14         3.5382
   356.28         3.5048
   356.42         3.4785
   356.56         3.4609
   356.70         3.4518
   356.84         3.4497
   356.98         3.4519
   357.12         3.4553
   357.26         3.4566
   357.40         3.4534
   357.54         3.4447
   357.68         3.4316
   357.82         3.4163
   357.96         3.4023
   358.10         3.3941
   358.24         3.3967
   358.38         3.4145
   358.52         3.4489
   358.66         3.4985
   358.80         3.5600
   358.94         3.6283
   359.08         3.6971
   359.22         3.7592
   359.36         3.8082
   359.50         3.8394
   359.64         3.8509
   359.78         3.8437
   359.92         3.8215
   360.06         3.7891
   360.20         3.7522
   360.34         3.7150
   360.48         3.6801
   360.62         3.6487
   360.76         3.6224
   360.90         3.6018
   361.04         3.5874
   361.18         3.5796
   361.32         3.5787
   361.46         3.5845
   361.60         3.5956
   361.74         3.6093
   361.88         3.6228
   362.02         3.6339
   362.16         3.6424
   362.30         3.6495
   362.44         3.6575
   362.58         3.6681
   362.72         3.6813
   362.86         3.6958
   363.00         3.7093
   363.14         3.7210
   363.28         3.7314
   363.42         3.7412
   363.56         3.7512
   363.70         3.7619
   363.84         3.7736
   363.98         3.7868
   364.12         3.8023
   364.26         3.8209
   364.40         3.8439
   364.54         3.8727
   364.68         3.9076
   364.82         3.9480
   364.96         3.9917
   365.10         4.0356
   365.24         4.0759
   365.38         4.1090
   365.52         4.1332
   365.66         4.1487
   365.80         4.1570
   365.94         4.1590
   366.08         4.1556
   366.22         4.1478
   366.36         4.1365
   366.50         4.1220
   366.64         4.1046
   366.78         4.0840
   366.92         4.0600
   367.06         4.0326
   367.20         4.0028
   367.34         3.9730
   367.48         3.9465
   367.62         3.9268
   367.76         3.9160
   367.90         3.9150
   368.04         3.9238
   368.18         3.9419
   368.32         3.9686
   368.46         4.0006
   368.60         4.0325
   368.74         4.0590
   368.88         4.0761
   369.02         4.0805
   369.16         4.0706
   369.30         4.0463
   369.44         4.0095
   369.58         3.9628
   369.72         3.9107
   369.86         3.8589
   370.00         3.8141
   370.14         3.7833
   370.28         3.7716
   370.42         3.7807
   370.56         3.8084
   370.70         3.8501
   370.84         3.8990
   370.98         3.9483
   371.12         3.9927
   371.26         4.0294
   371.40         4.0579
   371.54         4.0789
   371.68         4.0935
   371.82         4.1018
   371.96         4.1022
   372.10         4.0934
   372.24         4.0754
   372.38         4.0503
   372.52         4.0222
   372.66         3.9954
   372.80         3.9728
   372.94         3.9548
   373.08         3.9402
   373.22         3.9281
   373.36         3.9176
   373.50         3.9078
   373.64         3.8979
   373.78         3.8877
   373.92         3.8773
   374.06         3.8676
   374.20         3.8600
   374.34         3.8549
   374.48         3.8528
   374.62         3.8562
   374.76         3.8691
   374.90         3.8963
   375.04         3.9402
   375.18         3.9990
   375.32         4.0675
   375.46         4.1376
   375.60         4.2000
   375.74         4.2476
   375.88         4.2763
   376.02         4.2855
   376.16         4.2788
   376.30         4.2638
   376.44         4.2506
   376.58         4.2482
   376.72         4.2625
   376.86         4.2962
   377.00         4.3503
   377.14         4.4242
   377.28         4.5142
   377.42         4.6137
   377.56         4.7139
   377.70         4.8050
   377.84         4.8780
   377.98         4.9260
   378.12         4.9445
   378.26         4.9314
   378.40         4.8875
   378.54         4.8181
   378.68         4.7318
   378.82         4.6394
   378.96         4.5526
   379.10         4.4813
   379.24         4.4322
   379.38         4.4099
   379.52         4.4173
   379.66         4.4544
   379.80         4.5174
   379.94         4.5998
   380.08         4.6932
   380.22         4.7891
   380.36         4.8787
   380.50         4.9545
   380.64         5.0102
   380.78         5.0423
   380.92         5.0497
   381.06         5.0348
   381.20         5.0026
   381.34         4.9574
   381.48         4.9012
   381.62         4.8344
   381.76         4.7567
   381.90         4.6682
   382.04         4.5684
   382.18         4.4576
   382.32         4.3367
   382.46         4.2093
   382.60         4.0819
   382.74         3.9644
   382.88         3.8685
   383.02         3.8052
   383.16         3.7835
   383.30         3.8087
   383.44         3.8818
   383.58         3.9986
   383.72         4.1517
   383.86         4.3317
   384.00         4.5263
   384.14         4.7221
   384.28         4.9064
   384.42         5.0681
   384.56         5.1984
   384.70         5.2935
   384.84         5.3550
   384.98         5.3882
   385.12         5.4004
   385.26         5.4001
   385.40         5.3952
   385.54         5.3913
   385.68         5.3903
   385.82         5.3923
   385.96         5.3964
   386.10         5.4002
   386.24         5.4010
   386.38         5.3968
   386.52         5.3866
   386.66         5.3694
   386.80         5.3437
   386.94         5.3077
   387.08         5.2595
   387.22         5.1977
   387.36         5.1215
   387.50         5.0312
   387.64         4.9286
   387.78         4.8184
   387.92         4.7066
   388.06         4.6005
   388.20         4.5064
   388.34         4.4302
   388.48         4.3768
   388.62         4.3500
   388.76         4.3518
   388.90         4.3815
   389.04         4.4360
   389.18         4.5103
   389.32         4.5974
   389.46         4.6893
   389.60         4.7793
   389.74         4.8630
   389.88         4.9373
   390.02         5.0011
   390.16         5.0555
   390.30         5.1023
   390.44         5.1418
   390.58         5.1728
   390.72         5.1942
   390.86         5.2049
   391.00         5.2031
   391.14         5.1868
   391.28         5.1532
   391.42         5.0983
   391.56         5.0163
   391.70         4.9013
   391.84         4.7489
   391.98         4.5585
   392.12         4.3348
   392.26         4.0893
   392.40         3.8385
   392.54         3.6009
   392.68         3.3960
   392.82         3.2419
   392.96         3.1521
   393.10         3.1351
   393.24         3.1936
   393.38         3.3233
   393.52         3.5122
   393.66         3.7430
   393.80         3.9956
   393.94         4.2495
   394.08         4.4860
   394.22         4.6909
   394.36         4.8569
   394.50         4.9826
   394.64         5.0702
   394.78         5.1228
   394.92         5.1420
   395.06         5.1252
   395.20         5.0672
   395.34         4.9631
   395.48         4.8118
   395.62         4.6176
   395.76         4.3912
   395.90         4.1485
   396.04         3.9089
   396.18         3.6934
   396.32         3.5224
   396.46         3.4128
   396.60         3.3750
   396.74         3.4124
   396.88         3.5218
   397.02         3.6932
   397.16         3.9100
   397.30         4.1522
   397.44         4.4000
   397.58         4.6358
   397.72         4.8462
   397.86         5.0246
   398.00         5.1700
   398.14         5.2858
   398.28         5.3771
   398.42         5.4498
   398.56         5.5090
   398.70         5.5584
   398.84         5.6002
   398.98         5.6349
   399.12         5.6621
   399.26         5.6815
   399.40         5.6934
   399.54         5.7004
   399.68         5.7051
   399.82         5.7098
   399.96         5.7163
   400.10         5.7256
   400.24         5.7381
   400.38         5.7532
   400.52         5.7691
   400.66         5.7835
   400.80         5.7942
   400.94         5.8009
   401.08         5.8040
   401.22         5.8044
   401.36         5.8016
   401.50         5.7945
   401.64         5.7824
   401.78         5.7662
   401.92         5.7477
   402.06         5.7297
   402.20         5.7151
   402.34         5.7059
   402.48         5.7026
   402.62         5.7051
   402.76         5.7126
   402.90         5.7232
   403.04         5.7341
   403.18         5.7434
   403.32         5.7509
   403.46         5.7579
   403.60         5.7651
   403.74         5.7724
   403.88         5.7782
   404.02         5.7814
   404.16         5.7815
   404.30         5.7794
   404.44         5.7760
   404.58         5.7718
   404.72         5.7667
   404.86         5.7602
   405.00         5.7507
   405.14         5.7370
   405.28         5.7184
   405.42         5.6961
   405.56         5.6715
   405.70         5.6463
   405.84         5.6236
   405.98         5.6056
   406.12         5.5927
   406.26         5.5830
   406.40         5.5747
   406.54         5.5672
   406.68         5.5611
   406.82         5.5563
   406.96         5.5527
   407.10         5.5497
   407.24         5.5474
   407.38         5.5459
   407.52         5.5451
   407.66         5.5448
   407.80         5.5450
   407.94         5.5447
   408.08         5.5414
   408.22         5.5316
   408.36         5.5116
   408.50         5.4771
   408.64         5.4233
   408.78         5.3469
   408.92         5.2490
   409.06         5.1355
   409.20         5.0158
   409.34         4.8997
   409.48         4.7969
   409.62         4.7167
   409.76         4.6671
   409.90         4.6538
   410.04         4.6780
   410.18         4.7379
   410.32         4.8285
   410.46         4.9410
   410.60         5.0645
   410.74         5.1883
   410.88         5.3041
   411.02         5.4054
   411.16         5.4880
   411.30         5.5515
   411.44         5.5990
   411.58         5.6335
   411.72         5.6572
   411.86         5.6718
   412.00         5.6788
   412.14         5.6812
   412.28         5.6822
   412.42         5.6845
   412.56         5.6888
   412.70         5.6947
   412.84         5.7022
   412.98         5.7108
   413.12         5.7197
   413.26         5.7287
   413.40         5.7376
   413.54         5.7461
   413.68         5.7530
   413.82         5.7569
   413.96         5.7566
   414.10         5.7517
   414.24         5.7431
   414.38         5.7334
   414.52         5.7249
   414.66         5.7187
   414.80         5.7148
   414.94         5.7128
   415.08         5.7118
   415.22         5.7117
   415.36         5.7127
   415.50         5.7151
   415.64         5.7183
   415.78         5.7207
   415.92         5.7201
   416.06         5.7149
   416.20         5.7046
   416.34         5.6895
   416.48         5.6704
   416.62         5.6489
   416.76         5.6265
   416.90         5.6047
   417.04         5.5842
   417.18         5.5648
   417.32         5.5473
   417.46         5.5339
   417.60         5.5258
   417.74         5.5225
   417.88         5.5232
   418.02         5.5273
   418.16         5.5340
   418.30         5.5422
   418.44         5.5505
   418.58         5.5577
   418.72         5.5634
   418.86         5.5676
   419.00         5.5696
   419.14         5.5690
   419.28         5.5655
   419.42         5.5591
   419.56         5.5511
   419.70         5.5435
   419.84         5.5385
   419.98         5.5376
   420.12         5.5408
   420.26         5.5471
   420.40         5.5564
   420.54         5.5681
   420.68         5.5807
   420.82         5.5915
   420.96         5.5975
   421.10         5.5962
   421.24         5.5860
   421.38         5.5679
   421.52         5.5451
   421.66         5.5208
   421.80         5.4979
   421.94         5.4784
   422.08         5.4633
   422.22         5.4535
   422.36         5.4499
   422.50         5.4520
   422.64         5.4593
   422.78         5.4719
   422.92         5.4893
   423.06         5.5104
   423.20         5.5325
   423.34         5.5527
   423.48         5.5681
   423.62         5.5769
   423.76         5.5793
   423.90         5.5768
   424.04         5.5718
   424.18         5.5652
   424.32         5.5570
   424.46         5.5468
   424.60         5.5344
   424.74         5.5212
   424.88         5.5092
   425.02         5.5003
   425.16         5.4950
   425.30         5.4932
   425.44         5.4945
   425.58         5.4974
   425.72         5.4997
   425.86         5.4996
   426.00         5.4958
   426.14         5.4883
   426.28         5.4781
   426.42         5.4657
   426.56         5.4518
   426.70         5.4369
   426.84         5.4221
   426.98         5.4083
   427.12         5.3961
   427.26         5.3858
   427.40         5.3779
   427.54         5.3717
   427.68         5.3658
   427.82         5.3595
   427.96         5.3520
   428.10         5.3426
   428.24         5.3297
   428.38         5.3125
   428.52         5.2909
   428.66         5.2646
   428.80         5.2336
   428.94         5.1981
   429.08         5.1585
   429.22         5.1160
   429.36         5.0716
   429.50         5.0265
   429.64         4.9823
   429.78         4.9406
   429.92         4.9038
   430.06         4.8750
   430.20         4.8580
   430.34         4.8562
   430.48         4.8714
   430.62         4.9028
   430.76         4.9483
   430.90         5.0037
   431.04         5.0639
   431.18         5.1233
   431.32         5.1786
   431.46         5.2285
   431.60         5.2720
   431.74         5.3079
   431.88         5.3356
   432.02         5.3540
   432.16         5.3619
   432.30         5.3564
   432.44         5.3340
   432.58         5.2912
   432.72         5.2269
   432.86         5.1426
   433.00         5.0424
   433.14         4.9332
   433.28         4.8242
   433.42         4.7257
   433.56         4.6465
   433.70         4.5937
   433.84         4.5727
   433.98         4.5862
   434.12         4.6327
   434.26         4.7067
   434.40         4.8015
   434.54         4.9090
   434.68         5.0202
   434.82         5.1267
   434.96         5.2229
   435.10         5.3060
   435.24         5.3764
   435.38         5.4365
   435.52         5.4892
   435.66         5.5366
   435.80         5.5786
   435.94         5.6141
   436.08         5.6407
   436.22         5.6564
   436.36         5.6610
   436.50         5.6566
   436.64         5.6458
   436.78         5.6307
   436.92         5.6126
   437.06         5.5924
   437.20         5.5708
   437.34         5.5487
   437.48         5.5278
   437.62         5.5093
   437.76         5.4944
   437.90         5.4839
   438.04         5.4786
   438.18         5.4792
   438.32         5.4854
   438.46         5.4958
   438.60         5.5086
   438.74         5.5228
   438.88         5.5375
   439.02         5.5516
   439.16         5.5639
   439.30         5.5732
   439.44         5.5783
   439.58         5.5794
   439.72         5.5780
   439.86         5.5764
   440.00         5.5763
   440.14         5.5786
   440.28         5.5838
   440.42         5.5921
   440.56         5.6030
   440.70         5.6163
   440.84         5.6318
   440.98         5.6487
   441.12         5.6660
   441.26         5.6831
   441.40         5.7003
   441.54         5.7179
   441.68         5.7356
   441.82         5.7531
   441.96         5.7695
   442.10         5.7828
   442.24         5.7919
   442.38         5.7974
   442.52         5.8001
   442.66         5.8000
   442.80         5.7971
   442.94         5.7921
   443.08         5.7863
   443.22         5.7814
   443.36         5.7777
   443.50         5.7749
   443.64         5.7717
   443.78         5.7668
   443.92         5.7595
   444.06         5.7490
   444.20         5.7344
   444.34         5.7156
   444.48         5.6942
   444.62         5.6715
   444.76         5.6485
   444.90         5.6272
   445.04         5.6103
   445.18         5.5997
   445.32         5.5958
   445.46         5.5980
   445.60         5.6059
   445.74         5.6184
   445.88         5.6332
   446.02         5.6479
   446.16         5.6611
   446.30         5.6725
   446.44         5.6818
   446.58         5.6887
   446.72         5.6933
   446.86         5.6963
   447.00         5.6993
   447.14         5.7033
   447.28         5.7085
   447.42         5.7147
   447.56         5.7220
   447.70         5.7296
   447.84         5.7363
   447.98         5.7408
   448.12         5.7424
   448.26         5.7417
   448.40         5.7397
   448.54         5.7371
   448.68         5.7346
   448.82         5.7328
   448.96         5.7324
   449.10         5.7346
   449.24         5.7397
   449.38         5.7475
   449.52         5.7577
   449.66         5.7704
   449.80         5.7841
   449.94         5.7964
   450.08         5.8048
   450.22         5.8077
   450.36         5.8049
   450.50         5.7972
   450.64         5.7856
   450.78         5.7702
   450.92         5.7519
   451.06         5.7320
   451.20         5.7119
   451.34         5.6926
   451.48         5.6757
   451.62         5.6622
   451.76         5.6518
   451.90         5.6426
   452.04         5.6335
   452.18         5.6241
   452.32         5.6144
   452.46         5.6046
   452.60         5.5959
   452.74         5.5905
   452.88         5.5892
   453.02         5.5920
   453.16         5.5980
   453.30         5.6058
   453.44         5.6137
   453.58         5.6211
   453.72         5.6273
   453.86         5.6299
   454.00         5.6273
   454.14         5.6192
   454.28         5.6070
   454.42         5.5934
   454.56         5.5813
   454.70         5.5737
   454.84         5.5738
   454.98         5.5840
   455.12         5.6045
   455.26         5.6338
   455.40         5.6688
   455.54         5.7044
   455.68         5.7362
   455.82         5.7611
   455.96         5.7765
   456.10         5.7815
   456.24         5.7762
   456.38         5.7609
   456.52         5.7368
   456.66         5.7069
   456.80         5.6750
   456.94         5.6447
   457.08         5.6187
   457.22         5.5981
   457.36         5.5831
   457.50         5.5742
   457.64         5.5705
   457.78         5.5711
   457.92         5.5752
   458.06         5.5821
   458.20         5.5912
   458.34         5.6019
   458.48         5.6128
   458.62         5.6228
   458.76         5.6308
   458.90         5.6367
   459.04         5.6403
   459.18         5.6415
   459.32         5.6402
   459.46         5.6368
   459.60         5.6318
   459.74         5.6252
   459.88         5.6166
   460.02         5.6055
   460.16         5.5925
   460.30         5.5783
   460.44         5.5638
   460.58         5.5494
   460.72         5.5353
   460.86         5.5224
   461.00         5.5118
   461.14         5.5053
   461.28         5.5037
   461.42         5.5075
   461.56         5.5164
   461.70         5.5289
   461.84         5.5428
   461.98         5.5560
   462.12         5.5673
   462.26         5.5763
   462.40         5.5831
   462.54         5.5876
   462.68         5.5900
   462.82         5.5914
   462.96         5.5929
   463.10         5.5950
   463.24         5.5979
   463.38         5.6015
   463.52         5.6057
   463.66         5.6097
   463.80         5.6121
   463.94         5.6112
   464.08         5.6067
   464.22         5.5982
   464.36         5.5869
   464.50         5.5748
   464.64         5.5641
   464.78         5.5560
   464.92         5.5516
   465.06         5.5513
   465.20         5.5544
   465.34         5.5589
   465.48         5.5640
   465.62         5.5702
   465.76         5.5779
   465.90         5.5874
   466.04         5.5985
   466.18         5.6103
   466.32         5.6215
   466.46         5.6308
   466.60         5.6380
   466.74         5.6440
   466.88         5.6497
   467.02         5.6569
   467.16         5.6662
   467.30         5.6773
   467.44         5.6892
   467.58         5.7012
   467.72         5.7126
   467.86         5.7229
   468.00         5.7319
   468.14         5.7403
   468.28         5.7481
   468.42         5.7536
   468.56         5.7544
   468.70         5.7495
   468.84         5.7385
   468.98         5.7220
   469.12         5.7015
   469.26         5.6792
   469.40         5.6567
   469.54         5.6354
   469.68         5.6164
   469.82         5.5997
   469.96         5.5855
   470.10         5.5749
   470.24         5.5689
   470.38         5.5674
   470.52         5.5695
   470.66         5.5729
   470.80         5.5753
   470.94         5.5752
   471.08         5.5713
   471.22         5.5628
   471.36         5.5498
   471.50         5.5328
   471.64         5.5131
   471.78         5.4935
   471.92         5.4762
   472.06         5.4626
   472.20         5.4533
   472.34         5.4483
   472.48         5.4473
   472.62         5.4498
   472.76         5.4549
   472.90         5.4610
   473.04         5.4665
   473.18         5.4706
   473.32         5.4727
   473.46         5.4728
   473.60         5.4716
   473.74         5.4693
   473.88         5.4662
   474.02         5.4626
   474.16         5.4588
   474.30         5.4552
   474.44         5.4516
   474.58         5.4476
   474.72         5.4427
   474.86         5.4367
   475.00         5.4290
   475.14         5.4198
   475.28         5.4100
   475.42         5.4005
   475.56         5.3917
   475.70         5.3834
   475.84         5.3756
   475.98         5.3689
   476.12         5.3643
   476.26         5.3626
   476.40         5.3637
   476.54         5.3675
   476.68         5.3740
   476.82         5.3832
   476.96         5.3947
   477.10         5.4081
   477.24         5.4221
   477.38         5.4357
   477.52         5.4475
   477.66         5.4570
   477.80         5.4649
   477.94         5.4726
   478.08         5.4808
   478.22         5.4889
   478.36         5.4963
   478.50         5.5022
   478.64         5.5067
   478.78         5.5093
   478.92         5.5096
   479.06         5.5067
   479.20         5.5008
   479.34         5.4924
   479.48         5.4821
   479.62         5.4701
   479.76         5.4565
   479.90         5.4415
   480.04         5.4254
   480.18         5.4090
   480.32         5.3930
   480.46         5.3782
   480.60         5.3652
   480.74         5.3543
   480.88         5.3454
   481.02         5.3388
   481.16         5.3351
   481.30         5.3350
   481.44         5.3382
   481.58         5.3440
   481.72         5.3512
   481.86         5.3588
   482.00         5.3662
   482.14         5.3728
   482.28         5.3775
   482.42         5.3794
   482.56         5.3775
   482.70         5.3717
   482.84         5.3623
   482.98         5.3502
   483.12         5.3367
   483.26         5.3226
   483.40         5.3077
   483.54         5.2916
   483.68         5.2742
   483.82         5.2549
   483.96         5.2325
   484.10         5.2040
   484.24         5.1655
   484.38         5.1131
   484.52         5.0446
   484.66         4.9607
   484.80         4.8648
   484.94         4.7630
   485.08         4.6625
   485.22         4.5714
   485.36         4.4972
   485.50         4.4457
   485.64         4.4205
   485.78         4.4230
   485.92         4.4521
   486.06         4.5047
   486.20         4.5760
   486.34         4.6599
   486.48         4.7489
   486.62         4.8355
   486.76         4.9135
   486.90         4.9795
   487.04         5.0330
   487.18         5.0757
   487.32         5.1100
   487.46         5.1374
   487.60         5.1584
   487.74         5.1730
   487.88         5.1820
   488.02         5.1873
   488.16         5.1915
   488.30         5.1974
   488.44         5.2070
   488.58         5.2212
   488.72         5.2401
   488.86         5.2628
   489.00         5.2880
   489.14         5.3136
   489.28         5.3379
   489.42         5.3592
   489.56         5.3759
   489.70         5.3865
   489.84         5.3899
   489.98         5.3854
   490.12         5.3732
   490.26         5.3543
   490.40         5.3302
   490.54         5.3029
   490.68         5.2743
   490.82         5.2461
   490.96         5.2199
   491.10         5.1974
   491.24         5.1806
   491.38         5.1716
   491.52         5.1717
   491.66         5.1806
   491.80         5.1967
   491.94         5.2168
   492.08         5.2377
   492.22         5.2567
   492.36         5.2715
   492.50         5.2803
   492.64         5.2825
   492.78         5.2796
   492.92         5.2742
   493.06         5.2695
   493.20         5.2680
   493.34         5.2713
   493.48         5.2793
   493.62         5.2912
   493.76         5.3059
   493.90         5.3217
   494.04         5.3362
   494.18         5.3465
   494.32         5.3501
   494.46         5.3463
   494.60         5.3365
   494.74         5.3232
   494.88         5.3086
   495.02         5.2941
   495.16         5.2809
   495.30         5.2701
   495.44         5.2624
   495.58         5.2572
   495.72         5.2534
   495.86         5.2503
   496.00         5.2475
   496.14         5.2448
   496.28         5.2425
   496.42         5.2414
   496.56         5.2410
   496.70         5.2400
   496.84         5.2369
   496.98         5.2312
   497.12         5.2231
   497.26         5.2131
   497.40         5.2008
   497.54         5.1866
   497.68         5.1717
   497.82         5.1580
   497.96         5.1473
   498.10         5.1408
   498.24         5.1392
   498.38         5.1428
   498.52         5.1506
   498.66         5.1611
   498.80         5.1728
   498.94         5.1847
   499.08         5.1951
   499.22         5.2011
   499.36         5.2005
   499.50         5.1925
   499.64         5.1783
   499.78         5.1600
   499.92         5.1396
   500.06         5.1185
   500.20         5.0984
   500.34         5.0806
   500.48         5.0659
   500.62         5.0553
   500.76         5.0494
   500.90         5.0491
   501.04         5.0541
   501.18         5.0641
   501.32         5.0780
   501.46         5.0949
   501.60         5.1129
   501.74         5.1305
   501.88         5.1464
   502.02         5.1610
   502.16         5.1749
   502.30         5.1885
   502.44         5.2013
   502.58         5.2119
   502.72         5.2192
   502.86         5.2229
   503.00         5.2231
   503.14         5.2201
   503.28         5.2139
   503.42         5.2050
   503.56         5.1938
   503.70         5.1803
   503.84         5.1656
   503.98         5.1512
   504.12         5.1384
   504.26         5.1282
   504.40         5.1211
   504.54         5.1169
   504.68         5.1155
   504.82         5.1166
   504.96         5.1196
   505.10         5.1234
   505.24         5.1275
   505.38         5.1318
   505.52         5.1365
   505.66         5.1416
   505.80         5.1461
   505.94         5.1494
   506.08         5.1515
   506.22         5.1527
   506.36         5.1532
   506.50         5.1529
   506.64         5.1514
   506.78         5.1478
   506.92         5.1416
   507.06         5.1328
   507.20         5.1229
   507.34         5.1134
   507.48         5.1053
   507.62         5.0993
   507.76         5.0964
   507.90         5.0973
   508.04         5.1025
   508.18         5.1113
   508.32         5.1222
   508.46         5.1335
   508.60         5.1440
   508.74         5.1536
   508.88         5.1617
   509.02         5.1672
   509.16         5.1695
   509.30         5.1684
   509.44         5.1644
   509.58         5.1585
   509.72         5.1520
   509.86         5.1458
   510.00         5.1409
   510.14         5.1383
   510.28         5.1386
   510.42         5.1423
   510.56         5.1487
   510.70         5.1561
   510.84         5.1621
   510.98         5.1646
   511.12         5.1629
   511.26         5.1573
   511.40         5.1484
   511.54         5.1364
   511.68         5.1216
   511.82         5.1047
   511.96         5.0868
   512.10         5.0693
   512.24         5.0525
   512.38         5.0368
   512.52         5.0224
   512.66         5.0095
   512.80         4.9984
   512.94         4.9886
   513.08         4.9794
   513.22         4.9701
   513.36         4.9604
   513.50         4.9514
   513.64         4.9447
   513.78         4.9416
   513.92         4.9426
   514.06         4.9472
   514.20         4.9542
   514.34         4.9620
   514.48         4.9696
   514.62         4.9761
   514.76         4.9807
   514.90         4.9824
   515.04         4.9804
   515.18         4.9740
   515.32         4.9625
   515.46         4.9454
   515.60         4.9221
   515.74         4.8929
   515.88         4.8596
   516.02         4.8258
   516.16         4.7957
   516.30         4.7723
   516.44         4.7576
   516.58         4.7520
   516.72         4.7538
   516.86         4.7603
   517.00         4.7695
   517.14         4.7799
   517.28         4.7900
   517.42         4.7983
   517.56         4.8034
   517.70         4.8044
   517.84         4.8015
   517.98         4.7957
   518.12         4.7885
   518.26         4.7822
   518.40         4.7796
   518.54         4.7824
   518.68         4.7907
   518.82         4.8024
   518.96         4.8149
   519.10         4.8252
   519.24         4.8317
   519.38         4.8340
   519.52         4.8337
   519.66         4.8330
   519.80         4.8337
   519.94         4.8360
   520.08         4.8395
   520.22         4.8435
   520.36         4.8473
   520.50         4.8509
   520.64         4.8551
   520.78         4.8603
   520.92         4.8662
   521.06         4.8716
   521.20         4.8748
   521.34         4.8747
   521.48         4.8715
   521.62         4.8661
   521.76         4.8598
   521.90         4.8537
   522.04         4.8491
   522.18         4.8469
   522.32         4.8473
   522.46         4.8499
   522.60         4.8550
   522.74         4.8630
   522.88         4.8742
   523.02         4.8887
   523.16         4.9064
   523.30         4.9262
   523.44         4.9459
   523.58         4.9641
   523.72         4.9796
   523.86         4.9918
   524.00         5.0009
   524.14         5.0071
   524.28         5.0106
   524.42         5.0109
   524.56         5.0076
   524.70         5.0002
   524.84         4.9883
   524.98         4.9717
   525.12         4.9508
   525.26         4.9264
   525.40         4.8986
   525.54         4.8678
   525.68         4.8347
   525.82         4.8007
   525.96         4.7674
   526.10         4.7367
   526.24         4.7109
   526.38         4.6918
   526.52         4.6803
   526.66         4.6766
   526.80         4.6803
   526.94         4.6903
   527.08         4.7055
   527.22         4.7249
   527.36         4.7476
   527.50         4.7722
   527.64         4.7972
   527.78         4.8211
   527.92         4.8424
   528.06         4.8597
   528.20         4.8725
   528.34         4.8809
   528.48         4.8853
   528.62         4.8867
   528.76         4.8865
   528.90         4.8865
   529.04         4.8877
   529.18         4.8912
   529.32         4.8974
   529.46         4.9067
   529.60         4.9188
   529.74         4.9327
   529.88         4.9466
   530.02         4.9588
   530.16         4.9675
   530.30         4.9719
   530.44         4.9718
   530.58         4.9673
   530.72         4.9582
   530.86         4.9445
   531.00         4.9271
   531.14         4.9070
   531.28         4.8857
   531.42         4.8645
   531.56         4.8446
   531.70         4.8265
   531.84         4.8108
   531.98         4.7982
   532.12         4.7894
   532.26         4.7848
   532.40         4.7841
   532.54         4.7873
   532.68         4.7940
   532.82         4.8039
   532.96         4.8164
   533.10         4.8306
   533.24         4.8451
   533.38         4.8589
   533.52         4.8716
   533.66         4.8831
   533.80         4.8939
   533.94         4.9041
   534.08         4.9138
   534.22         4.9227
   534.36         4.9310
   534.50         4.9386
   534.64         4.9450
   534.78         4.9491
   534.92         4.9498
   535.06         4.9469
   535.20         4.9405
   535.34         4.9310
   535.48         4.9183
   535.62         4.9025
   535.76         4.8848
   535.90         4.8669
   536.04         4.8506
   536.18         4.8371
   536.32         4.8274
   536.46         4.8218
   536.60         4.8199
   536.74         4.8212
   536.88         4.8250
   537.02         4.8306
   537.16         4.8370
   537.30         4.8429
   537.44         4.8474
   537.58         4.8501
   537.72         4.8506
   537.86         4.8490
   538.00         4.8450
   538.14         4.8394
   538.28         4.8332
   538.42         4.8273
   538.56         4.8222
   538.70         4.8178
   538.84         4.8136
   538.98         4.8092
   539.12         4.8042
   539.26         4.7992
   539.40         4.7947
   539.54         4.7909
   539.68         4.7875
   539.82         4.7845
   539.96         4.7815
   540.10         4.7790
   540.24         4.7775
   540.38         4.7776
   540.52         4.7795
   540.66         4.7834
   540.80         4.7894
   540.94         4.7969
   541.08         4.8043
   541.22         4.8102
   541.36         4.8137
   541.50         4.8142
   541.64         4.8122
   541.78         4.8085
   541.92         4.8041
   542.06         4.7997
   542.20         4.7960
   542.34         4.7941
   542.48         4.7948
   542.62         4.7982
   542.76         4.8039
   542.90         4.8106
   543.04         4.8172
   543.18         4.8223
   543.32         4.8252
   543.46         4.8249
   543.60         4.8206
   543.74         4.8116
   543.88         4.7983
   544.02         4.7814
   544.16         4.7620
   544.30         4.7410
   544.44         4.7198
   544.58         4.6997
   544.72         4.6818
   544.86         4.6666
   545.00         4.6550
   545.14         4.6477
   545.28         4.6452
   545.42         4.6478
   545.56         4.6545
   545.70         4.6637
   545.84         4.6738
   545.98         4.6827
   546.12         4.6884
   546.26         4.6897
   546.40         4.6864
   546.54         4.6793
   546.68         4.6703
   546.82         4.6611
   546.96         4.6534
   547.10         4.6482
   547.24         4.6463
   547.38         4.6482
   547.52         4.6543
   547.66         4.6645
   547.80         4.6780
   547.94         4.6930
   548.08         4.7073
   548.22         4.7192
   548.36         4.7275
   548.50         4.7322
   548.64         4.7335
   548.78         4.7320
   548.92         4.7284
   549.06         4.7240
   549.20         4.7202
   549.34         4.7181
   549.48         4.7178
   549.62         4.7190
   549.76         4.7213
   549.90         4.7240
   550.04         4.7264
   550.18         4.7278
   550.32         4.7276
   550.46         4.7255
   550.60         4.7213
   550.74         4.7152
   550.88         4.7074
   551.02         4.6980
   551.16         4.6872
   551.30         4.6752
   551.44         4.6627
   551.58         4.6516
   551.72         4.6434
   551.86         4.6389
   552.00         4.6380
   552.14         4.6402
   552.28         4.6451
   552.42         4.6525
   552.56         4.6627
   552.70         4.6756
   552.84         4.6904
   552.98         4.7059
   553.12         4.7204
   553.26         4.7327
   553.40         4.7419
   553.54         4.7478
   553.68         4.7505
   553.82         4.7505
   553.96         4.7493
   554.10         4.7478
   554.24         4.7466
   554.38         4.7449
   554.52         4.7419
   554.66         4.7373
   554.80         4.7311
   554.94         4.7237
   555.08         4.7154
   555.22         4.7064
   555.36         4.6966
   555.50         4.6857
   555.64         4.6740
   555.78         4.6621
   555.92         4.6510
   556.06         4.6412
   556.20         4.6327
   556.34         4.6255
   556.48         4.6201
   556.62         4.6172
   556.76         4.6177
   556.90         4.6220
   557.04         4.6296
   557.18         4.6392
   557.32         4.6491
   557.46         4.6577
   557.60         4.6634
   557.74         4.6655
   557.88         4.6636
   558.02         4.6578
   558.16         4.6483
   558.30         4.6355
   558.44         4.6206
   558.58         4.6050
   558.72         4.5903
   558.86         4.5776
   559.00         4.5683
   559.14         4.5635
   559.28         4.5633
   559.42         4.5672
   559.56         4.5745
   559.70         4.5843
   559.84         4.5960
   559.98         4.6090
   560.12         4.6228
   560.26         4.6363
   560.40         4.6484
   560.54         4.6575
   560.68         4.6621
   560.82         4.6611
   560.96         4.6549
   561.10         4.6444
   561.24         4.6312
   561.38         4.6168
   561.52         4.6028
   561.66         4.5909
   561.80         4.5823
   561.94         4.5775
   562.08         4.5769
   562.22         4.5796
   562.36         4.5845
   562.50         4.5902
   562.64         4.5956
   562.78         4.6001
   562.92         4.6033
   563.06         4.6053
   563.20         4.6067
   563.34         4.6081
   563.48         4.6106
   563.62         4.6149
   563.76         4.6214
   563.90         4.6298
   564.04         4.6392
   564.18         4.6482
   564.32         4.6554
   564.46         4.6592
   564.60         4.6591
   564.74         4.6549
   564.88         4.6469
   565.02         4.6361
   565.16         4.6234
   565.30         4.6097
   565.44         4.5956
   565.58         4.5821
   565.72         4.5706
   565.86         4.5616
   566.00         4.5552
   566.14         4.5512
   566.28         4.5496
   566.42         4.5500
   566.56         4.5516
   566.70         4.5539
   566.84         4.5565
   566.98         4.5592
   567.12         4.5615
   567.26         4.5634
   567.40         4.5645
   567.54         4.5644
   567.68         4.5624
   567.82         4.5583
   567.96         4.5526
   568.10         4.5461
   568.24         4.5398
   568.38         4.5345
   568.52         4.5304
   568.66         4.5276
   568.80         4.5267
   568.94         4.5274
   569.08         4.5296
   569.22         4.5327
   569.36         4.5364
   569.50         4.5401
   569.64         4.5430
   569.78         4.5447
   569.92         4.5449
   570.06         4.5438
   570.20         4.5421
   570.34         4.5400
   570.48         4.5382
   570.62         4.5372
   570.76         4.5369
   570.90         4.5367
   571.04         4.5358
   571.18         4.5341
   571.32         4.5314
   571.46         4.5279
   571.60         4.5235
   571.74         4.5183
   571.88         4.5125
   572.02         4.5064
   572.16         4.5008
   572.30         4.4966
   572.44         4.4941
   572.58         4.4939
   572.72         4.4959
   572.86         4.4998
   573.00         4.5048
   573.14         4.5103
   573.28         4.5155
   573.42         4.5194
   573.56         4.5208
   573.70         4.5195
   573.84         4.5155
   573.98         4.5093
   574.12         4.5017
   574.26         4.4935
   574.40         4.4862
   574.54         4.4809
   574.68         4.4782
   574.82         4.4778
   574.96         4.4787
   575.10         4.4800
   575.24         4.4809
   575.38         4.4813
   575.52         4.4806
   575.66         4.4784
   575.80         4.4750
   575.94         4.4709
   576.08         4.4666
   576.22         4.4628
   576.36         4.4606
   576.50         4.4609
   576.64         4.4641
   576.78         4.4705
   576.92         4.4794
   577.06         4.4896
   577.20         4.4990
   577.34         4.5059
   577.48         4.5094
   577.62         4.5095
   577.76         4.5060
   577.90         4.4993
   578.04         4.4902
   578.18         4.4796
   578.32         4.4689
   578.46         4.4590
   578.60         4.4507
   578.74         4.4445
   578.88         4.4407
   579.02         4.4392
   579.16         4.4396
   579.30         4.4414
   579.44         4.4439
   579.58         4.4460
   579.72         4.4472
   579.86         4.4470
   580.00         4.4456
   580.14         4.4431
   580.28         4.4397
   580.42         4.4361
   580.56         4.4330
   580.70         4.4307
   580.84         4.4289
   580.98         4.4274
   581.12         4.4268
   581.26         4.4272
   581.40         4.4289
   581.54         4.4315
   581.68         4.4347
   581.82         4.4386
   581.96         4.4435
   582.10         4.4493
   582.24         4.4555
   582.38         4.4620
   582.52         4.4686
   582.66         4.4748
   582.80         4.4802
   582.94         4.4846
   583.08         4.4878
   583.22         4.4893
   583.36         4.4886
   583.50         4.4854
   583.64         4.4795
   583.78         4.4709
   583.92         4.4597
   584.06         4.4460
   584.20         4.4304
   584.34         4.4135
   584.48         4.3959
   584.62         4.3783
   584.76         4.3617
   584.90         4.3472
   585.04         4.3357
   585.18         4.3280
   585.32         4.3250
   585.46         4.3273
   585.60         4.3351
   585.74         4.3476
   585.88         4.3632
   586.02         4.3799
   586.16         4.3962
   586.30         4.4113
   586.44         4.4244
   586.58         4.4350
   586.72         4.4423
   586.86         4.4454
   587.00         4.4431
   587.14         4.4345
   587.28         4.4192
   587.42         4.3975
   587.56         4.3703
   587.70         4.3389
   587.84         4.3048
   587.98         4.2696
   588.12         4.2354
   588.26         4.2042
   588.40         4.1783
   588.54         4.1596
   588.68         4.1497
   588.82         4.1495
   588.96         4.1588
   589.10         4.1763
   589.24         4.1994
   589.38         4.2258
   589.52         4.2528
   589.66         4.2781
   589.80         4.3004
   589.94         4.3190
   590.08         4.3338
   590.22         4.3450
   590.36         4.3530
   590.50         4.3583
   590.64         4.3617
   590.78         4.3640
   590.92         4.3655
   591.06         4.3662
   591.20         4.3655
   591.34         4.3624
   591.48         4.3563
   591.62         4.3472
   591.76         4.3357
   591.90         4.3228
   592.04         4.3095
   592.18         4.2968
   592.32         4.2859
   592.46         4.2780
   592.60         4.2739
   592.74         4.2737
   592.88         4.2772
   593.02         4.2833
   593.16         4.2906
   593.30         4.2975
   593.44         4.3024
   593.58         4.3042
   593.72         4.3024
   593.86         4.2967
   594.00         4.2874
   594.14         4.2753
   594.28         4.2614
   594.42         4.2472
   594.56         4.2339
   594.70         4.2229
   594.84         4.2157
   594.98         4.2136
   595.12         4.2167
   595.26         4.2244
   595.40         4.2358
   595.54         4.2500
   595.68         4.2652
   595.82         4.2803
   595.96         4.2942
   596.10         4.3058
   596.24         4.3142
   596.38         4.3189
   596.52         4.3195
   596.66         4.3159
   596.80         4.3086
   596.94         4.2988
   597.08         4.2880
   597.22         4.2774
   597.36         4.2672
   597.50         4.2573
   597.64         4.2478
   597.78         4.2387
   597.92         4.2301
   598.06         4.2224
   598.20         4.2163
   598.34         4.2120
   598.48         4.2099
   598.62         4.2102
   598.76         4.2124
   598.90         4.2165
   599.04         4.2223
   599.18         4.2291
   599.32         4.2363
   599.46         4.2430
   599.60         4.2491
   599.74         4.2540
   599.88         4.2567
   600.02         4.2565
   600.16         4.2536
   600.30         4.2483
   600.44         4.2412
   600.58         4.2330
   600.72         4.2245
   600.86         4.2160
   601.00         4.2076
   601.14         4.1995
   601.28         4.1918
   601.42         4.1845
   601.56         4.1775
   601.70         4.1706
   601.84         4.1636
   601.98         4.1562
   602.12         4.1481
   602.26         4.1396
   602.40         4.1314
   602.54         4.1240
   602.68         4.1176
   602.82         4.1125
   602.96         4.1087
   603.10         4.1064
   603.24         4.1056
   603.38         4.1065
   603.52         4.1091
   603.66         4.1134
   603.80         4.1190
   603.94         4.1253
   604.08         4.1317
   604.22         4.1378
   604.36         4.1432
   604.50         4.1481
   604.64         4.1525
   604.78         4.1564
   604.92         4.1595
   605.06         4.1615
   605.20         4.1619
   605.34         4.1609
   605.48         4.1593
   605.62         4.1576
   605.76         4.1563
   605.90         4.1556
   606.04         4.1552
   606.18         4.1541
   606.32         4.1506
   606.46         4.1437
   606.60         4.1330
   606.74         4.1190
   606.88         4.1026
   607.02         4.0846
   607.16         4.0655
   607.30         4.0463
   607.44         4.0283
   607.58         4.0129
   607.72         4.0013
   607.86         3.9939
   608.00         3.9909
   608.14         3.9918
   608.28         3.9958
   608.42         4.0013
   608.56         4.0069
   608.70         4.0116
   608.84         4.0148
   608.98         4.0169
   609.12         4.0187
   609.26         4.0212
   609.40         4.0251
   609.54         4.0305
   609.68         4.0370
   609.82         4.0441
   609.96         4.0513
   610.10         4.0578
   610.24         4.0629
   610.38         4.0659
   610.52         4.0661
   610.66         4.0635
   610.80         4.0583
   610.94         4.0508
   611.08         4.0418
   611.22         4.0327
   611.36         4.0245
   611.50         4.0181
   611.64         4.0137
   611.78         4.0114
   611.92         4.0107
   612.06         4.0107
   612.20         4.0106
   612.34         4.0094
   612.48         4.0063
   612.62         4.0014
   612.76         3.9952
   612.90         3.9886
   613.04         3.9826
   613.18         3.9778
   613.32         3.9745
   613.46         3.9725
   613.60         3.9718
   613.74         3.9728
   613.88         3.9757
   614.02         3.9803
   614.16         3.9865
   614.30         3.9939
   614.44         4.0021
   614.58         4.0105
   614.72         4.0190
   614.86         4.0273
   615.00         4.0354
   615.14         4.0430
   615.28         4.0498
   615.42         4.0548
   615.56         4.0572
   615.70         4.0561
   615.84         4.0509
   615.98         4.0415
   616.12         4.0289
   616.26         4.0148
   616.40         4.0011
   616.54         3.9894
   616.68         3.9809
   616.82         3.9766
   616.96         3.9774
   617.10         3.9834
   617.24         3.9939
   617.38         4.0070
   617.52         4.0199
   617.66         4.0297
   617.80         4.0344
   617.94         4.0335
   618.08         4.0279
   618.22         4.0190
   618.36         4.0081
   618.50         3.9967
   618.64         3.9866
   618.78         3.9790
   618.92         3.9745
   619.06         3.9734
   619.20         3.9754
   619.34         3.9799
   619.48         3.9861
   619.62         3.9935
   619.76         4.0010
   619.90         4.0076
   620.04         4.0125
   620.18         4.0158
   620.32         4.0183
   620.46         4.0210
   620.60         4.0249
   620.74         4.0291
   620.88         4.0323
   621.02         4.0330
   621.16         4.0301
   621.30         4.0225
   621.44         4.0102
   621.58         3.9942
   621.72         3.9766
   621.86         3.9594
   622.00         3.9438
   622.14         3.9306
   622.28         3.9203
   622.42         3.9132
   622.56         3.9093
   622.70         3.9089
   622.84         3.9117
   622.98         3.9170
   623.12         3.9236
   623.26         3.9304
   623.40         3.9363
   623.54         3.9408
   623.68         3.9434
   623.82         3.9438
   623.96         3.9418
   624.10         3.9381
   624.24         3.9333
   624.38         3.9278
   624.52         3.9216
   624.66         3.9148
   624.80         3.9072
   624.94         3.8990
   625.08         3.8896
   625.22         3.8786
   625.36         3.8659
   625.50         3.8513
   625.64         3.8355
   625.78         3.8200
   625.92         3.8062
   626.06         3.7949
   626.20         3.7862
   626.34         3.7803
   626.48         3.7776
   626.62         3.7785
   626.76         3.7825
   626.90         3.7876
   627.04         3.7918
   627.18         3.7931
   627.32         3.7904
   627.46         3.7842
   627.60         3.7756
   627.74         3.7667
   627.88         3.7602
   628.02         3.7584
   628.16         3.7626
   628.30         3.7732
   628.44         3.7892
   628.58         3.8088
   628.72         3.8300
   628.86         3.8512
   629.00         3.8709
   629.14         3.8868
   629.28         3.8968
   629.42         3.9000
   629.56         3.8971
   629.70         3.8904
   629.84         3.8824
   629.98         3.8757
   630.12         3.8712
   630.26         3.8691
   630.40         3.8685
   630.54         3.8681
   630.68         3.8662
   630.82         3.8620
   630.96         3.8550
   631.10         3.8457
   631.24         3.8355
   631.38         3.8261
   631.52         3.8190
   631.66         3.8151
   631.80         3.8143
   631.94         3.8166
   632.08         3.8217
   632.22         3.8290
   632.36         3.8371
   632.50         3.8446
   632.64         3.8498
   632.78         3.8517
   632.92         3.8500
   633.06         3.8453
   633.20         3.8386
   633.34         3.8312
   633.48         3.8241
   633.62         3.8181
   633.76         3.8139
   633.90         3.8114
   634.04         3.8100
   634.18         3.8083
   634.32         3.8051
   634.46         3.7998
   634.60         3.7927
   634.74         3.7848
   634.88         3.7768
   635.02         3.7694
   635.16         3.7631
   635.30         3.7583
   635.44         3.7551
   635.58         3.7533
   635.72         3.7527
   635.86         3.7536
   636.00         3.7566
   636.14         3.7619
   636.28         3.7694
   636.42         3.7784
   636.56         3.7882
   636.70         3.7973
   636.84         3.8047
   636.98         3.8098
   637.12         3.8122
   637.26         3.8114
   637.40         3.8073
   637.54         3.7998
   637.68         3.7895
   637.82         3.7775
   637.96         3.7647
   638.10         3.7520
   638.24         3.7402
   638.38         3.7298
   638.52         3.7211
   638.66         3.7143
   638.80         3.7089
   638.94         3.7049
   639.08         3.7024
   639.22         3.7018
   639.36         3.7029
   639.50         3.7058
   639.64         3.7103
   639.78         3.7168
   639.92         3.7250
   640.06         3.7341
   640.20         3.7434
   640.34         3.7516
   640.48         3.7576
   640.62         3.7607
   640.76         3.7607
   640.90         3.7578
   641.04         3.7525
   641.18         3.7459
   641.32         3.7387
   641.46         3.7321
   641.60         3.7268
   641.74         3.7237
   641.88         3.7235
   642.02         3.7260
   642.16         3.7309
   642.30         3.7378
   642.44         3.7455
   642.58         3.7529
   642.72         3.7589
   642.86         3.7632
   643.00         3.7660
   643.14         3.7674
   643.28         3.7676
   643.42         3.7665
   643.56         3.7644
   643.70         3.7613
   643.84         3.7577
   643.98         3.7539
   644.12         3.7502
   644.26         3.7473
   644.40         3.7453
   644.54         3.7434
   644.68         3.7406
   644.82         3.7361
   644.96         3.7296
   645.10         3.7213
   645.24         3.7115
   645.38         3.7012
   645.52         3.6913
   645.66         3.6825
   645.80         3.6757
   645.94         3.6713
   646.08         3.6699
   646.22         3.6714
   646.36         3.6752
   646.50         3.6807
   646.64         3.6870
   646.78         3.6935
   646.92         3.7001
   647.06         3.7064
   647.20         3.7120
   647.34         3.7163
   647.48         3.7190
   647.62         3.7198
   647.76         3.7182
   647.90         3.7137
   648.04         3.7063
   648.18         3.6959
   648.32         3.6827
   648.46         3.6671
   648.60         3.6502
   648.74         3.6333
   648.88         3.6179
   649.02         3.6051
   649.16         3.5962
   649.30         3.5926
   649.44         3.5951
   649.58         3.6034
   649.72         3.6163
   649.86         3.6319
   650.00         3.6486
   650.14         3.6652
   650.28         3.6807
   650.42         3.6942
   650.56         3.7050
   650.70         3.7129
   650.84         3.7180
   650.98         3.7201
   651.12         3.7192
   651.26         3.7153
   651.40         3.7088
   651.54         3.7001
   651.68         3.6899
   651.82         3.6789
   651.96         3.6673
   652.10         3.6550
   652.24         3.6420
   652.38         3.6283
   652.52         3.6144
   652.66         3.6004
   652.80         3.5867
   652.94         3.5732
   653.08         3.5598
   653.22         3.5468
   653.36         3.5346
   653.50         3.5233
   653.64         3.5126
   653.78         3.5019
   653.92         3.4900
   654.06         3.4758
   654.20         3.4581
   654.34         3.4346
   654.48         3.4020
   654.62         3.3567
   654.76         3.2976
   654.90         3.2264
   655.04         3.1476
   655.18         3.0676
   655.32         2.9933
   655.46         2.9313
   655.60         2.8866
   655.74         2.8627
   655.88         2.8617
   656.02         2.8839
   656.16         2.9272
   656.30         2.9881
   656.44         3.0614
   656.58         3.1414
   656.72         3.2218
   656.86         3.2970
   657.00         3.3623
   657.14         3.4152
   657.28         3.4562
   657.42         3.4880
   657.56         3.5134
   657.70         3.5343
   657.84         3.5510
   657.98         3.5635
   658.12         3.5720
   658.26         3.5765
   658.40         3.5775
   658.54         3.5756
   658.68         3.5713
   658.82         3.5657
   658.96         3.5600
   659.10         3.5553
   659.24         3.5523
   659.38         3.5516
   659.52         3.5532
   659.66         3.5574
   659.80         3.5639
   659.94         3.5721
   660.08         3.5813
   660.22         3.5907
   660.36         3.5996
   660.50         3.6075
   660.64         3.6139
   660.78         3.6180
   660.92         3.6192
   661.06         3.6171
   661.20         3.6125
   661.34         3.6067
   661.48         3.6012
   661.62         3.5964
   661.76         3.5925
   661.90         3.5897
   662.04         3.5884
   662.18         3.5890
   662.32         3.5917
   662.46         3.5965
   662.60         3.6030
   662.74         3.6105
   662.88         3.6181
   663.02         3.6248
   663.16         3.6297
   663.30         3.6321
   663.44         3.6326
   663.58         3.6317
   663.72         3.6306
   663.86         3.6299
   664.00         3.6296
   664.14         3.6294
   664.28         3.6294
   664.42         3.6298
   664.56         3.6305
   664.70         3.6310
   664.84         3.6307
   664.98         3.6290
   665.12         3.6254
   665.26         3.6196
   665.40         3.6117
   665.54         3.6027
   665.68         3.5940
   665.82         3.5867
   665.96         3.5816
   666.10         3.5790
   666.24         3.5785
   666.38         3.5796
   666.52         3.5814
   666.66         3.5835
   666.80         3.5859
   666.94         3.5885
   667.08         3.5910
   667.22         3.5928
   667.36         3.5940
   667.50         3.5950
   667.64         3.5965
   667.78         3.5992
   667.92         3.6034
   668.06         3.6094
   668.20         3.6165
   668.34         3.6238
   668.48         3.6298
   668.62         3.6335
   668.76         3.6340
   668.90         3.6311
   669.04         3.6250
   669.18         3.6166
   669.32         3.6072
   669.46         3.5978
   669.60         3.5891
   669.74         3.5812
   669.88         3.5737
   670.02         3.5666
   670.16         3.5595
   670.30         3.5525
   670.44         3.5458
   670.58         3.5398
   670.72         3.5350
   670.86         3.5317
   671.00         3.5299
   671.14         3.5298
   671.28         3.5316
   671.42         3.5357
   671.56         3.5421
   671.70         3.5502
   671.84         3.5586
   671.98         3.5656
   672.12         3.5701
   672.26         3.5712
   672.40         3.5690
   672.54         3.5642
   672.68         3.5579
   672.82         3.5518
   672.96         3.5470
   673.10         3.5439
   673.24         3.5427
   673.38         3.5433
   673.52         3.5450
   673.66         3.5472
   673.80         3.5493
   673.94         3.5511
   674.08         3.5524
   674.22         3.5526
   674.36         3.5515
   674.50         3.5494
   674.64         3.5469
   674.78         3.5444
   674.92         3.5418
   675.06         3.5391
   675.20         3.5364
   675.34         3.5336
   675.48         3.5302
   675.62         3.5256
   675.76         3.5192
   675.90         3.5108
   676.04         3.5003
   676.18         3.4881
   676.32         3.4753
   676.46         3.4635
   676.60         3.4542
   676.74         3.4486
   676.88         3.4469
   677.02         3.4491
   677.16         3.4543
   677.30         3.4612
   677.44         3.4686
   677.58         3.4757
   677.72         3.4817
   677.86         3.4858
   678.00         3.4872
   678.14         3.4857
   678.28         3.4822
   678.42         3.4781
   678.56         3.4748
   678.70         3.4734
   678.84         3.4748
   678.98         3.4792
   679.12         3.4864
   679.26         3.4955
   679.40         3.5050
   679.54         3.5135
   679.68         3.5200
   679.82         3.5239
   679.96         3.5254
   680.10         3.5251
   680.24         3.5236
   680.38         3.5210
   680.52         3.5173
   680.66         3.5123
   680.80         3.5061
   680.94         3.4986
   681.08         3.4896
   681.22         3.4793
   681.36         3.4682
   681.50         3.4573
   681.64         3.4472
   681.78         3.4387
   681.92         3.4319
   682.06         3.4272
   682.20         3.4247
   682.34         3.4246
   682.48         3.4263
   682.62         3.4293
   682.76         3.4325
   682.90         3.4352
   683.04         3.4372
   683.18         3.4387
   683.32         3.4403
   683.46         3.4421
   683.60         3.4444
   683.74         3.4475
   683.88         3.4514
   684.02         3.4560
   684.16         3.4607
   684.30         3.4648
   684.44         3.4682
   684.58         3.4704
   684.72         3.4714
   684.86         3.4712
   685.00         3.4699
   685.14         3.4680
   685.28         3.4658
   685.42         3.4632
   685.56         3.4590
   685.70         3.4504
   685.84         3.4333
   685.98         3.4047
   686.12         3.3635
   686.26         3.3104
   686.40         3.2471
   686.54         3.1767
   686.68         3.1033
   686.82         3.0319
   686.96         2.9680
   687.10         2.9164
   687.24         2.8813
   687.38         2.8647
   687.52         2.8667
   687.66         2.8852
   687.80         2.9167
   687.94         2.9561
   688.08         2.9980
   688.22         3.0374
   688.36         3.0705
   688.50         3.0955
   688.64         3.1132
   688.78         3.1249
   688.92         3.1318
   689.06         3.1354
   689.20         3.1378
   689.34         3.1409
   689.48         3.1460
   689.62         3.1538
   689.76         3.1644
   689.90         3.1772
   690.04         3.1914
   690.18         3.2056
   690.32         3.2189
   690.46         3.2304
   690.60         3.2398
   690.74         3.2472
   690.88         3.2532
   691.02         3.2590
   691.16         3.2660
   691.30         3.2747
   691.44         3.2852
   691.58         3.2974
   691.72         3.3110
   691.86         3.3258
   692.00         3.3412
   692.14         3.3565
   692.28         3.3710
   692.42         3.3838
   692.56         3.3940
   692.70         3.4011
   692.84         3.4048
   692.98         3.4053
   693.12         3.4033
   693.26         3.3995
   693.40         3.3949
   693.54         3.3905
   693.68         3.3866
   693.82         3.3830
   693.96         3.3797
   694.10         3.3772
   694.24         3.3767
   694.38         3.3785
   694.52         3.3832
   694.66         3.3910
   694.80         3.4017
   694.94         3.4144
   695.08         3.4285
   695.22         3.4426
   695.36         3.4554
   695.50         3.4655
   695.64         3.4723
   695.78         3.4755
   695.92         3.4755
   696.06         3.4730
   696.20         3.4690
   696.34         3.4643
   696.48         3.4597
   696.62         3.4559
   696.76         3.4532
   696.90         3.4511
   697.04         3.4492
   697.18         3.4473
   697.32         3.4449
   697.46         3.4412
   697.60         3.4350
   697.74         3.4260
   697.88         3.4145
   698.02         3.4018
   698.16         3.3899
   698.30         3.3807
   698.44         3.3758
   698.58         3.3761
   698.72         3.3815
   698.86         3.3913
   699.00         3.4043
   699.14         3.4192
   699.28         3.4345
   699.42         3.4490
   699.56         3.4619
   699.70         3.4726
   699.84         3.4807
   699.98         3.4853
   700.12         3.4861
   700.26         3.4833
   700.40         3.4780
   700.54         3.4715
   700.68         3.4651
   700.82         3.4590
   700.96         3.4530
   701.10         3.4467
   701.24         3.4397
   701.38         3.4318
   701.52         3.4231
   701.66         3.4137
   701.80         3.4045
   701.94         3.3964
   702.08         3.3896
   702.22         3.3838
   702.36         3.3791
   702.50         3.3753
   702.64         3.3729
   702.78         3.3721
   702.92         3.3732
   703.06         3.3760
   703.20         3.3802
   703.34         3.3847
   703.48         3.3885
   703.62         3.3912
   703.76         3.3933
   703.90         3.3949
   704.04         3.3962
   704.18         3.3973
   704.32         3.3985
   704.46         3.4000
   704.60         3.4014
   704.74         3.4018
   704.88         3.4007
   705.02         3.3982
   705.16         3.3944
   705.30         3.3891
   705.44         3.3819
   705.58         3.3729
   705.72         3.3626
   705.86         3.3522
   706.00         3.3426
   706.14         3.3352
   706.28         3.3311
   706.42         3.3314
   706.56         3.3367
   706.70         3.3470
   706.84         3.3617
   706.98         3.3793
   707.12         3.3980
   707.26         3.4158
   707.40         3.4312
   707.54         3.4429
   707.68         3.4501
   707.82         3.4523
   707.96         3.4493
   708.10         3.4420
   708.24         3.4321
   708.38         3.4214
   708.52         3.4113
   708.66         3.4025
   708.80         3.3950
   708.94         3.3892
   709.08         3.3854
   709.22         3.3838
   709.36         3.3841
   709.50         3.3861
   709.64         3.3898
   709.78         3.3952
   709.92         3.4020
   710.06         3.4101
   710.20         3.4191
   710.34         3.4286
   710.48         3.4377
   710.62         3.4459
   710.76         3.4525
   710.90         3.4572
   711.04         3.4593
   711.18         3.4585
   711.32         3.4551
   711.46         3.4496
   711.60         3.4435
   711.74         3.4376
   711.88         3.4322
   712.02         3.4271
   712.16         3.4224
   712.30         3.4185
   712.44         3.4151
   712.58         3.4123
   712.72         3.4097
   712.86         3.4071
   713.00         3.4048
   713.14         3.4031
   713.28         3.4024
   713.42         3.4027
   713.56         3.4036
   713.70         3.4052
   713.84         3.4072
   713.98         3.4093
   714.12         3.4111
   714.26         3.4124
   714.40         3.4128
   714.54         3.4121
   714.68         3.4099
   714.82         3.4066
   714.96         3.4020
   715.10         3.3962
   715.24         3.3892
   715.38         3.3818
   715.52         3.3747
   715.66         3.3682
   715.80         3.3615
   715.94         3.3532
   716.08         3.3424
   716.22         3.3288
   716.36         3.3131
   716.50         3.2956
   716.64         3.2772
   716.78         3.2580
   716.92         3.2386
   717.06         3.2190
   717.20         3.1996
   717.34         3.1807
   717.48         3.1628
   717.62         3.1463
   717.76         3.1320
   717.90         3.1209
   718.04         3.1131
   718.18         3.1081
   718.32         3.1055
   718.46         3.1053
   718.60         3.1081
   718.74         3.1142
   718.88         3.1229
   719.02         3.1333
   719.16         3.1434
   719.30         3.1507
   719.44         3.1534
   719.58         3.1518
   719.72         3.1478
   719.86         3.1443
   720.00         3.1436
   720.14         3.1481
   720.28         3.1591
   720.42         3.1773
   720.56         3.2020
   720.70         3.2322
   720.84         3.2667
   720.98         3.3039
   721.12         3.3413
   721.26         3.3754
   721.40         3.4028
   721.54         3.4213
   721.68         3.4309
   721.82         3.4327
   721.96         3.4281
   722.10         3.4186
   722.24         3.4058
   722.38         3.3905
   722.52         3.3727
   722.66         3.3525
   722.80         3.3304
   722.94         3.3070
   723.08         3.2838
   723.22         3.2622
   723.36         3.2433
   723.50         3.2278
   723.64         3.2157
   723.78         3.2072
   723.92         3.2018
   724.06         3.1992
   724.20         3.1991
   724.34         3.2008
   724.48         3.2029
   724.62         3.2042
   724.76         3.2041
   724.90         3.2031
   725.04         3.2018
   725.18         3.2001
   725.32         3.1977
   725.46         3.1945
   725.60         3.1912
   725.74         3.1890
   725.88         3.1884
   726.02         3.1885
   726.16         3.1883
   726.30         3.1875
   726.44         3.1864
   726.58         3.1850
   726.72         3.1835
   726.86         3.1828
   727.00         3.1838
   727.14         3.1865
   727.28         3.1909
   727.42         3.1966
   727.56         3.2032
   727.70         3.2094
   727.84         3.2138
   727.98         3.2153
   728.12         3.2138
   728.26         3.2097
   728.40         3.2032
   728.54         3.1946
   728.68         3.1849
   728.82         3.1756
   728.96         3.1675
   729.10         3.1601
   729.24         3.1527
   729.38         3.1449
   729.52         3.1371
   729.66         3.1297
   729.80         3.1229
   729.94         3.1167
   730.08         3.1108
   730.22         3.1052
   730.36         3.0998
   730.50         3.0951
   730.64         3.0917
   730.78         3.0900
   730.92         3.0905
   731.06         3.0934
   731.20         3.0983
   731.34         3.1046
   731.48         3.1115
   731.62         3.1188
   731.76         3.1271
   731.90         3.1376
   732.04         3.1507
   732.18         3.1663
   732.32         3.1828
   732.46         3.1979
   732.60         3.2101
   732.74         3.2183
   732.88         3.2219
   733.02         3.2204
   733.16         3.2139
   733.30         3.2033
   733.44         3.1907
   733.58         3.1788
   733.72         3.1695
   733.86         3.1645
   734.00         3.1650
   734.14         3.1717
   734.28         3.1846
   734.42         3.2034
   734.56         3.2265
   734.70         3.2515
   734.84         3.2757
   734.98         3.2971
   735.12         3.3141
   735.26         3.3256
   735.40         3.3311
   735.54         3.3299
   735.68         3.3221
   735.82         3.3086
   735.96         3.2909
   736.10         3.2703
   736.24         3.2477
   736.38         3.2244
   736.52         3.2016
   736.66         3.1804
   736.80         3.1608
   736.94         3.1427
   737.08         3.1253
   737.22         3.1081
   737.36         3.0912
   737.50         3.0746
   737.64         3.0589
   737.78         3.0444
   737.92         3.0310
   738.06         3.0183
   738.20         3.0061
   738.34         2.9949
   738.48         2.9851
   738.62         2.9766
   738.76         2.9694
   738.90         2.9638
   739.04         2.9609
   739.18         2.9615
   739.32         2.9652
   739.46         2.9710
   739.60         2.9782
   739.74         2.9873
   739.88         2.9984
   740.02         3.0104
   740.16         3.0217
   740.30         3.0303
   740.44         3.0349
   740.58         3.0344
   740.72         3.0290
   740.86         3.0199
   741.00         3.0087
   741.14         2.9969
   741.28         2.9856
   741.42         2.9757
   741.56         2.9680
   741.70         2.9626
   741.84         2.9585
   741.98         2.9549
   742.12         2.9518
   742.26         2.9500
   742.40         2.9503
   742.54         2.9519
   742.68         2.9537
   742.82         2.9547
   742.96         2.9547
   743.10         2.9537
   743.24         2.9519
   743.38         2.9503
   743.52         2.9500
   743.66         2.9518
   743.80         2.9549
   743.94         2.9585
   744.08         2.9626
   744.22         2.9680
