# File SAO11344
# Wavelength [nm]    Normalized Amplitude
   349.70         104.8615
   349.84         105.0960
   349.98         105.3502
   350.12         105.5753
   350.26         105.7413
   350.40         105.8407
   350.54         105.8847
   350.68         105.8906
   350.82         105.8751
   350.96         105.8569
   351.10         105.8495
   351.24         105.8569
   351.38         105.8751
   351.52         105.8906
   351.66         105.8847
   351.80         105.8407
   351.94         105.7413
   352.08         105.5753
   352.22         105.3502
   352.36         105.0960
   352.50         104.8615
   352.64         104.6964
   352.78         104.6346
   352.92         104.6955
   353.06         104.8902
   353.20         105.2131
   353.34         105.6412
   353.48         106.1509
   353.62         106.7178
   353.76         107.3118
   353.90         107.9014
   354.04         108.4550
   354.18         108.9329
   354.32         109.2848
   354.46         109.4596
   354.60         109.4353
   354.74         109.2265
   354.88         108.8601
   355.02         108.3617
   355.16         107.7484
   355.30         107.0338
   355.44         106.2418
   355.58         105.4145
   355.72         104.6021
   355.86         103.8603
   356.00         103.2692
   356.14         102.9082
   356.28         102.8119
   356.42         102.9567
   356.56         103.2660
   356.70         103.6321
   356.84         103.9363
   356.98         104.0717
   357.12         103.9644
   357.26         103.5807
   357.40         102.9153
   357.54         101.9921
   357.68         100.8801
   357.82         99.6819
   357.96         98.5233
   358.10         97.5327
   358.24         96.8069
   358.38         96.4060
   358.52         96.3652
   358.66         96.6853
   358.80         97.3020
   358.94         98.0958
   359.08         98.9367
   359.22         99.7187
   359.36         100.3603
   359.50         100.8011
   359.64         101.0151
   359.78         101.0094
   359.92         100.8207
   360.06         100.5276
   360.20         100.2299
   360.34         100.0068
   360.48         99.8983
   360.62         99.9099
   360.76         100.0206
   360.90         100.1947
   361.04         100.4006
   361.18         100.6226
   361.32         100.8468
   361.46         101.0390
   361.60         101.1557
   361.74         101.1659
   361.88         101.0585
   362.02         100.8406
   362.16         100.5408
   362.30         100.2135
   362.44         99.9293
   362.58         99.7616
   362.72         99.7676
   362.86         99.9522
   363.00         100.2735
   363.14         100.6801
   363.28         101.1348
   363.42         101.6198
   363.56         102.1308
   363.70         102.6748
   363.84         103.2634
   363.98         103.8840
   364.12         104.4974
   364.26         105.0640
   364.40         105.5554
   364.54         105.9496
   364.68         106.2223
   364.82         106.3471
   364.96         106.2988
   365.10         106.0439
   365.24         105.5665
   365.38         104.8967
   365.52         104.0969
   365.66         103.2540
   365.80         102.4729
   365.94         101.8625
   366.08         101.5119
   366.22         101.4756
   366.36         101.7683
   366.50         102.3550
   366.64         103.1509
   366.78         104.0468
   366.92         104.9333
   367.06         105.7170
   367.20         106.3382
   367.34         106.7737
   367.48         107.0272
   367.62         107.1506
   367.76         107.2545
   367.90         107.4745
   368.04         107.9124
   368.18         108.6169
   368.32         109.6192
   368.46         110.9249
   368.60         112.4888
   368.74         114.2394
   368.88         116.1197
   369.02         118.0778
   369.16         120.0376
   369.30         121.9079
   369.44         123.6327
   369.58         125.2366
   369.72         126.7981
   369.86         128.3690
   370.00         129.9300
   370.14         131.4325
   370.28         132.8843
   370.42         134.3720
   370.56         136.0229
   370.70         137.9513
   370.84         140.1798
   370.98         142.6005
   371.12         145.0365
   371.26         147.3752
   371.40         149.6334
   371.54         151.8920
   371.68         154.2280
   371.82         156.6985
   371.96         159.3079
   372.10         161.9692
   372.24         164.5006
   372.38         166.6702
   372.52         168.3071
   372.66         169.4211
   372.80         170.2447
   372.94         171.1435
   373.08         172.4308
   373.22         174.2404
   373.36         176.5053
   373.50         179.0077
   373.64         181.4810
   373.78         183.6725
   373.92         185.3383
   374.06         186.2523
   374.20         186.2854
   374.34         185.4682
   374.48         183.9502
   374.62         181.9360
   374.76         179.7093
   374.90         177.6692
   375.04         176.2855
   375.18         175.9949
   375.32         177.0593
   375.46         179.4484
   375.60         182.7958
   375.74         186.4421
   375.88         189.6110
   376.02         191.6287
   376.16         192.0947
   376.30         190.9728
   376.44         188.5857
   376.58         185.5493
   376.72         182.6269
   376.86         180.5414
   377.00         179.8295
   377.14         180.7766
   377.28         183.4388
   377.42         187.7077
   377.56         193.3423
   377.70         199.9551
   377.84         207.0206
   377.98         213.9091
   378.12         219.9431
   378.26         224.4853
   378.40         227.0257
   378.54         227.2864
   378.68         225.2949
   378.82         221.3782
   378.96         216.0878
   379.10         210.1012
   379.24         204.1404
   379.38         198.8958
   379.52         194.9773
   379.66         192.8629
   379.80         192.8214
   379.94         194.8907
   380.08         198.9133
   380.22         204.5559
   380.36         211.3218
   380.50         218.5966
   380.64         225.7224
   380.78         232.0994
   380.92         237.2828
   381.06         241.0428
   381.20         243.3871
   381.34         244.5267
   381.48         244.7688
   381.62         244.3786
   381.76         243.5045
   381.90         242.1604
   382.04         240.2088
   382.18         237.4016
   382.32         233.5045
   382.46         228.4320
   382.60         222.3287
   382.74         215.5571
   382.88         208.6226
   383.02         202.0982
   383.16         196.5550
   383.30         192.5015
   383.44         190.3145
   383.58         190.1654
   383.72         192.0032
   383.86         195.5830
   384.00         200.4917
   384.14         206.1856
   384.28         212.0681
   384.42         217.5925
   384.56         222.3306
   384.70         226.0103
   384.84         228.5566
   384.98         230.0924
   385.12         230.8671
   385.26         231.1705
   385.40         231.2563
   385.54         231.3004
   385.68         231.3973
   385.82         231.5676
   385.96         231.7825
   386.10         231.9924
   386.24         232.1522
   386.38         232.2404
   386.52         232.2516
   386.66         232.1846
   386.80         232.0499
   386.94         231.8379
   387.08         231.4726
   387.22         230.7933
   387.36         229.5502
   387.50         227.4343
   387.64         224.1757
   387.78         219.6687
   387.92         214.0281
   388.06         207.5703
   388.20         200.7615
   388.34         194.1462
   388.48         188.2740
   388.62         183.6369
   388.76         180.6153
   388.90         179.4452
   389.04         180.2064
   389.18         182.8013
   389.32         186.9619
   389.46         192.2895
   389.60         198.2787
   389.74         204.3854
   389.88         210.1009
   390.02         214.9954
   390.16         218.7943
   390.30         221.4473
   390.44         223.1065
   390.58         224.0160
   390.72         224.4232
   390.86         224.5379
   391.00         224.5175
   391.14         224.4675
   391.28         224.4471
   391.42         224.4832
   391.56         224.5791
   391.70         224.7146
   391.84         224.8245
   391.98         224.7763
   392.12         224.3938
   392.26         223.5148
   392.40         222.0696
   392.54         220.1085
   392.68         217.7915
   392.82         215.3704
   392.96         213.1345
   393.10         211.3416
   393.24         210.1617
   393.38         209.6589
   393.52         209.8049
   393.66         210.5032
   393.80         211.6131
   393.94         212.9735
   394.08         214.4244
   394.22         215.8168
   394.36         217.0113
   394.50         217.8744
   394.64         218.3131
   394.78         218.3260
   394.92         217.9789
   395.06         217.3247
   395.20         216.3441
   395.34         214.9262
   395.48         212.8644
   395.62         209.8833
   395.76         205.7338
   395.90         200.3246
   396.04         193.8152
   396.18         186.5973
   396.32         179.2057
   396.46         172.2296
   396.60         166.2438
   396.74         161.7576
   396.88         159.1567
   397.02         158.6516
   397.16         160.2548
   397.30         163.7813
   397.44         168.8653
   397.58         175.0023
   397.72         181.6211
   397.86         188.1664
   398.00         194.1632
   398.14         199.2655
   398.28         203.3012
   398.42         206.2863
   398.56         208.3851
   398.70         209.8168
   398.84         210.7598
   398.98         211.3383
   399.12         211.6521
   399.26         211.7886
   399.40         211.8180
   399.54         211.7810
   399.68         211.6833
   399.82         211.5169
   399.96         211.2924
   400.10         211.0405
   400.24         210.7939
   400.38         210.5826
   400.52         210.4304
   400.66         210.3409
   400.80         210.2920
   400.94         210.2520
   401.08         210.2020
   401.22         210.1312
   401.36         210.0226
   401.50         209.8560
   401.64         209.6181
   401.78         209.3104
   401.92         208.9422
   402.06         208.5143
   402.20         208.0146
   402.34         207.4380
   402.48         206.8169
   402.62         206.2117
   402.76         205.6790
   402.90         205.2610
   403.04         204.9911
   403.18         204.8790
   403.32         204.8952
   403.46         204.9863
   403.60         205.0966
   403.74         205.1791
   403.88         205.1958
   404.02         205.1261
   404.16         204.9753
   404.30         204.7747
   404.44         204.5776
   404.58         204.4393
   404.72         204.4020
   404.86         204.5004
   405.00         204.7600
   405.14         205.1800
   405.28         205.7188
   405.42         206.3042
   405.56         206.8540
   405.70         207.2958
   405.84         207.5705
   405.98         207.6370
   406.12         207.4837
   406.26         207.1265
   406.40         206.5973
   406.54         205.9355
   406.68         205.1829
   406.82         204.3806
   406.96         203.5664
   407.10         202.7717
   407.24         202.0184
   407.38         201.3194
   407.52         200.6782
   407.66         200.0880
   407.80         199.5338
   407.94         198.9949
   408.08         198.4413
   408.22         197.8232
   408.36         197.0609
   408.50         196.0379
   408.64         194.5949
   408.78         192.5379
   408.92         189.6807
   409.06         185.9136
   409.20         181.2727
   409.34         175.9764
   409.48         170.4020
   409.62         165.0200
   409.76         160.3141
   409.90         156.7103
   410.04         154.5320
   410.18         153.9788
   410.32         155.1058
   410.46         157.8023
   410.60         161.8012
   410.74         166.7140
   410.88         172.0789
   411.02         177.4187
   411.16         182.2959
   411.30         186.3612
   411.44         189.3989
   411.58         191.3501
   411.72         192.3002
   411.86         192.4405
   412.00         192.0059
   412.14         191.2095
   412.28         190.2230
   412.42         189.1844
   412.56         188.2114
   412.70         187.4110
   412.84         186.8677
   412.98         186.6191
   413.12         186.6505
   413.26         186.9195
   413.40         187.3789
   413.54         187.9855
   413.68         188.6889
   413.82         189.4214
   413.96         190.1082
   414.10         190.6843
   414.24         191.1114
   414.38         191.3928
   414.52         191.5638
   414.66         191.6608
   414.80         191.7014
   414.94         191.6890
   415.08         191.6214
   415.22         191.4966
   415.36         191.3088
   415.50         191.0394
   415.64         190.6675
   415.78         190.1901
   415.92         189.6170
   416.06         188.9529
   416.20         188.1993
   416.34         187.3612
   416.48         186.4489
   416.62         185.4714
   416.76         184.4423
   416.90         183.3966
   417.04         182.3863
   417.18         181.4636
   417.32         180.6757
   417.46         180.0600
   417.60         179.6396
   417.74         179.4189
   417.88         179.3819
   418.02         179.4964
   418.16         179.7199
   418.30         180.0097
   418.44         180.3289
   418.58         180.6417
   418.72         180.9219
   418.86         181.1663
   419.00         181.3816
   419.14         181.5689
   419.28         181.7345
   419.42         181.9090
   419.56         182.1301
   419.70         182.4135
   419.84         182.7534
   419.98         183.1294
   420.12         183.5067
   420.26         183.8452
   420.40         184.1095
   420.54         184.2718
   420.68         184.3121
   420.82         184.2204
   420.96         184.0018
   421.10         183.6728
   421.24         183.2535
   421.38         182.7676
   421.52         182.2496
   421.66         181.7419
   421.80         181.2807
   421.94         180.8819
   422.08         180.5355
   422.22         180.2212
   422.36         179.9280
   422.50         179.6582
   422.64         179.4148
   422.78         179.1964
   422.92         179.0018
   423.06         178.8237
   423.20         178.6497
   423.34         178.4783
   423.48         178.3209
   423.62         178.1902
   423.76         178.0938
   423.90         178.0338
   424.04         178.0159
   424.18         178.0474
   424.32         178.1227
   424.46         178.2156
   424.60         178.2943
   424.74         178.3431
   424.88         178.3609
   425.02         178.3438
   425.16         178.2756
   425.30         178.1284
   425.44         177.8766
   425.58         177.5157
   425.72         177.0699
   425.86         176.5861
   426.00         176.1144
   426.14         175.6869
   426.28         175.3213
   426.42         175.0315
   426.56         174.8272
   426.70         174.7151
   426.84         174.6953
   426.98         174.7621
   427.12         174.9129
   427.26         175.1508
   427.40         175.4681
   427.54         175.8375
   427.68         176.2274
   427.82         176.6112
   427.96         176.9668
   428.10         177.2769
   428.24         177.5242
   428.38         177.6832
   428.52         177.7205
   428.66         177.6029
   428.80         177.3066
   428.94         176.8271
   429.08         176.1792
   429.22         175.3946
   429.36         174.5269
   429.50         173.6441
   429.64         172.8122
   429.78         172.0871
   429.92         171.5054
   430.06         171.0795
   430.20         170.8104
   430.34         170.6985
   430.48         170.7388
   430.62         170.9120
   430.76         171.1837
   430.90         171.5076
   431.04         171.8321
   431.18         172.1063
   431.32         172.2917
   431.46         172.3711
   431.60         172.3516
   431.74         172.2523
   431.88         172.0890
   432.02         171.8600
   432.16         171.5316
   432.30         171.0300
   432.44         170.2318
   432.58         168.9609
   432.72         167.0228
   432.86         164.2713
   433.00         160.6805
   433.14         156.3787
   433.28         151.6248
   433.42         146.7606
   433.56         142.1616
   433.70         138.1916
   433.84         135.1646
   433.98         133.3184
   434.12         132.7943
   434.26         133.6143
   434.40         135.6738
   434.54         138.7537
   434.68         142.5407
   434.82         146.6678
   434.96         150.7633
   435.10         154.5017
   435.24         157.6599
   435.38         160.1506
   435.52         162.0108
   435.66         163.3563
   435.80         164.3155
   435.94         164.9934
   436.08         165.4692
   436.22         165.7965
   436.36         166.0145
   436.50         166.1611
   436.64         166.2779
   436.78         166.3989
   436.92         166.5318
   437.06         166.6610
   437.20         166.7571
   437.34         166.7838
   437.48         166.7139
   437.62         166.5366
   437.76         166.2580
   437.90         165.8965
   438.04         165.4757
   438.18         165.0230
   438.32         164.5722
   438.46         164.1662
   438.60         163.8519
   438.74         163.6575
   438.88         163.5848
   439.02         163.6200
   439.16         163.7401
   439.30         163.9114
   439.44         164.0872
   439.58         164.2179
   439.72         164.2679
   439.86         164.2173
   440.00         164.0575
   440.14         163.7911
   440.28         163.4222
   440.42         162.9462
   440.56         162.3526
   440.70         161.6361
   440.84         160.8053
   440.98         159.8836
   441.12         158.9024
   441.26         157.8862
   441.40         156.8456
   441.54         155.7886
   441.68         154.7322
   441.82         153.6986
   441.96         152.7111
   442.10         151.7955
   442.24         150.9767
   442.38         150.2743
   442.52         149.6997
   442.66         149.2614
   442.80         148.9693
   442.94         148.8295
   443.08         148.8419
   443.22         149.0113
   443.36         149.3472
   443.50         149.8505
   443.64         150.5050
   443.78         151.2780
   443.92         152.1280
   444.06         153.0148
   444.20         153.9069
   444.34         154.7775
   444.48         155.5988
   444.62         156.3469
   444.76         157.0033
   444.90         157.5509
   445.04         157.9864
   445.18         158.3322
   445.32         158.6244
   445.46         158.8904
   445.60         159.1376
   445.74         159.3579
   445.88         159.5377
   446.02         159.6583
   446.16         159.7001
   446.30         159.6552
   446.44         159.5243
   446.58         159.2998
   446.72         158.9523
   446.86         158.4447
   447.00         157.7622
   447.14         156.9292
   447.28         156.0094
   447.42         155.0850
   447.56         154.2338
   447.70         153.5224
   447.84         152.9968
   447.98         152.6700
   448.12         152.5318
   448.26         152.5714
   448.40         152.7844
   448.54         153.1611
   448.68         153.6750
   448.82         154.2821
   448.96         154.9253
   449.10         155.5366
   449.24         156.0518
   449.38         156.4276
   449.52         156.6566
   449.66         156.7672
   449.80         156.8029
   449.94         156.7980
   450.08         156.7564
   450.22         156.6605
   450.36         156.4990
   450.50         156.2732
   450.64         155.9889
   450.78         155.6474
   450.92         155.2420
   451.06         154.7646
   451.20         154.2181
   451.34         153.6219
   451.48         153.0106
   451.62         152.4311
   451.76         151.9282
   451.90         151.5328
   452.04         151.2558
   452.18         151.0983
   452.32         151.0693
   452.46         151.1773
   452.60         151.4075
   452.74         151.7180
   452.88         152.0627
   453.02         152.4068
   453.16         152.7266
   453.30         153.0058
   453.44         153.2243
   453.58         153.3554
   453.72         153.3791
   453.86         153.2896
   454.00         153.0964
   454.14         152.8171
   454.28         152.4691
   454.42         152.0663
   454.56         151.6295
   454.70         151.1970
   454.84         150.8254
   454.98         150.5753
   455.12         150.4891
   455.26         150.5839
   455.40         150.8628
   455.54         151.3169
   455.68         151.9191
   455.82         152.6210
   455.96         153.3507
   456.10         154.0236
   456.24         154.5740
   456.38         154.9754
   456.52         155.2300
   456.66         155.3441
   456.80         155.3076
   456.94         155.1027
   457.08         154.7279
   457.22         154.2048
   457.36         153.5672
   457.50         152.8383
   457.64         152.0369
   457.78         151.1984
   457.92         150.3689
   458.06         149.5928
   458.20         148.9106
   458.34         148.3571
   458.48         147.9573
   458.62         147.7299
   458.76         147.6938
   458.90         147.8636
   459.04         148.2298
   459.18         148.7478
   459.32         149.3492
   459.46         149.9666
   459.60         150.5530
   459.74         151.0813
   459.88         151.5317
   460.02         151.8850
   460.16         152.1253
   460.30         152.2598
   460.44         152.3123
   460.58         152.2964
   460.72         152.2186
   460.86         152.0859
   461.00         151.9030
   461.14         151.6764
   461.28         151.4199
   461.42         151.1465
   461.56         150.8558
   461.70         150.5361
   461.84         150.1823
   461.98         149.8039
   462.12         149.4162
   462.26         149.0277
   462.40         148.6448
   462.54         148.2869
   462.68         147.9833
   462.82         147.7610
   462.96         147.6406
   463.10         147.6309
   463.24         147.7252
   463.38         147.9108
   463.52         148.1753
   463.66         148.5030
   463.80         148.8687
   463.94         149.2402
   464.08         149.5836
   464.22         149.8683
   464.36         150.0740
   464.50         150.1955
   464.64         150.2407
   464.78         150.2194
   464.92         150.1439
   465.06         150.0343
   465.20         149.9100
   465.34         149.7786
   465.48         149.6378
   465.62         149.4831
   465.76         149.3121
   465.90         149.1280
   466.04         148.9411
   466.18         148.7654
   466.32         148.6111
   466.46         148.4830
   466.60         148.3829
   466.74         148.3114
   466.88         148.2658
   467.02         148.2418
   467.16         148.2328
   467.30         148.2248
   467.44         148.1999
   467.58         148.1542
   467.72         148.1054
   467.86         148.0779
   468.00         148.0907
   468.14         148.1541
   468.28         148.2704
   468.42         148.4435
   468.56         148.6749
   468.70         148.9485
   468.84         149.2330
   468.98         149.5005
   469.12         149.7367
   469.26         149.9298
   469.40         150.0628
   469.54         150.1204
   469.68         150.0935
   469.82         149.9789
   469.96         149.7803
   470.10         149.5150
   470.24         149.2106
   470.38         148.8875
   470.52         148.5507
   470.66         148.1950
   470.80         147.8124
   470.94         147.4039
   471.08         146.9903
   471.22         146.5970
   471.36         146.2365
   471.50         145.9126
   471.64         145.6254
   471.78         145.3627
   471.92         145.0957
   472.06         144.8052
   472.20         144.4956
   472.34         144.1839
   472.48         143.8971
   472.62         143.6664
   472.76         143.5182
   472.90         143.4659
   473.04         143.5107
   473.18         143.6452
   473.32         143.8455
   473.46         144.0705
   473.60         144.2736
   473.74         144.4104
   473.88         144.4369
   474.02         144.3177
   474.16         144.0364
   474.30         143.6023
   474.44         143.0501
   474.58         142.4354
   474.72         141.8202
   474.86         141.2548
   475.00         140.7757
   475.14         140.4056
   475.28         140.1525
   475.42         140.0148
   475.56         139.9836
   475.70         140.0265
   475.84         140.0853
   475.98         140.1045
   476.12         140.0513
   476.26         139.9214
   476.40         139.7382
   476.54         139.5371
   476.68         139.3510
   476.82         139.2120
   476.96         139.1521
   477.10         139.1933
   477.24         139.3377
   477.38         139.5694
   477.52         139.8661
   477.66         140.2052
   477.80         140.5592
   477.94         140.8938
   478.08         141.1763
   478.22         141.3782
   478.36         141.4733
   478.50         141.4553
   478.64         141.3458
   478.78         141.1722
   478.92         140.9594
   479.06         140.7301
   479.20         140.5014
   479.34         140.2857
   479.48         140.0906
   479.62         139.9115
   479.76         139.7362
   479.90         139.5563
   480.04         139.3793
   480.18         139.2236
   480.32         139.1073
   480.46         139.0399
   480.60         139.0189
   480.74         139.0366
   480.88         139.0778
   481.02         139.1199
   481.16         139.1481
   481.30         139.1587
   481.44         139.1498
   481.58         139.1154
   481.72         139.0495
   481.86         138.9510
   482.00         138.8182
   482.14         138.6469
   482.28         138.4434
   482.42         138.2309
   482.56         138.0434
   482.70         137.9147
   482.84         137.8597
   482.98         137.8659
   483.12         137.9078
   483.26         137.9606
   483.40         138.0049
   483.54         138.0173
   483.68         137.9678
   483.82         137.8238
   483.96         137.5520
   484.10         137.1221
   484.24         136.5058
   484.38         135.6709
   484.52         134.5674
   484.66         133.1166
   484.80         131.2274
   484.94         128.8337
   485.08         125.9308
   485.22         122.5988
   485.36         119.0070
   485.50         115.3856
   485.64         111.9884
   485.78         109.0695
   485.92         106.8564
   486.06         105.5183
   486.20         105.1435
   486.34         105.7326
   486.48         107.2064
   486.62         109.4139
   486.76         112.1425
   486.90         115.1372
   487.04         118.1291
   487.18         120.8772
   487.32         123.2088
   487.46         125.0471
   487.60         126.4123
   487.74         127.3916
   487.88         128.0959
   488.02         128.6213
   488.16         129.0276
   488.30         129.3479
   488.44         129.6076
   488.58         129.8222
   488.72         129.9953
   488.86         130.1264
   489.00         130.2217
   489.14         130.2912
   489.28         130.3429
   489.42         130.3918
   489.56         130.4605
   489.70         130.5657
   489.84         130.7130
   489.98         130.9060
   490.12         131.1501
   490.26         131.4406
   490.40         131.7629
   490.54         132.0950
   490.68         132.4069
   490.82         132.6663
   490.96         132.8378
   491.10         132.8797
   491.24         132.7634
   491.38         132.4945
   491.52         132.1106
   491.66         131.6628
   491.80         131.2005
   491.94         130.7727
   492.08         130.4259
   492.22         130.1928
   492.36         130.0849
   492.50         130.0938
   492.64         130.2026
   492.78         130.3908
   492.92         130.6371
   493.06         130.9316
   493.20         131.2610
   493.34         131.6013
   493.48         131.9302
   493.62         132.2265
   493.76         132.4846
   493.90         132.7169
   494.04         132.9193
   494.18         133.0668
   494.32         133.1455
   494.46         133.1553
   494.60         133.1020
   494.74         132.9965
   494.88         132.8631
   495.02         132.7298
   495.16         132.6198
   495.30         132.5590
   495.44         132.5739
   495.58         132.6748
   495.72         132.8440
   495.86         133.0373
   496.00         133.2013
   496.14         133.2841
   496.28         133.2424
   496.42         133.0576
   496.56         132.7309
   496.70         132.2780
   496.84         131.7397
   496.98         131.1649
   497.12         130.5804
   497.26         129.9938
   497.40         129.4160
   497.54         128.8667
   497.68         128.3635
   497.82         127.9208
   497.96         127.5527
   498.10         127.2644
   498.24         127.0518
   498.38         126.9082
   498.52         126.8336
   498.66         126.8381
   498.80         126.9376
   498.94         127.1440
   499.08         127.4542
   499.22         127.8374
   499.36         128.2371
   499.50         128.5927
   499.64         128.8553
   499.78         128.9860
   499.92         128.9602
   500.06         128.7771
   500.20         128.4559
   500.34         128.0219
   500.48         127.4875
   500.62         126.8536
   500.76         126.1344
   500.90         125.3720
   501.04         124.6252
   501.18         123.9521
   501.32         123.3943
   501.46         122.9739
   501.60         122.6977
   501.74         122.5555
   501.88         122.5230
   502.02         122.5751
   502.16         122.6911
   502.30         122.8470
   502.44         123.0170
   502.58         123.1868
   502.72         123.3481
   502.86         123.4856
   503.00         123.5885
   503.14         123.6664
   503.28         123.7451
   503.42         123.8529
   503.56         124.0067
   503.70         124.2019
   503.84         124.4173
   503.98         124.6273
   504.12         124.8118
   504.26         124.9429
   504.40         124.9860
   504.54         124.9317
   504.68         124.7964
   504.82         124.6027
   504.96         124.3746
   505.10         124.1435
   505.24         123.9419
   505.38         123.7862
   505.52         123.6854
   505.66         123.6565
   505.80         123.7116
   505.94         123.8447
   506.08         124.0417
   506.22         124.2837
   506.36         124.5377
   506.50         124.7615
   506.64         124.9210
   506.78         124.9963
   506.92         124.9704
   507.06         124.8380
   507.20         124.6096
   507.34         124.2939
   507.48         123.9014
   507.62         123.4582
   507.76         122.9997
   507.90         122.5586
   508.04         122.1671
   508.18         121.8593
   508.32         121.6564
   508.46         121.5511
   508.60         121.5136
   508.74         121.5007
   508.88         121.4646
   509.02         121.3709
   509.16         121.2149
   509.30         121.0196
   509.44         120.8103
   509.58         120.5990
   509.72         120.3911
   509.86         120.1925
   510.00         120.0148
   510.14         119.8774
   510.28         119.7993
   510.42         119.7873
   510.56         119.8370
   510.70         119.9289
   510.84         120.0279
   510.98         120.0969
   511.12         120.1071
   511.26         120.0432
   511.40         119.9032
   511.54         119.7002
   511.68         119.4607
   511.82         119.2145
   511.96         118.9816
   512.10         118.7699
   512.24         118.5889
   512.38         118.4615
   512.52         118.4173
   512.66         118.4803
   512.80         118.6557
   512.94         118.9200
   513.08         119.2304
   513.22         119.5456
   513.36         119.8372
   513.50         120.0856
   513.64         120.2740
   513.78         120.3890
   513.92         120.4234
   514.06         120.3796
   514.20         120.2696
   514.34         120.1064
   514.48         119.8989
   514.62         119.6567
   514.76         119.4007
   514.90         119.1602
   515.04         118.9525
   515.18         118.7683
   515.32         118.5794
   515.46         118.3455
   515.60         118.0159
   515.74         117.5508
   515.88         116.9479
   516.02         116.2383
   516.16         115.4718
   516.30         114.7157
   516.44         114.0439
   516.58         113.5159
   516.72         113.1725
   516.86         113.0374
   517.00         113.1126
   517.14         113.3776
   517.28         113.7919
   517.42         114.2990
   517.56         114.8299
   517.70         115.3095
   517.84         115.6738
   517.98         115.8809
   518.12         115.9108
   518.26         115.7680
   518.40         115.4840
   518.54         115.1022
   518.68         114.6578
   518.82         114.1774
   518.96         113.6874
   519.10         113.2161
   519.24         112.7928
   519.38         112.4447
   519.52         112.1913
   519.66         112.0464
   519.80         112.0164
   519.94         112.0988
   520.08         112.2851
   520.22         112.5571
   520.36         112.8856
   520.50         113.2305
   520.64         113.5417
   520.78         113.7736
   520.92         113.8978
   521.06         113.9110
   521.20         113.8289
   521.34         113.6788
   521.48         113.4924
   521.62         113.2977
   521.76         113.1215
   521.90         112.9851
   522.04         112.8943
   522.18         112.8431
   522.32         112.8175
   522.46         112.7964
   522.60         112.7529
   522.74         112.6591
   522.88         112.4999
   523.02         112.2741
   523.16         111.9838
   523.30         111.6329
   523.44         111.2328
   523.58         110.7999
   523.72         110.3513
   523.86         109.9053
   524.00         109.4898
   524.14         109.1429
   524.28         108.8953
   524.42         108.7583
   524.56         108.7203
   524.70         108.7562
   524.84         108.8395
   524.98         108.9472
   525.12         109.0614
   525.26         109.1617
   525.40         109.2315
   525.54         109.2696
   525.68         109.2855
   525.82         109.2890
   525.96         109.2866
   526.10         109.2813
   526.24         109.2690
   526.38         109.2348
   526.52         109.1617
   526.66         109.0378
   526.80         108.8576
   526.94         108.6259
   527.08         108.3626
   527.22         108.0969
   527.36         107.8547
   527.50         107.6544
   527.64         107.5128
   527.78         107.4508
   527.92         107.4917
   528.06         107.6573
   528.20         107.9516
   528.34         108.3436
   528.48         108.7735
   528.62         109.1770
   528.76         109.5031
   528.90         109.7187
   529.04         109.8143
   529.18         109.8052
   529.32         109.7185
   529.46         109.5796
   529.60         109.4053
   529.74         109.2047
   529.88         108.9858
   530.02         108.7559
   530.16         108.5202
   530.30         108.2805
   530.44         108.0350
   530.58         107.7811
   530.72         107.5239
   530.86         107.2759
   531.00         107.0550
   531.14         106.8884
   531.28         106.8079
   531.42         106.8379
   531.56         106.9856
   531.70         107.2362
   531.84         107.5590
   531.98         107.9197
   532.12         108.2876
   532.26         108.6335
   532.40         108.9342
   532.54         109.1731
   532.68         109.3380
   532.82         109.4278
   532.96         109.4558
   533.10         109.4449
   533.24         109.4166
   533.38         109.3835
   533.52         109.3419
   533.66         109.2767
   533.80         109.1764
   533.94         109.0404
   534.08         108.8738
   534.22         108.6801
   534.36         108.4634
   534.50         108.2325
   534.64         107.9986
   534.78         107.7629
   534.92         107.5097
   535.06         107.2180
   535.20         106.8763
   535.34         106.4872
   535.48         106.0599
   535.62         105.6051
   535.76         105.1343
   535.90         104.6628
   536.04         104.2126
   536.18         103.8126
   536.32         103.4945
   536.46         103.2861
   536.60         103.2002
   536.74         103.2288
   536.88         103.3491
   537.02         103.5323
   537.16         103.7484
   537.30         103.9670
   537.44         104.1602
   537.58         104.3077
   537.72         104.4040
   537.86         104.4583
   538.00         104.4831
   538.14         104.4879
   538.28         104.4815
   538.42         104.4721
   538.56         104.4615
   538.70         104.4491
   538.84         104.4306
   538.98         104.3942
   539.12         104.3253
   539.26         104.2114
   539.40         104.0437
   539.54         103.8204
   539.68         103.5471
   539.82         103.2320
   539.96         102.8842
   540.10         102.5198
   540.24         102.1647
   540.38         101.8486
   540.52         101.5925
   540.66         101.4038
   540.80         101.2798
   540.94         101.2118
   541.08         101.1846
   541.22         101.1808
   541.36         101.1895
   541.50         101.2009
   541.64         101.2076
   541.78         101.2049
   541.92         101.1873
   542.06         101.1542
   542.20         101.1107
   542.34         101.0594
   542.48         100.9998
   542.62         100.9319
   542.76         100.8588
   542.90         100.7803
   543.04         100.6862
   543.18         100.5629
   543.32         100.4070
   543.46         100.2269
   543.60         100.0320
   543.74         99.8288
   543.88         99.6243
   544.02         99.4252
   544.16         99.2343
   544.30         99.0517
   544.44         98.8750
   544.58         98.7035
   544.72         98.5393
   544.86         98.3770
   545.00         98.2052
   545.14         98.0183
   545.28         97.8178
   545.42         97.6106
   545.56         97.4035
   545.70         97.2075
   545.84         97.0475
   545.98         96.9517
   546.12         96.9360
   546.26         97.0030
   546.40         97.1465
   546.54         97.3540
   546.68         97.6044
   546.82         97.8680
   546.96         98.1095
   547.10         98.2969
   547.24         98.4086
   547.38         98.4356
   547.52         98.3746
   547.66         98.2285
   547.80         98.0105
   547.94         97.7445
   548.08         97.4564
   548.22         97.1718
   548.36         96.9167
   548.50         96.7132
   548.64         96.5697
   548.78         96.4847
   548.92         96.4522
   549.06         96.4638
   549.20         96.5131
   549.34         96.5896
   549.48         96.6783
   549.62         96.7699
   549.76         96.8661
   549.90         96.9757
   550.04         97.1058
   550.18         97.2562
   550.32         97.4220
   550.46         97.5991
   550.60         97.7835
   550.74         97.9638
   550.88         98.1175
   551.02         98.2155
   551.16         98.2301
   551.30         98.1426
   551.44         97.9491
   551.58         97.6606
   551.72         97.2954
   551.86         96.8695
   552.00         96.3960
   552.14         95.8882
   552.28         95.3634
   552.42         94.8442
   552.56         94.3565
   552.70         93.9274
   552.84         93.5750
   552.98         93.3022
   553.12         93.1045
   553.26         92.9782
   553.40         92.9168
   553.54         92.9109
   553.68         92.9548
   553.82         93.0476
   553.96         93.1899
   554.10         93.3799
   554.24         93.6092
   554.38         93.8630
   554.52         94.1275
   554.66         94.3941
   554.80         94.6520
   554.94         94.8914
   555.08         95.1079
   555.22         95.2969
   555.36         95.4517
   555.50         95.5631
   555.64         95.6261
   555.78         95.6445
   555.92         95.6237
   556.06         95.5651
   556.20         95.4721
   556.34         95.3552
   556.48         95.2274
   556.62         95.1023
   556.76         94.9936
   556.90         94.9115
   557.04         94.8594
   557.18         94.8325
   557.32         94.8194
   557.46         94.8053
   557.60         94.7771
   557.74         94.7277
   557.88         94.6556
   558.02         94.5583
   558.16         94.4260
   558.30         94.2512
   558.44         94.0364
   558.58         93.7944
   558.72         93.5477
   558.86         93.3200
   559.00         93.1254
   559.14         92.9678
   559.28         92.8485
   559.42         92.7652
   559.56         92.7108
   559.70         92.6760
   559.84         92.6519
   559.98         92.6345
   560.12         92.6272
   560.26         92.6350
   560.40         92.6601
   560.54         92.7038
   560.68         92.7616
   560.82         92.8260
   560.96         92.8939
   561.10         92.9602
   561.24         93.0150
   561.38         93.0471
   561.52         93.0411
   561.66         92.9848
   561.80         92.8802
   561.94         92.7412
   562.08         92.5837
   562.22         92.4269
   562.36         92.2920
   562.50         92.1942
   562.64         92.1398
   562.78         92.1266
   562.92         92.1458
   563.06         92.1899
   563.20         92.2580
   563.34         92.3426
   563.48         92.4274
   563.62         92.4967
   563.76         92.5362
   563.90         92.5329
   564.04         92.4768
   564.18         92.3613
   564.32         92.1836
   564.46         91.9417
   564.60         91.6371
   564.74         91.2792
   564.88         90.8880
   565.02         90.4872
   565.16         90.0994
   565.30         89.7463
   565.44         89.4420
   565.58         89.1933
   565.72         89.0054
   565.86         88.8793
   566.00         88.8064
   566.14         88.7773
   566.28         88.7884
   566.42         88.8345
   566.56         88.9017
   566.70         88.9763
   566.84         89.0493
   566.98         89.1166
   567.12         89.1838
   567.26         89.2642
   567.40         89.3683
   567.54         89.4912
   567.68         89.6108
   567.82         89.6983
   567.96         89.7323
   568.10         89.7030
   568.24         89.6099
   568.38         89.4575
   568.52         89.2488
   568.66         88.9877
   568.80         88.6843
   568.94         88.3564
   569.08         88.0208
   569.22         87.6901
   569.36         87.3763
   569.50         87.0914
   569.64         86.8445
   569.78         86.6414
   569.92         86.4857
   570.06         86.3779
   570.20         86.3126
   570.34         86.2864
   570.48         86.3055
   570.62         86.3784
   570.76         86.5053
   570.90         86.6721
   571.04         86.8570
   571.18         87.0378
   571.32         87.1942
   571.46         87.3094
   571.60         87.3724
   571.74         87.3798
   571.88         87.3371
   572.02         87.2541
   572.16         87.1386
   572.30         86.9958
   572.44         86.8338
   572.58         86.6676
   572.72         86.5108
   572.86         86.3717
   573.00         86.2573
   573.14         86.1701
   573.28         86.1015
   573.42         86.0345
   573.56         85.9482
   573.70         85.8284
   573.84         85.6757
   573.98         85.5031
   574.12         85.3291
   574.26         85.1719
   574.40         85.0427
   574.54         84.9432
   574.68         84.8707
   574.82         84.8301
   574.96         84.8359
   575.10         84.9032
   575.24         85.0367
   575.38         85.2232
   575.52         85.4374
   575.66         85.6515
   575.80         85.8373
   575.94         85.9660
   576.08         86.0129
   576.22         85.9624
   576.36         85.8054
   576.50         85.5363
   576.64         85.1469
   576.78         84.6187
   576.92         83.9341
   577.06         83.0954
   577.20         82.1334
   577.34         81.1047
   577.48         80.0804
   577.62         79.1341
   577.76         78.3330
   577.90         77.7293
   578.04         77.3530
   578.18         77.2135
   578.32         77.2969
   578.46         77.5599
   578.60         77.9393
   578.74         78.3739
   578.88         78.8126
   579.02         79.2123
   579.16         79.5400
   579.30         79.7746
   579.44         79.9114
   579.58         79.9698
   579.72         79.9833
   579.86         79.9844
   580.00         79.9990
   580.14         80.0449
   580.28         80.1302
   580.42         80.2514
   580.56         80.3977
   580.70         80.5544
   580.84         80.7047
   580.98         80.8326
   581.12         80.9308
   581.26         81.0043
   581.40         81.0622
   581.54         81.1047
   581.68         81.1255
   581.82         81.1239
   581.96         81.1083
   582.10         81.0922
   582.24         81.0880
   582.38         81.1022
   582.52         81.1392
   582.66         81.2015
   582.80         81.2830
   582.94         81.3681
   583.08         81.4381
   583.22         81.4803
   583.36         81.4878
   583.50         81.4588
   583.64         81.4037
   583.78         81.3397
   583.92         81.2782
   584.06         81.2213
   584.20         81.1706
   584.34         81.1298
   584.48         81.1031
   584.62         81.0913
   584.76         81.0895
   584.90         81.0922
   585.04         81.1004
   585.18         81.1230
   585.32         81.1668
   585.46         81.2311
   585.60         81.3112
   585.74         81.3991
   585.88         81.4782
   586.02         81.5241
   586.16         81.5153
   586.30         81.4375
   586.44         81.2842
   586.58         81.0584
   586.72         80.7756
   586.86         80.4609
   587.00         80.1411
   587.14         79.8388
   587.28         79.5713
   587.42         79.3435
   587.56         79.1359
   587.70         78.9021
   587.84         78.5867
   587.98         78.1540
   588.12         77.5934
   588.26         76.9014
   588.40         76.0770
   588.54         75.1421
   588.68         74.1590
   588.82         73.2160
   588.96         72.4019
   589.10         71.7960
   589.24         71.4569
   589.38         71.4123
   589.52         71.6571
   589.66         72.1586
   589.80         72.8638
   589.94         73.7114
   590.08         74.6340
   590.22         75.5612
   590.36         76.4358
   590.50         77.2249
   590.64         77.9049
   590.78         78.4449
   590.92         78.8206
   591.06         79.0393
   591.20         79.1378
   591.34         79.1558
   591.48         79.1140
   591.62         79.0204
   591.76         78.8802
   591.90         78.7011
   592.04         78.4934
   592.18         78.2678
   592.32         78.0375
   592.46         77.8245
   592.60         77.6506
   592.74         77.5228
   592.88         77.4333
   593.02         77.3686
   593.16         77.3176
   593.30         77.2710
   593.44         77.2244
   593.58         77.1825
   593.72         77.1504
   593.86         77.1238
   594.00         77.0891
   594.14         77.0324
   594.28         76.9446
   594.42         76.8199
   594.56         76.6557
   594.70         76.4554
   594.84         76.2312
   594.98         76.0056
   595.12         75.8033
   595.26         75.6357
   595.40         75.5030
   595.54         75.4055
   595.68         75.3456
   595.82         75.3249
   595.96         75.3405
   596.10         75.3920
   596.24         75.4784
   596.38         75.5840
   596.52         75.6771
   596.66         75.7322
   596.80         75.7465
   596.94         75.7324
   597.08         75.7036
   597.22         75.6719
   597.36         75.6444
   597.50         75.6190
   597.64         75.5892
   597.78         75.5505
   597.92         75.4980
   598.06         75.4285
   598.20         75.3470
   598.34         75.2639
   598.48         75.1867
   598.62         75.1207
   598.76         75.0666
   598.90         75.0170
   599.04         74.9605
   599.18         74.8968
   599.32         74.8398
   599.46         74.8032
   599.60         74.7839
   599.74         74.7620
   599.88         74.7145
   600.02         74.6293
   600.16         74.5063
   600.30         74.3502
   600.44         74.1660
   600.58         73.9558
   600.72         73.7265
   600.86         73.4925
   601.00         73.2672
   601.14         73.0611
   601.28         72.8826
   601.42         72.7324
   601.56         72.6088
   601.70         72.5164
   601.84         72.4639
   601.98         72.4527
   602.12         72.4719
   602.26         72.5035
   602.40         72.5280
   602.54         72.5340
   602.68         72.5214
   602.82         72.4929
   602.96         72.4556
   603.10         72.4196
   603.24         72.3911
   603.38         72.3731
   603.52         72.3648
   603.66         72.3623
   603.80         72.3629
   603.94         72.3682
   604.08         72.3857
   604.22         72.4280
   604.36         72.5047
   604.50         72.6118
   604.64         72.7320
   604.78         72.8439
   604.92         72.9291
   605.06         72.9749
   605.20         72.9798
   605.34         72.9520
   605.48         72.9012
   605.62         72.8342
   605.76         72.7506
   605.90         72.6471
   606.04         72.5231
   606.18         72.3814
   606.32         72.2312
   606.46         72.0835
   606.60         71.9454
   606.74         71.8149
   606.88         71.6808
   607.02         71.5313
   607.16         71.3592
   607.30         71.1651
   607.44         70.9566
   607.58         70.7461
   607.72         70.5508
   607.86         70.3916
   608.00         70.2829
   608.14         70.2287
   608.28         70.2259
   608.42         70.2719
   608.56         70.3653
   608.70         70.5001
   608.84         70.6592
   608.98         70.8145
   609.12         70.9342
   609.26         70.9953
   609.40         70.9871
   609.54         70.9097
   609.68         70.7717
   609.82         70.5858
   609.96         70.3678
   610.10         70.1358
   610.24         69.9060
   610.38         69.6944
   610.52         69.5183
   610.66         69.3945
   610.80         69.3369
   610.94         69.3536
   611.08         69.4403
   611.22         69.5810
   611.36         69.7517
   611.50         69.9284
   611.64         70.0965
   611.78         70.2514
   611.92         70.3914
   612.06         70.5120
   612.20         70.6051
   612.34         70.6601
   612.48         70.6687
   612.62         70.6291
   612.76         70.5430
   612.90         70.4146
   613.04         70.2556
   613.18         70.0868
   613.32         69.9281
   613.46         69.7867
   613.60         69.6601
   613.74         69.5491
   613.88         69.4608
   614.02         69.4040
   614.16         69.3804
   614.30         69.3843
   614.44         69.4008
   614.58         69.4071
   614.72         69.3816
   614.86         69.3103
   615.00         69.1874
   615.14         69.0148
   615.28         68.8004
   615.42         68.5564
   615.56         68.3006
   615.70         68.0521
   615.84         67.8219
   615.98         67.6086
   616.12         67.3987
   616.26         67.1824
   616.40         66.9591
   616.54         66.7261
   616.68         66.4771
   616.82         66.2096
   616.96         65.9314
   617.10         65.6570
   617.24         65.4043
   617.38         65.1919
   617.52         65.0323
   617.66         64.9253
   617.80         64.8585
   617.94         64.8139
   618.08         64.7767
   618.22         64.7359
   618.36         64.6816
   618.50         64.6080
   618.64         64.5200
   618.78         64.4335
   618.92         64.3692
   619.06         64.3425
   619.20         64.3609
   619.34         64.4305
   619.48         64.5524
   619.62         64.7173
   619.76         64.9054
   619.90         65.0927
   620.04         65.2614
   620.18         65.4025
   620.32         65.5134
   620.46         65.5964
   620.60         65.6594
   620.74         65.7160
   620.88         65.7774
   621.02         65.8455
   621.16         65.9173
   621.30         65.9887
   621.44         66.0529
   621.58         66.1018
   621.72         66.1337
   621.86         66.1535
   622.00         66.1619
   622.14         66.1531
   622.28         66.1270
   622.42         66.0928
   622.56         66.0594
   622.70         66.0327
   622.84         66.0157
   622.98         66.0056
   623.12         65.9948
   623.26         65.9756
   623.40         65.9442
   623.54         65.8986
   623.68         65.8389
   623.82         65.7690
   623.96         65.6929
   624.10         65.6142
   624.24         65.5383
   624.38         65.4711
   624.52         65.4138
   624.66         65.3667
   624.80         65.3380
   624.94         65.3376
   625.08         65.3656
   625.22         65.4137
   625.36         65.4736
   625.50         65.5367
   625.64         65.5871
   625.78         65.6038
   625.92         65.5688
   626.06         65.4722
   626.20         65.3104
   626.34         65.0806
   626.48         64.7755
   626.62         64.3858
   626.76         63.9037
   626.90         63.3220
   627.04         62.6348
   627.18         61.8415
   627.32         60.9576
   627.46         60.0223
   627.60         59.0943
   627.74         58.2432
   627.88         57.5376
   628.02         57.0319
   628.16         56.7609
   628.30         56.7385
   628.44         56.9600
   628.58         57.4061
   628.72         58.0409
   628.86         58.8093
   629.00         59.6387
   629.14         60.4500
   629.28         61.1782
   629.42         61.7798
   629.56         62.2306
   629.70         62.5263
   629.84         62.6837
   629.98         62.7366
   630.12         62.7243
   630.26         62.6776
   630.40         62.6120
   630.54         62.5322
   630.68         62.4421
   630.82         62.3486
   630.96         62.2601
   631.10         62.1880
   631.24         62.1436
   631.38         62.1325
   631.52         62.1517
   631.66         62.1895
   631.80         62.2329
   631.94         62.2722
   632.08         62.2982
   632.22         62.3028
   632.36         62.2867
   632.50         62.2584
   632.64         62.2258
   632.78         62.1945
   632.92         62.1668
   633.06         62.1435
   633.20         62.1208
   633.34         62.0823
   633.48         62.0057
   633.62         61.8768
   633.76         61.6971
   633.90         61.4808
   634.04         61.2490
   634.18         61.0260
   634.32         60.8404
   634.46         60.7215
   634.60         60.6901
   634.74         60.7515
   634.88         60.8977
   635.02         61.1108
   635.16         61.3612
   635.30         61.6104
   635.44         61.8229
   635.58         61.9668
   635.72         62.0091
   635.86         61.9204
   636.00         61.6944
   636.14         61.3606
   636.28         60.9700
   636.42         60.5738
   636.56         60.2085
   636.70         59.8945
   636.84         59.6456
   636.98         59.4738
   637.12         59.3834
   637.26         59.3715
   637.40         59.4354
   637.54         59.5741
   637.68         59.7797
   637.82         60.0335
   637.96         60.3134
   638.10         60.5965
   638.24         60.8580
   638.38         61.0783
   638.52         61.2517
   638.66         61.3839
   638.80         61.4805
   638.94         61.5428
   639.08         61.5721
   639.22         61.5740
   639.36         61.5632
   639.50         61.5577
   639.64         61.5714
   639.78         61.6099
   639.92         61.6716
   640.06         61.7459
   640.20         61.8125
   640.34         61.8505
   640.48         61.8501
   640.62         61.8131
   640.76         61.7460
   640.90         61.6577
   641.04         61.5597
   641.18         61.4609
   641.32         61.3661
   641.46         61.2810
   641.60         61.2108
   641.74         61.1565
   641.88         61.1153
   642.02         61.0821
   642.16         61.0545
   642.30         61.0334
   642.44         61.0184
   642.58         61.0052
   642.72         60.9854
   642.86         60.9524
   643.00         60.9071
   643.14         60.8542
   643.28         60.7947
   643.42         60.7220
   643.56         60.6287
   643.70         60.5107
   643.84         60.3659
   643.98         60.1998
   644.12         60.0224
   644.26         59.8379
   644.40         59.6470
   644.54         59.4526
   644.68         59.2590
   644.82         59.0700
   644.96         58.8890
   645.10         58.7208
   645.24         58.5710
   645.38         58.4448
   645.52         58.3526
   645.66         58.3112
   645.80         58.3357
   645.94         58.4294
   646.08         58.5837
   646.22         58.7852
   646.36         59.0136
   646.50         59.2393
   646.64         59.4292
   646.78         59.5491
   646.92         59.5711
   647.06         59.4834
   647.20         59.2923
   647.34         59.0188
   647.48         58.6951
   647.62         58.3594
   647.76         58.0479
   647.90         57.7885
   648.04         57.6010
   648.18         57.4990
   648.32         57.4871
   648.46         57.5586
   648.60         57.6976
   648.74         57.8833
   648.88         58.0927
   649.02         58.3016
   649.16         58.4910
   649.30         58.6511
   649.44         58.7809
   649.58         58.8854
   649.72         58.9754
   649.86         59.0645
   650.00         59.1624
   650.14         59.2692
   650.28         59.3776
   650.42         59.4763
   650.56         59.5535
   650.70         59.6017
   650.84         59.6207
   650.98         59.6129
   651.12         59.5796
   651.26         59.5174
   651.40         59.4210
   651.54         59.2899
   651.68         59.1307
   651.82         58.9538
   651.96         58.7714
   652.10         58.5973
   652.24         58.4448
   652.38         58.3250
   652.52         58.2437
   652.66         58.1998
   652.80         58.1882
   652.94         58.2047
   653.08         58.2471
   653.22         58.3137
   653.36         58.4002
   653.50         58.4973
   653.64         58.5913
   653.78         58.6686
   653.92         58.7181
   654.06         58.7315
   654.20         58.7039
   654.34         58.6288
   654.48         58.4925
   654.62         58.2728
   654.76         57.9379
   654.90         57.4484
   655.04         56.7738
   655.18         55.9132
   655.32         54.9040
   655.46         53.8163
   655.60         52.7355
   655.74         51.7505
   655.88         50.9444
   656.02         50.3855
   656.16         50.1207
   656.30         50.1697
   656.44         50.5239
   656.58         51.1499
   656.72         51.9926
   656.86         52.9835
   657.00         54.0440
   657.14         55.0899
   657.28         56.0459
   657.42         56.8575
   657.56         57.4979
   657.70         57.9734
   657.84         58.3134
   657.98         58.5494
   658.12         58.6987
   658.26         58.7670
   658.40         58.7602
   658.54         58.6919
   658.68         58.5802
   658.82         58.4429
   658.96         58.2947
   659.10         58.1501
   659.24         58.0231
   659.38         57.9223
   659.52         57.8517
   659.66         57.8117
   659.80         57.7967
   659.94         57.7923
   660.08         57.7766
   660.22         57.7292
   660.36         57.6388
   660.50         57.5035
   660.64         57.3270
   660.78         57.1171
   660.92         56.8891
   661.06         56.6628
   661.20         56.4560
   661.34         56.2800
   661.48         56.1430
   661.62         56.0547
   661.76         56.0250
   661.90         56.0572
   662.04         56.1481
   662.18         56.2912
   662.32         56.4727
   662.46         56.6700
   662.60         56.8574
   662.74         57.0159
   662.88         57.1378
   663.02         57.2196
   663.16         57.2564
   663.30         57.2439
   663.44         57.1831
   663.58         57.0797
   663.72         56.9408
   663.86         56.7770
   664.00         56.6048
   664.14         56.4419
   664.28         56.3012
   664.42         56.1892
   664.56         56.1051
   664.70         56.0442
   664.84         55.9993
   664.98         55.9614
   665.12         55.9230
   665.26         55.8795
   665.40         55.8297
   665.54         55.7751
   665.68         55.7173
   665.82         55.6594
   665.96         55.6050
   666.10         55.5542
   666.24         55.5030
   666.38         55.4454
   666.52         55.3786
   666.66         55.3037
   666.80         55.2193
   666.94         55.1250
   667.08         55.0226
   667.22         54.9105
   667.36         54.7888
   667.50         54.6644
   667.64         54.5497
   667.78         54.4564
   667.92         54.3933
   668.06         54.3658
   668.20         54.3756
   668.34         54.4201
   668.48         54.4897
   668.62         54.5699
   668.76         54.6469
   668.90         54.7124
   669.04         54.7628
   669.18         54.8019
   669.32         54.8358
   669.46         54.8666
   669.60         54.8968
   669.74         54.9301
   669.88         54.9723
   670.02         55.0313
   670.16         55.1097
   670.30         55.2003
   670.44         55.2900
   670.58         55.3658
   670.72         55.4134
   670.86         55.4166
   671.00         55.3620
   671.14         55.2446
   671.28         55.0711
   671.42         54.8577
   671.56         54.6244
   671.70         54.3911
   671.84         54.1754
   671.98         53.9897
   672.12         53.8412
   672.26         53.7325
   672.40         53.6585
   672.54         53.6068
   672.68         53.5596
   672.82         53.4977
   672.96         53.4089
   673.10         53.2925
   673.24         53.1523
   673.38         52.9915
   673.52         52.8178
   673.66         52.6456
   673.80         52.4905
   673.94         52.3659
   674.08         52.2808
   674.22         52.2410
   674.36         52.2513
   674.50         52.3148
   674.64         52.4269
   674.78         52.5729
   674.92         52.7335
   675.06         52.8910
   675.20         53.0325
   675.34         53.1474
   675.48         53.2269
   675.62         53.2672
   675.76         53.2678
   675.90         53.2297
   676.04         53.1559
   676.18         53.0507
   676.32         52.9222
   676.46         52.7828
   676.60         52.6465
   676.74         52.5251
   676.88         52.4252
   677.02         52.3500
   677.16         52.2971
   677.30         52.2590
   677.44         52.2292
   677.58         52.2042
   677.72         52.1809
   677.86         52.1568
   678.00         52.1311
   678.14         52.1054
   678.28         52.0829
   678.42         52.0678
   678.56         52.0641
   678.70         52.0724
   678.84         52.0905
   678.98         52.1188
   679.12         52.1580
   679.26         52.2053
   679.40         52.2555
   679.54         52.3034
   679.68         52.3432
   679.82         52.3673
   679.96         52.3699
   680.10         52.3517
   680.24         52.3148
   680.38         52.2627
   680.52         52.2020
   680.66         52.1376
   680.80         52.0706
   680.94         52.0031
   681.08         51.9391
   681.22         51.8802
   681.36         51.8259
   681.50         51.7759
   681.64         51.7306
   681.78         51.6890
   681.92         51.6498
   682.06         51.6119
   682.20         51.5717
   682.34         51.5243
   682.48         51.4684
   682.62         51.4066
   682.76         51.3384
   682.90         51.2583
   683.04         51.1623
   683.18         51.0496
   683.32         50.9200
   683.46         50.7777
   683.60         50.6314
   683.74         50.4894
   683.88         50.3591
   684.02         50.2480
   684.16         50.1633
   684.30         50.1092
   684.44         50.0864
   684.58         50.0925
   684.72         50.1232
   684.86         50.1728
   685.00         50.2368
   685.14         50.3092
   685.28         50.3747
   685.42         50.4007
   685.56         50.3375
   685.70         50.1276
   685.84         49.7208
   685.98         49.0894
   686.12         48.2343
   686.26         47.1836
   686.40         45.9891
   686.54         44.7222
   686.68         43.4679
   686.82         42.3168
   686.96         41.3573
   687.10         40.6658
   687.24         40.2920
   687.38         40.2480
   687.52         40.5054
   687.66         40.9998
   687.80         41.6420
   687.94         42.3321
   688.08         42.9773
   688.22         43.5123
   688.36         43.9062
   688.50         44.1586
   688.64         44.2896
   688.78         44.3293
   688.92         44.3154
   689.06         44.2880
   689.20         44.2795
   689.34         44.3137
   689.48         44.4020
   689.62         44.5418
   689.76         44.7210
   689.90         44.9203
   690.04         45.1173
   690.18         45.2936
   690.32         45.4417
   690.46         45.5652
   690.60         45.6761
   690.74         45.7897
   690.88         45.9187
   691.02         46.0688
   691.16         46.2432
   691.30         46.4442
   691.44         46.6694
   691.58         46.9084
   691.72         47.1426
   691.86         47.3519
   692.00         47.5227
   692.14         47.6453
   692.28         47.7140
   692.42         47.7289
   692.56         47.6921
   692.70         47.6070
   692.84         47.4822
   692.98         47.3313
   693.12         47.1670
   693.26         46.9993
   693.40         46.8350
   693.54         46.6790
   693.68         46.5381
   693.82         46.4215
   693.96         46.3354
   694.10         46.2802
   694.24         46.2544
   694.38         46.2549
   694.52         46.2760
   694.66         46.3102
   694.80         46.3482
   694.94         46.3819
   695.08         46.4072
   695.22         46.4242
   695.36         46.4385
   695.50         46.4603
   695.64         46.5009
   695.78         46.5694
   695.92         46.6723
   696.06         46.8156
   696.20         47.0053
   696.34         47.2431
   696.48         47.5210
   696.62         47.8219
   696.76         48.1246
   696.90         48.4093
   697.04         48.6607
   697.18         48.8677
   697.32         49.0212
   697.46         49.1100
   697.60         49.1253
   697.74         49.0662
   697.88         48.9381
   698.02         48.7490
   698.16         48.5081
   698.30         48.2287
   698.44         47.9288
   698.58         47.6270
   698.72         47.3394
   698.86         47.0791
   699.00         46.8551
   699.14         46.6684
   699.28         46.5127
   699.42         46.3813
   699.56         46.2709
   699.70         46.1823
   699.84         46.1168
   699.98         46.0746
   700.12         46.0576
   700.26         46.0697
   700.40         46.1163
   700.54         46.2020
   700.68         46.3276
   700.82         46.4863
   700.96         46.6633
   701.10         46.8368
   701.24         46.9830
   701.38         47.0829
   701.52         47.1252
   701.66         47.1077
   701.80         47.0377
   701.94         46.9324
   702.08         46.8159
   702.22         46.7096
   702.36         46.6251
   702.50         46.5631
   702.64         46.5181
   702.78         46.4852
   702.92         46.4619
   703.06         46.4481
   703.20         46.4415
   703.34         46.4355
   703.48         46.4273
   703.62         46.4241
   703.76         46.4369
   703.90         46.4735
   704.04         46.5381
   704.18         46.6329
   704.32         46.7575
   704.46         46.9055
   704.60         47.0604
   704.74         47.2000
   704.88         47.3043
   705.02         47.3609
   705.16         47.3631
   705.30         47.3098
   705.44         47.2034
   705.58         47.0498
   705.72         46.8626
   705.86         46.6624
   706.00         46.4730
   706.14         46.3158
   706.28         46.2035
   706.42         46.1374
   706.56         46.1152
   706.70         46.1375
   706.84         46.2078
   706.98         46.3280
   707.12         46.4938
   707.26         46.6934
   707.40         46.9099
   707.54         47.1258
   707.68         47.3252
   707.82         47.4953
   707.96         47.6282
   708.10         47.7211
   708.24         47.7752
   708.38         47.7932
   708.52         47.7773
   708.66         47.7292
   708.80         47.6502
   708.94         47.5452
   709.08         47.4262
   709.22         47.3105
   709.36         47.2128
   709.50         47.1407
   709.64         47.0951
   709.78         47.0699
   709.92         47.0542
   710.06         47.0392
   710.20         47.0234
   710.34         47.0094
   710.48         46.9974
   710.62         46.9852
   710.76         46.9740
   710.90         46.9683
   711.04         46.9761
   711.18         47.0094
   711.32         47.0774
   711.46         47.1800
   711.60         47.3108
   711.74         47.4594
   711.88         47.6102
   712.02         47.7461
   712.16         47.8521
   712.30         47.9131
   712.44         47.9160
   712.58         47.8622
   712.72         47.7687
   712.86         47.6568
   713.00         47.5431
   713.14         47.4414
   713.28         47.3644
   713.42         47.3223
   713.56         47.3178
   713.70         47.3474
   713.84         47.4029
   713.98         47.4703
   714.12         47.5328
   714.26         47.5790
   714.40         47.6074
   714.54         47.6221
   714.68         47.6246
   714.82         47.6152
   714.96         47.5951
   715.10         47.5696
   715.24         47.5456
   715.38         47.5204
   715.52         47.4787
   715.66         47.4027
   715.80         47.2796
   715.94         47.1002
   716.08         46.8567
   716.22         46.5464
   716.36         46.1732
   716.50         45.7487
   716.64         45.2893
   716.78         44.8147
   716.92         44.3472
   717.06         43.9056
   717.20         43.4939
   717.34         43.1032
   717.48         42.7271
   717.62         42.3702
   717.76         42.0420
   717.90         41.7494
   718.04         41.4936
   718.18         41.2745
   718.32         41.0959
   718.46         40.9583
   718.60         40.8560
   718.74         40.7790
   718.88         40.7215
   719.02         40.6862
   719.16         40.6752
   719.30         40.6868
   719.44         40.7215
   719.58         40.7848
   719.72         40.8813
   719.86         41.0161
   720.00         41.2009
   720.14         41.4504
   720.28         41.7703
   720.42         42.1488
   720.56         42.5615
   720.70         42.9824
   720.84         43.3872
   720.98         43.7508
   721.12         44.0489
   721.26         44.2685
   721.40         44.4108
   721.54         44.4856
   721.68         44.5032
   721.82         44.4691
   721.96         44.3874
   722.10         44.2602
   722.24         44.0870
   722.38         43.8728
   722.52         43.6328
   722.66         43.3838
   722.80         43.1381
   722.94         42.9074
   723.08         42.6995
   723.22         42.5150
   723.36         42.3552
   723.50         42.2264
   723.64         42.1340
   723.78         42.0801
   723.92         42.0597
   724.06         42.0576
   724.20         42.0566
   724.34         42.0450
   724.48         42.0150
   724.62         41.9641
   724.76         41.9010
   724.90         41.8438
   725.04         41.8084
   725.18         41.7946
   725.32         41.7871
   725.46         41.7783
   725.60         41.7733
   725.74         41.7762
   725.88         41.7902
   726.02         41.8184
   726.16         41.8559
   726.30         41.8848
   726.44         41.8819
   726.58         41.8340
   726.72         41.7470
   726.86         41.6406
   727.00         41.5325
   727.14         41.4369
   727.28         41.3675
   727.42         41.3281
   727.56         41.3109
   727.70         41.3031
   727.84         41.2904
   727.98         41.2640
   728.12         41.2235
   728.26         41.1671
   728.40         41.0897
   728.54         40.9904
   728.68         40.8695
   728.82         40.7293
   728.96         40.5744
   729.10         40.4145
   729.24         40.2673
   729.38         40.1507
   729.52         40.0717
   729.66         40.0258
   729.80         40.0083
   729.94         40.0154
   730.08         40.0390
   730.22         40.0714
   730.36         40.1093
   730.50         40.1487
   730.64         40.1825
   730.78         40.2048
   730.92         40.2132
   731.06         40.2071
   731.20         40.1849
   731.34         40.1455
   731.48         40.0924
   731.62         40.0359
   731.76         39.9885
   731.90         39.9601
   732.04         39.9533
   732.18         39.9626
   732.32         39.9784
   732.46         39.9943
   732.60         40.0039
   732.74         39.9996
   732.88         39.9784
   733.02         39.9401
   733.16         39.8843
   733.30         39.8152
   733.44         39.7433
   733.58         39.6772
   733.72         39.6174
   733.86         39.5567
   734.00         39.4870
   734.14         39.4047
   734.28         39.3080
   734.42         39.1942
   734.56         39.0604
   734.70         38.9068
   734.84         38.7359
   734.98         38.5510
   735.12         38.3578
   735.26         38.1633
   735.40         37.9739
   735.54         37.7954
   735.68         37.6334
   735.82         37.4951
   735.96         37.3889
   736.10         37.3220
   736.24         37.3006
   736.38         37.3298
   736.52         37.4118
   736.66         37.5428
   736.80         37.7125
   736.94         37.9070
   737.08         38.1109
   737.22         38.3069
   737.36         38.4799
   737.50         38.6213
   737.64         38.7276
   737.78         38.8000
   737.92         38.8439
   738.06         38.8664
   738.20         38.8736
   738.34         38.8691
   738.48         38.8543
   738.62         38.8292
   738.76         38.7934
   738.90         38.7439
   739.04         38.6742
   739.18         38.5789
   739.32         38.4563
   739.46         38.3083
   739.60         38.1383
   739.74         37.9469
   739.88         37.7330
   740.02         37.5005
   740.16         37.2573
   740.30         37.0148
   740.44         36.7868
   740.58         36.5879
   740.72         36.4322
   740.86         36.3311
   741.00         36.2908
   741.14         36.3093
   741.28         36.3758
   741.42         36.4724
   741.56         36.5790
   741.70         36.6782
   741.84         36.7543
   741.98         36.7931
   742.12         36.7880
   742.26         36.7426
   742.40         36.6704
   742.54         36.5914
   742.68         36.5253
   742.82         36.4873
   742.96         36.4873
   743.10         36.5253
   743.24         36.5914
   743.38         36.6704
   743.52         36.7426
   743.66         36.7880
   743.80         36.7931
   743.94         36.7543
   744.08         36.6782
   744.22         36.5790
