# File SAO11885
# Wavelength [nm]    Normalized Amplitude
   349.70         203.3149
   349.84         203.4912
   349.98         203.4677
   350.12         203.2207
   350.26         202.7801
   350.40         202.2169
   350.54         201.6050
   350.68         201.0103
   350.82         200.5075
   350.96         200.1719
   351.10         200.0542
   351.24         200.1719
   351.38         200.5075
   351.52         201.0103
   351.66         201.6050
   351.80         202.2169
   351.94         202.7801
   352.08         203.2207
   352.22         203.4677
   352.36         203.4912
   352.50         203.3149
   352.64         202.9972
   352.78         202.6181
   352.92         202.2580
   353.06         201.9652
   353.20         201.7526
   353.34         201.6132
   353.48         201.5263
   353.62         201.4549
   353.76         201.3442
   353.90         201.1308
   354.04         200.7643
   354.18         200.2232
   354.32         199.5161
   354.46         198.6819
   354.60         197.7753
   354.74         196.8500
   354.88         195.9583
   355.02         195.1490
   355.16         194.4553
   355.30         193.8805
   355.44         193.3967
   355.58         192.9619
   355.72         192.5541
   355.86         192.1823
   356.00         191.8627
   356.14         191.6064
   356.28         191.4147
   356.42         191.2679
   356.56         191.1297
   356.70         190.9632
   356.84         190.7393
   356.98         190.4347
   357.12         190.0276
   357.26         189.4881
   357.40         188.7797
   357.54         187.8824
   357.68         186.8177
   357.82         185.6512
   357.96         184.4814
   358.10         183.4216
   358.24         182.5677
   358.38         181.9731
   358.52         181.6414
   358.66         181.5476
   358.80         181.6679
   358.94         181.9724
   359.08         182.4204
   359.22         182.9735
   359.36         183.5981
   359.50         184.2558
   359.64         184.8890
   359.78         185.4266
   359.92         185.8074
   360.06         185.9952
   360.20         185.9852
   360.34         185.8029
   360.48         185.4867
   360.62         185.0632
   360.76         184.5431
   360.90         183.9415
   361.04         183.3026
   361.18         182.6953
   361.32         182.1860
   361.46         181.8076
   361.60         181.5532
   361.74         181.4025
   361.88         181.3279
   362.02         181.2849
   362.16         181.2184
   362.30         181.0766
   362.44         180.8300
   362.58         180.4740
   362.72         180.0255
   362.86         179.5313
   363.00         179.0521
   363.14         178.6334
   363.28         178.3061
   363.42         178.0974
   363.56         178.0170
   363.70         178.0457
   363.84         178.1414
   363.98         178.2620
   364.12         178.3813
   364.26         178.4937
   364.40         178.6148
   364.54         178.7623
   364.68         178.9424
   364.82         179.1619
   364.96         179.4380
   365.10         179.7926
   365.24         180.2333
   365.38         180.7425
   365.52         181.2817
   365.66         181.7944
   365.80         182.2183
   365.94         182.4999
   366.08         182.5939
   366.22         182.4735
   366.36         182.1542
   366.50         181.6817
   366.64         181.1131
   366.78         180.5029
   366.92         179.8916
   367.06         179.3086
   367.20         178.7580
   367.34         178.2196
   367.48         177.6742
   367.62         177.1239
   367.76         176.5774
   367.90         176.0268
   368.04         175.4691
   368.18         174.9316
   368.32         174.4656
   368.46         174.1161
   368.60         173.9015
   368.74         173.8285
   368.88         173.8976
   369.02         174.0880
   369.16         174.3462
   369.30         174.6050
   369.44         174.8148
   369.58         174.9633
   369.72         175.0656
   369.86         175.1317
   370.00         175.1619
   370.14         175.1635
   370.28         175.1569
   370.42         175.1698
   370.56         175.2507
   370.70         175.4712
   370.84         175.8681
   370.98         176.3944
   371.12         176.9466
   371.26         177.4405
   371.40         177.8541
   371.54         178.2129
   371.68         178.5644
   371.82         178.9629
   371.96         179.4440
   372.10         179.9938
   372.24         180.5359
   372.38         180.9558
   372.52         181.1686
   372.66         181.1813
   372.80         181.0901
   372.94         181.0430
   373.08         181.1963
   373.22         181.6565
   373.36         182.4414
   373.50         183.4769
   373.64         184.6287
   373.78         185.7413
   373.92         186.6648
   374.06         187.2727
   374.20         187.4838
   374.34         187.2830
   374.48         186.7170
   374.62         185.8796
   374.76         184.9273
   374.90         184.0885
   375.04         183.6265
   375.18         183.7713
   375.32         184.6373
   375.46         186.1727
   375.60         188.1564
   375.74         190.2217
   375.88         191.9221
   376.02         192.8582
   376.16         192.7896
   376.30         191.6871
   376.44         189.7440
   376.58         187.3434
   376.72         184.9682
   376.86         183.0958
   377.00         182.1026
   377.14         182.2045
   377.28         183.4569
   377.42         185.7807
   377.56         188.9778
   377.70         192.7536
   377.84         196.7518
   377.98         200.5886
   378.12         203.8773
   378.26         206.2567
   378.40         207.4497
   378.54         207.3277
   378.68         205.9434
   378.82         203.5009
   378.96         200.2952
   379.10         196.6728
   379.24         192.9955
   379.38         189.6038
   379.52         186.7953
   379.66         184.8259
   379.80         183.8958
   379.94         184.1253
   380.08         185.5446
   380.22         188.0684
   380.36         191.4674
   380.50         195.3725
   380.64         199.3385
   380.78         202.9266
   380.92         205.7889
   381.06         207.7386
   381.20         208.7594
   381.34         208.9632
   381.48         208.5287
   381.62         207.6575
   381.76         206.5272
   381.90         205.2458
   382.04         203.8401
   382.18         202.2697
   382.32         200.4517
   382.46         198.2908
   382.60         195.7418
   382.74         192.8574
   382.88         189.7740
   383.02         186.6938
   383.16         183.8786
   383.30         181.6252
   383.44         180.2125
   383.58         179.8559
   383.72         180.6703
   383.86         182.6366
   384.00         185.6059
   384.14         189.3303
   384.28         193.4841
   384.42         197.6921
   384.56         201.5917
   384.70         204.9069
   384.84         207.4884
   384.98         209.3103
   385.12         210.4405
   385.26         211.0027
   385.40         211.1251
   385.54         210.8961
   385.68         210.3655
   385.82         209.5711
   385.96         208.5516
   386.10         207.3602
   386.24         206.0672
   386.38         204.7405
   386.52         203.4223
   386.66         202.1320
   386.80         200.8723
   386.94         199.6276
   387.08         198.3694
   387.22         197.0519
   387.36         195.5939
   387.50         193.8663
   387.64         191.7135
   387.78         189.0272
   387.92         185.8128
   388.06         182.1945
   388.20         178.3938
   388.34         174.7106
   388.48         171.4885
   388.62         169.0603
   388.76         167.6961
   388.90         167.5633
   389.04         168.7085
   389.18         171.0528
   389.32         174.4099
   389.46         178.5058
   389.60         182.9986
   389.74         187.5265
   389.88         191.7535
   390.02         195.4065
   390.16         198.3103
   390.30         200.4080
   390.44         201.7517
   390.58         202.4452
   390.72         202.5910
   390.86         202.2848
   391.00         201.6129
   391.14         200.6459
   391.28         199.4424
   391.42         198.0573
   391.56         196.5560
   391.70         195.0196
   391.84         193.5197
   391.98         192.0957
   392.12         190.7639
   392.26         189.5484
   392.40         188.4990
   392.54         187.6700
   392.68         187.1003
   392.82         186.8118
   392.96         186.8112
   393.10         187.0889
   393.24         187.6183
   393.38         188.3647
   393.52         189.2836
   393.66         190.3089
   393.80         191.3549
   393.94         192.3338
   394.08         193.1718
   394.22         193.8135
   394.36         194.2154
   394.50         194.3425
   394.64         194.1801
   394.78         193.7512
   394.92         193.1066
   395.06         192.2797
   395.20         191.2434
   395.34         189.9124
   395.48         188.1678
   395.62         185.8765
   395.76         182.9255
   395.90         179.2814
   396.04         175.0340
   396.18         170.3944
   396.32         165.6613
   396.46         161.1766
   396.60         157.2885
   396.74         154.3126
   396.88         152.4889
   397.02         151.9525
   397.16         152.7206
   397.30         154.6967
   397.44         157.6854
   397.58         161.4081
   397.72         165.5227
   397.86         169.6688
   398.00         173.5253
   398.14         176.8545
   398.28         179.5261
   398.42         181.5251
   398.56         182.9273
   398.70         183.8469
   398.84         184.3894
   398.98         184.6357
   399.12         184.6491
   399.26         184.4806
   399.40         184.1637
   399.54         183.7092
   399.68         183.1099
   399.82         182.3600
   399.96         181.4717
   400.10         180.4733
   400.24         179.4066
   400.38         178.3299
   400.52         177.3098
   400.66         176.4010
   400.80         175.6365
   400.94         175.0239
   401.08         174.5363
   401.22         174.1025
   401.36         173.6169
   401.50         172.9766
   401.64         172.1178
   401.78         171.0320
   401.92         169.7631
   402.06         168.4005
   402.20         167.0674
   402.34         165.9054
   402.48         165.0507
   402.62         164.6071
   402.76         164.6270
   402.90         165.1060
   403.04         165.9836
   403.18         167.1501
   403.32         168.4651
   403.46         169.7806
   403.60         170.9620
   403.74         171.9053
   403.88         172.5519
   404.02         172.9023
   404.16         173.0118
   404.30         172.9617
   404.44         172.8252
   404.58         172.6523
   404.72         172.4723
   404.86         172.2996
   405.00         172.1390
   405.14         171.9946
   405.28         171.8708
   405.42         171.7665
   405.56         171.6716
   405.70         171.5668
   405.84         171.4251
   405.98         171.2143
   406.12         170.9050
   406.26         170.4805
   406.40         169.9418
   406.54         169.3076
   406.68         168.6138
   406.82         167.9099
   406.96         167.2430
   407.10         166.6484
   407.24         166.1492
   407.38         165.7541
   407.52         165.4567
   407.66         165.2384
   407.80         165.0700
   407.94         164.9082
   408.08         164.6993
   408.22         164.3852
   408.36         163.9023
   408.50         163.1791
   408.64         162.1376
   408.78         160.6960
   408.92         158.7793
   409.06         156.3514
   409.20         153.4491
   409.34         150.1921
   409.48         146.7717
   409.62         143.4232
   409.76         140.3963
   409.90         137.9274
   410.04         136.2148
   410.18         135.3956
   410.32         135.5270
   410.46         136.5731
   410.60         138.4007
   410.74         140.7930
   410.88         143.4844
   411.02         146.2044
   411.16         148.7140
   411.30         150.8320
   411.44         152.4559
   411.58         153.5736
   411.72         154.2608
   411.86         154.6486
   412.00         154.8711
   412.14         155.0326
   412.28         155.2039
   412.42         155.4298
   412.56         155.7328
   412.70         156.1088
   412.84         156.5206
   412.98         156.9012
   413.12         157.1667
   413.26         157.2365
   413.40         157.0622
   413.54         156.6501
   413.68         156.0534
   413.82         155.3426
   413.96         154.5875
   414.10         153.8546
   414.24         153.2050
   414.38         152.6925
   414.52         152.3605
   414.66         152.2343
   414.80         152.3164
   414.94         152.5851
   415.08         152.9843
   415.22         153.4290
   415.36         153.8354
   415.50         154.1414
   415.64         154.3136
   415.78         154.3483
   415.92         154.2698
   416.06         154.1237
   416.20         153.9561
   416.34         153.7956
   416.48         153.6569
   416.62         153.5515
   416.76         153.4925
   416.90         153.4890
   417.04         153.5399
   417.18         153.6303
   417.32         153.7304
   417.46         153.8050
   417.60         153.8246
   417.74         153.7713
   417.88         153.6478
   418.02         153.4761
   418.16         153.2813
   418.30         153.0837
   418.44         152.9021
   418.58         152.7522
   418.72         152.6372
   418.86         152.5472
   419.00         152.4708
   419.14         152.3984
   419.28         152.3144
   419.42         152.1969
   419.56         152.0257
   419.70         151.7908
   419.84         151.4973
   419.98         151.1652
   420.12         150.8242
   420.26         150.5061
   420.40         150.2348
   420.54         150.0211
   420.68         149.8633
   420.82         149.7507
   420.96         149.6669
   421.10         149.5930
   421.24         149.5107
   421.38         149.4095
   421.52         149.2902
   421.66         149.1606
   421.80         149.0263
   421.94         148.8904
   422.08         148.7574
   422.22         148.6284
   422.36         148.4973
   422.50         148.3544
   422.64         148.1933
   422.78         148.0088
   422.92         147.7912
   423.06         147.5294
   423.20         147.2244
   423.34         146.8937
   423.48         146.5619
   423.62         146.2529
   423.76         145.9850
   423.90         145.7666
   424.04         145.5969
   424.18         145.4677
   424.32         145.3651
   424.46         145.2752
   424.60         145.1892
   424.74         145.1026
   424.88         145.0125
   425.02         144.9186
   425.16         144.8181
   425.30         144.6965
   425.44         144.5217
   425.58         144.2587
   425.72         143.8949
   425.86         143.4418
   426.00         142.9159
   426.14         142.3333
   426.28         141.7186
   426.42         141.1019
   426.56         140.5131
   426.70         139.9849
   426.84         139.5512
   426.98         139.2378
   427.12         139.0558
   427.26         139.0022
   427.40         139.0592
   427.54         139.1963
   427.68         139.3759
   427.82         139.5598
   427.96         139.7175
   428.10         139.8344
   428.24         139.9158
   428.38         139.9801
   428.52         140.0421
   428.66         140.1088
   428.80         140.1839
   428.94         140.2680
   429.08         140.3557
   429.22         140.4409
   429.36         140.5201
   429.50         140.5863
   429.64         140.6248
   429.78         140.6207
   429.92         140.5680
   430.06         140.4669
   430.20         140.3206
   430.34         140.1355
   430.48         139.9161
   430.62         139.6590
   430.76         139.3559
   430.90         139.0030
   431.04         138.6051
   431.18         138.1717
   431.32         137.7114
   431.46         137.2351
   431.60         136.7596
   431.74         136.3004
   431.88         135.8618
   432.02         135.4306
   432.16         134.9775
   432.30         134.4586
   432.44         133.8141
   432.58         132.9646
   432.72         131.8141
   432.86         130.2757
   433.00         128.3039
   433.14         125.9167
   433.28         123.2071
   433.42         120.3371
   433.56         117.5123
   433.70         114.9534
   433.84         112.8658
   433.98         111.4155
   434.12         110.7167
   434.26         110.8178
   434.40         111.6929
   434.54         113.2517
   434.68         115.3545
   434.82         117.8237
   434.96         120.4598
   435.10         123.0660
   435.24         125.4724
   435.38         127.5563
   435.52         129.2561
   435.66         130.5704
   435.80         131.5391
   435.94         132.2163
   436.08         132.6503
   436.22         132.8866
   436.36         132.9690
   436.50         132.9323
   436.64         132.8012
   436.78         132.5954
   436.92         132.3327
   437.06         132.0282
   437.20         131.6893
   437.34         131.3104
   437.48         130.8722
   437.62         130.3511
   437.76         129.7352
   437.90         129.0372
   438.04         128.2943
   438.18         127.5610
   438.32         126.9013
   438.46         126.3760
   438.60         126.0310
   438.74         125.8961
   438.88         125.9850
   439.02         126.2846
   439.16         126.7570
   439.30         127.3543
   439.44         128.0256
   439.58         128.7185
   439.72         129.3752
   439.86         129.9315
   440.00         130.3296
   440.14         130.5307
   440.28         130.5240
   440.42         130.3257
   440.56         129.9642
   440.70         129.4643
   440.84         128.8508
   440.98         128.1575
   441.12         127.4248
   441.26         126.6919
   441.40         125.9901
   441.54         125.3404
   441.68         124.7531
   441.82         124.2333
   441.96         123.7812
   442.10         123.3899
   442.24         123.0438
   442.38         122.7160
   442.52         122.3793
   442.66         122.0246
   442.80         121.6645
   442.94         121.3218
   443.08         121.0218
   443.22         120.7938
   443.36         120.6704
   443.50         120.6793
   443.64         120.8318
   443.78         121.1201
   443.92         121.5246
   444.06         122.0178
   444.20         122.5653
   444.34         123.1276
   444.48         123.6646
   444.62         124.1391
   444.76         124.5217
   444.90         124.7896
   445.04         124.9286
   445.18         124.9376
   445.32         124.8256
   445.46         124.6040
   445.60         124.2718
   445.74         123.8078
   445.88         123.1747
   446.02         122.3365
   446.16         121.2892
   446.30         120.0763
   446.44         118.7774
   446.58         117.4851
   446.72         116.2838
   446.86         115.2373
   447.00         114.3913
   447.14         113.7820
   447.28         113.4373
   447.42         113.3703
   447.56         113.5701
   447.70         113.9977
   447.84         114.5925
   447.98         115.2843
   448.12         116.0022
   448.26         116.6732
   448.40         117.2371
   448.54         117.6711
   448.68         117.9939
   448.82         118.2454
   448.96         118.4542
   449.10         118.6267
   449.24         118.7605
   449.38         118.8559
   449.52         118.9182
   449.66         118.9618
   449.80         119.0040
   449.94         119.0497
   450.08         119.0882
   450.22         119.1037
   450.36         119.0884
   450.50         119.0423
   450.64         118.9682
   450.78         118.8663
   450.92         118.7364
   451.06         118.5811
   451.20         118.4101
   451.34         118.2391
   451.48         118.0794
   451.62         117.9308
   451.76         117.7850
   451.90         117.6310
   452.04         117.4558
   452.18         117.2506
   452.32         117.0200
   452.46         116.7827
   452.60         116.5653
   452.74         116.3928
   452.88         116.2849
   453.02         116.2478
   453.16         116.2684
   453.30         116.3224
   453.44         116.3855
   453.58         116.4333
   453.72         116.4386
   453.86         116.3742
   454.00         116.2146
   454.14         115.9406
   454.28         115.5518
   454.42         115.0737
   454.56         114.5507
   454.70         114.0323
   454.84         113.5626
   454.98         113.1759
   455.12         112.8923
   455.26         112.7118
   455.40         112.6141
   455.54         112.5695
   455.68         112.5495
   455.82         112.5337
   455.96         112.5119
   456.10         112.4755
   456.24         112.4126
   456.38         112.3169
   456.52         112.1948
   456.66         112.0635
   456.80         111.9447
   456.94         111.8564
   457.08         111.8085
   457.22         111.8036
   457.36         111.8356
   457.50         111.8900
   457.64         111.9454
   457.78         111.9765
   457.92         111.9602
   458.06         111.8813
   458.20         111.7364
   458.34         111.5356
   458.48         111.2980
   458.62         111.0457
   458.76         110.8002
   458.90         110.5847
   459.04         110.4248
   459.18         110.3396
   459.32         110.3301
   459.46         110.3792
   459.60         110.4654
   459.74         110.5704
   459.88         110.6766
   460.02         110.7652
   460.16         110.8169
   460.30         110.8150
   460.44         110.7545
   460.58         110.6396
   460.72         110.4778
   460.86         110.2804
   461.00         110.0672
   461.14         109.8625
   461.28         109.6852
   461.42         109.5456
   461.56         109.4458
   461.70         109.3761
   461.84         109.3180
   461.98         109.2547
   462.12         109.1841
   462.26         109.1180
   462.40         109.0657
   462.54         109.0233
   462.68         108.9726
   462.82         108.8887
   462.96         108.7532
   463.10         108.5656
   463.24         108.3370
   463.38         108.0833
   463.52         107.8175
   463.66         107.5449
   463.80         107.2664
   463.94         106.9831
   464.08         106.7034
   464.22         106.4449
   464.36         106.2298
   464.50         106.0788
   464.64         106.0023
   464.78         105.9968
   464.92         106.0461
   465.06         106.1282
   465.20         106.2210
   465.34         106.3031
   465.48         106.3612
   465.62         106.3960
   465.76         106.4144
   465.90         106.4203
   466.04         106.4062
   466.18         106.3571
   466.32         106.2644
   466.46         106.1361
   466.60         105.9895
   466.74         105.8396
   466.88         105.6973
   467.02         105.5702
   467.16         105.4626
   467.30         105.3832
   467.44         105.3443
   467.58         105.3574
   467.72         105.4312
   467.86         105.5633
   468.00         105.7350
   468.14         105.9212
   468.28         106.0962
   468.42         106.2339
   468.56         106.3074
   468.70         106.2893
   468.84         106.1634
   468.98         105.9319
   469.12         105.6085
   469.26         105.2103
   469.40         104.7593
   469.54         104.2865
   469.68         103.8217
   469.82         103.3794
   469.96         102.9585
   470.10         102.5467
   470.24         102.1346
   470.38         101.7228
   470.52         101.3154
   470.66         100.9186
   470.80         100.5474
   470.94         100.2241
   471.08         99.9696
   471.22         99.7941
   471.36         99.6968
   471.50         99.6710
   471.64         99.7080
   471.78         99.7978
   471.92         99.9302
   472.06         100.0944
   472.20         100.2687
   472.34         100.4205
   472.48         100.5200
   472.62         100.5534
   472.76         100.5289
   472.90         100.4737
   473.04         100.4216
   473.18         100.3979
   473.32         100.4166
   473.46         100.4830
   473.60         100.5950
   473.74         100.7418
   473.88         100.9042
   474.02         101.0561
   474.16         101.1733
   474.30         101.2405
   474.44         101.2466
   474.58         101.1794
   474.72         101.0250
   474.86         100.7740
   475.00         100.4298
   475.14         100.0131
   475.28         99.5589
   475.42         99.1074
   475.56         98.6932
   475.70         98.3369
   475.84         98.0469
   475.98         97.8244
   476.12         97.6663
   476.26         97.5671
   476.40         97.5172
   476.54         97.4971
   476.68         97.4806
   476.82         97.4488
   476.96         97.3931
   477.10         97.3056
   477.24         97.1805
   477.38         97.0191
   477.52         96.8278
   477.66         96.6170
   477.80         96.4039
   477.94         96.2041
   478.08         96.0252
   478.22         95.8726
   478.36         95.7536
   478.50         95.6757
   478.64         95.6428
   478.78         95.6543
   478.92         95.7040
   479.06         95.7736
   479.20         95.8342
   479.34         95.8641
   479.48         95.8578
   479.62         95.8173
   479.76         95.7446
   479.90         95.6461
   480.04         95.5331
   480.18         95.4183
   480.32         95.3123
   480.46         95.2170
   480.60         95.1272
   480.74         95.0389
   480.88         94.9497
   481.02         94.8526
   481.16         94.7375
   481.30         94.5993
   481.44         94.4396
   481.58         94.2608
   481.72         94.0638
   481.86         93.8573
   482.00         93.6617
   482.14         93.4970
   482.28         93.3738
   482.42         93.2951
   482.56         93.2582
   482.70         93.2547
   482.84         93.2725
   482.98         93.2951
   483.12         93.3072
   483.26         93.3007
   483.40         93.2726
   483.54         93.2229
   483.68         93.1516
   483.82         93.0566
   483.96         92.9346
   484.10         92.7770
   484.24         92.5636
   484.38         92.2675
   484.52         91.8603
   484.66         91.3074
   484.80         90.5615
   484.94         89.5731
   485.08         88.3153
   485.22         86.8043
   485.36         85.1021
   485.50         83.3061
   485.64         81.5356
   485.78         79.9219
   485.92         78.5948
   486.06         77.6645
   486.20         77.2041
   486.34         77.2368
   486.48         77.7325
   486.62         78.6138
   486.76         79.7671
   486.90         81.0607
   487.04         82.3621
   487.18         83.5520
   487.32         84.5394
   487.46         85.2734
   487.60         85.7527
   487.74         86.0214
   487.88         86.1451
   488.02         86.1882
   488.16         86.2040
   488.30         86.2318
   488.44         86.2959
   488.58         86.4032
   488.72         86.5443
   488.86         86.6995
   489.00         86.8482
   489.14         86.9765
   489.28         87.0771
   489.42         87.1435
   489.56         87.1677
   489.70         87.1440
   489.84         87.0863
   489.98         87.0193
   490.12         86.9583
   490.26         86.9149
   490.40         86.8970
   490.54         86.9057
   490.68         86.9292
   490.82         86.9371
   490.96         86.8828
   491.10         86.7176
   491.24         86.4174
   491.38         85.9989
   491.52         85.5111
   491.66         85.0173
   491.80         84.5786
   491.94         84.2442
   492.08         84.0538
   492.22         84.0410
   492.36         84.2268
   492.50         84.6069
   492.64         85.1387
   492.78         85.7565
   492.92         86.3927
   493.06         86.9790
   493.20         87.4530
   493.34         87.7691
   493.48         87.9105
   493.62         87.8931
   493.76         87.7628
   493.90         87.5813
   494.04         87.4026
   494.18         87.2607
   494.32         87.1714
   494.46         87.1379
   494.60         87.1526
   494.74         87.2039
   494.88         87.2800
   495.02         87.3712
   495.16         87.4680
   495.30         87.5597
   495.44         87.6309
   495.58         87.6601
   495.72         87.6278
   495.86         87.5191
   496.00         87.3261
   496.14         87.0491
   496.28         86.6960
   496.42         86.2836
   496.56         85.8371
   496.70         85.3878
   496.84         84.9629
   496.98         84.5800
   497.12         84.2534
   497.26         84.0035
   497.40         83.8521
   497.54         83.8080
   497.68         83.8618
   497.82         83.9880
   497.96         84.1536
   498.10         84.3268
   498.24         84.4840
   498.38         84.6106
   498.52         84.6952
   498.66         84.7300
   498.80         84.7120
   498.94         84.6398
   499.08         84.5124
   499.22         84.3313
   499.36         84.1042
   499.50         83.8409
   499.64         83.5551
   499.78         83.2682
   499.92         82.9967
   500.06         82.7319
   500.20         82.4433
   500.34         82.1030
   500.48         81.7057
   500.62         81.2688
   500.76         80.8242
   500.90         80.4072
   501.04         80.0468
   501.18         79.7610
   501.32         79.5619
   501.46         79.4587
   501.60         79.4512
   501.74         79.5297
   501.88         79.6789
   502.02         79.8788
   502.16         80.1043
   502.30         80.3291
   502.44         80.5268
   502.58         80.6686
   502.72         80.7299
   502.86         80.7064
   503.00         80.6228
   503.14         80.5178
   503.28         80.4220
   503.42         80.3475
   503.56         80.2929
   503.70         80.2492
   503.84         80.2089
   503.98         80.1763
   504.12         80.1600
   504.26         80.1639
   504.40         80.1911
   504.54         80.2418
   504.68         80.3074
   504.82         80.3730
   504.96         80.4234
   505.10         80.4457
   505.24         80.4318
   505.38         80.3796
   505.52         80.2911
   505.66         80.1715
   505.80         80.0264
   505.94         79.8608
   506.08         79.6834
   506.22         79.5099
   506.36         79.3585
   506.50         79.2451
   506.64         79.1792
   506.78         79.1585
   506.92         79.1768
   507.06         79.2293
   507.20         79.3051
   507.34         79.3858
   507.48         79.4514
   507.62         79.4824
   507.76         79.4635
   507.90         79.3897
   508.04         79.2678
   508.18         79.1102
   508.32         78.9323
   508.46         78.7505
   508.60         78.5775
   508.74         78.4175
   508.88         78.2660
   509.02         78.1137
   509.16         77.9501
   509.30         77.7675
   509.44         77.5624
   509.58         77.3360
   509.72         77.0907
   509.86         76.8254
   510.00         76.5451
   510.14         76.2680
   510.28         76.0205
   510.42         75.8323
   510.56         75.7242
   510.70         75.6980
   510.84         75.7390
   510.98         75.8276
   511.12         75.9462
   511.26         76.0785
   511.40         76.2061
   511.54         76.3145
   511.68         76.3963
   511.82         76.4455
   511.96         76.4561
   512.10         76.4266
   512.24         76.3619
   512.38         76.2685
   512.52         76.1536
   512.66         76.0273
   512.80         75.9012
   512.94         75.7883
   513.08         75.6972
   513.22         75.6258
   513.36         75.5681
   513.50         75.5247
   513.64         75.4998
   513.78         75.4913
   513.92         75.4862
   514.06         75.4664
   514.20         75.4165
   514.34         75.3247
   514.48         75.1846
   514.62         74.9973
   514.76         74.7743
   514.90         74.5365
   515.04         74.3103
   515.18         74.1204
   515.32         73.9854
   515.46         73.9196
   515.60         73.9288
   515.74         74.0040
   515.88         74.1294
   516.02         74.2935
   516.16         74.4851
   516.30         74.6866
   516.44         74.8754
   516.58         75.0356
   516.72         75.1596
   516.86         75.2439
   517.00         75.2888
   517.14         75.2995
   517.28         75.2822
   517.42         75.2442
   517.56         75.1937
   517.70         75.1352
   517.84         75.0657
   517.98         74.9783
   518.12         74.8673
   518.26         74.7306
   518.40         74.5694
   518.54         74.3895
   518.68         74.1961
   518.82         73.9912
   518.96         73.7766
   519.10         73.5554
   519.24         73.3294
   519.38         73.1006
   519.52         72.8764
   519.66         72.6639
   519.80         72.4659
   519.94         72.2834
   520.08         72.1180
   520.22         71.9743
   520.36         71.8575
   520.50         71.7704
   520.64         71.7141
   520.78         71.6926
   520.92         71.7070
   521.06         71.7513
   521.20         71.8149
   521.34         71.8855
   521.48         71.9526
   521.62         72.0079
   521.76         72.0413
   521.90         72.0452
   522.04         72.0212
   522.18         71.9709
   522.32         71.8895
   522.46         71.7813
   522.60         71.6617
   522.74         71.5485
   522.88         71.4514
   523.02         71.3687
   523.16         71.2914
   523.30         71.2111
   523.44         71.1266
   523.58         71.0393
   523.72         70.9498
   523.86         70.8573
   524.00         70.7605
   524.14         70.6606
   524.28         70.5602
   524.42         70.4627
   524.56         70.3754
   524.70         70.3088
   524.84         70.2672
   524.98         70.2479
   525.12         70.2447
   525.26         70.2466
   525.40         70.2430
   525.54         70.2258
   525.68         70.1947
   525.82         70.1587
   525.96         70.1295
   526.10         70.1143
   526.24         70.1116
   526.38         70.1151
   526.52         70.1200
   526.66         70.1216
   526.80         70.1154
   526.94         70.0971
   527.08         70.0633
   527.22         70.0115
   527.36         69.9368
   527.50         69.8346
   527.64         69.7038
   527.78         69.5495
   527.92         69.3834
   528.06         69.2184
   528.20         69.0639
   528.34         68.9267
   528.48         68.8137
   528.62         68.7275
   528.76         68.6623
   528.90         68.6097
   529.04         68.5658
   529.18         68.5305
   529.32         68.5010
   529.46         68.4694
   529.60         68.4267
   529.74         68.3670
   529.88         68.2897
   530.02         68.1963
   530.16         68.0893
   530.30         67.9704
   530.44         67.8418
   530.58         67.7074
   530.72         67.5717
   530.86         67.4421
   531.00         67.3307
   531.14         67.2497
   531.28         67.2045
   531.42         67.1937
   531.56         67.2150
   531.70         67.2614
   531.84         67.3180
   531.98         67.3671
   532.12         67.3952
   532.26         67.3973
   532.40         67.3723
   532.54         67.3173
   532.68         67.2282
   532.82         67.1024
   532.96         66.9439
   533.10         66.7630
   533.24         66.5743
   533.38         66.3944
   533.52         66.2392
   533.66         66.1165
   533.80         66.0246
   533.94         65.9583
   534.08         65.9125
   534.22         65.8820
   534.36         65.8620
   534.50         65.8510
   534.64         65.8504
   534.78         65.8611
   534.92         65.8817
   535.06         65.9065
   535.20         65.9273
   535.34         65.9361
   535.48         65.9275
   535.62         65.9000
   535.76         65.8560
   535.90         65.7993
   536.04         65.7344
   536.18         65.6669
   536.32         65.6030
   536.46         65.5490
   536.60         65.5075
   536.74         65.4763
   536.88         65.4516
   537.02         65.4291
   537.16         65.4008
   537.30         65.3571
   537.44         65.2909
   537.58         65.2004
   537.72         65.0917
   537.86         64.9784
   538.00         64.8762
   538.14         64.7984
   538.28         64.7542
   538.42         64.7469
   538.56         64.7722
   538.70         64.8201
   538.84         64.8759
   538.98         64.9226
   539.12         64.9424
   539.26         64.9207
   539.40         64.8524
   539.54         64.7419
   539.68         64.5962
   539.82         64.4263
   539.96         64.2494
   540.10         64.0859
   540.24         63.9534
   540.38         63.8591
   540.52         63.7982
   540.66         63.7580
   540.80         63.7252
   540.94         63.6918
   541.08         63.6525
   541.22         63.6033
   541.36         63.5432
   541.50         63.4759
   541.64         63.4079
   541.78         63.3454
   541.92         63.2931
   542.06         63.2551
   542.20         63.2317
   542.34         63.2188
   542.48         63.2103
   542.62         63.2004
   542.76         63.1848
   542.90         63.1596
   543.04         63.1203
   543.18         63.0624
   543.32         62.9827
   543.46         62.8811
   543.60         62.7598
   543.74         62.6222
   543.88         62.4735
   544.02         62.3210
   544.16         62.1706
   544.30         62.0257
   544.44         61.8868
   544.58         61.7520
   544.72         61.6212
   544.86         61.4974
   545.00         61.3835
   545.14         61.2815
   545.28         61.1915
   545.42         61.1119
   545.56         61.0398
   545.70         60.9734
   545.84         60.9135
   545.98         60.8637
   546.12         60.8306
   546.26         60.8182
   546.40         60.8239
   546.54         60.8391
   546.68         60.8514
   546.82         60.8486
   546.96         60.8233
   547.10         60.7733
   547.24         60.6995
   547.38         60.6052
   547.52         60.4940
   547.66         60.3691
   547.80         60.2357
   547.94         60.1001
   548.08         59.9673
   548.22         59.8406
   548.36         59.7217
   548.50         59.6112
   548.64         59.5101
   548.78         59.4210
   548.92         59.3483
   549.06         59.2965
   549.20         59.2699
   549.34         59.2722
   549.48         59.3039
   549.62         59.3602
   549.76         59.4305
   549.90         59.5002
   550.04         59.5573
   550.18         59.5967
   550.32         59.6168
   550.46         59.6174
   550.60         59.5987
   550.74         59.5614
   550.88         59.5088
   551.02         59.4476
   551.16         59.3846
   551.30         59.3220
   551.44         59.2582
   551.58         59.1883
   551.72         59.1051
   551.86         59.0039
   552.00         58.8829
   552.14         58.7417
   552.28         58.5827
   552.42         58.4134
   552.56         58.2439
   552.70         58.0824
   552.84         57.9343
   552.98         57.8031
   553.12         57.6898
   553.26         57.5929
   553.40         57.5093
   553.54         57.4381
   553.68         57.3822
   553.82         57.3448
   553.96         57.3269
   554.10         57.3314
   554.24         57.3617
   554.38         57.4197
   554.52         57.5039
   554.66         57.6071
   554.80         57.7188
   554.94         57.8298
   555.08         57.9341
   555.22         58.0235
   555.36         58.0890
   555.50         58.1237
   555.64         58.1233
   555.78         58.0850
   555.92         58.0091
   556.06         57.9004
   556.20         57.7684
   556.34         57.6238
   556.48         57.4743
   556.62         57.3269
   556.76         57.1905
   556.90         57.0743
   557.04         56.9846
   557.18         56.9226
   557.32         56.8847
   557.46         56.8698
   557.60         56.8807
   557.74         56.9177
   557.88         56.9756
   558.02         57.0441
   558.16         57.1126
   558.30         57.1734
   558.44         57.2191
   558.58         57.2403
   558.72         57.2310
   558.86         57.1944
   559.00         57.1393
   559.14         57.0749
   559.28         57.0065
   559.42         56.9346
   559.56         56.8563
   559.70         56.7652
   559.84         56.6544
   559.98         56.5248
   560.12         56.3844
   560.26         56.2387
   560.40         56.0889
   560.54         55.9353
   560.68         55.7809
   560.82         55.6325
   560.96         55.4990
   561.10         55.3871
   561.24         55.3026
   561.38         55.2533
   561.52         55.2450
   561.66         55.2763
   561.80         55.3400
   561.94         55.4241
   562.08         55.5156
   562.22         55.6024
   562.36         55.6730
   562.50         55.7168
   562.64         55.7231
   562.78         55.6818
   562.92         55.5907
   563.06         55.4579
   563.20         55.2951
   563.34         55.1141
   563.48         54.9257
   563.62         54.7380
   563.76         54.5584
   563.90         54.3955
   564.04         54.2583
   564.18         54.1535
   564.32         54.0798
   564.46         54.0291
   564.60         53.9914
   564.74         53.9571
   564.88         53.9194
   565.02         53.8745
   565.16         53.8195
   565.30         53.7536
   565.44         53.6781
   565.58         53.5948
   565.72         53.5040
   565.86         53.4045
   566.00         53.2978
   566.14         53.1884
   566.28         53.0820
   566.42         52.9846
   566.56         52.8982
   566.70         52.8209
   566.84         52.7458
   566.98         52.6639
   567.12         52.5730
   567.26         52.4763
   567.40         52.3770
   567.54         52.2802
   567.68         52.1919
   567.82         52.1175
   567.96         52.0589
   568.10         52.0151
   568.24         51.9836
   568.38         51.9593
   568.52         51.9319
   568.66         51.8891
   568.80         51.8209
   568.94         51.7235
   569.08         51.5991
   569.22         51.4542
   569.36         51.2990
   569.50         51.1472
   569.64         51.0153
   569.78         50.9194
   569.92         50.8684
   570.06         50.8625
   570.20         50.8974
   570.34         50.9657
   570.48         51.0547
   570.62         51.1504
   570.76         51.2406
   570.90         51.3138
   571.04         51.3584
   571.18         51.3653
   571.32         51.3302
   571.46         51.2542
   571.60         51.1434
   571.74         51.0050
   571.88         50.8452
   572.02         50.6717
   572.16         50.4961
   572.30         50.3319
   572.44         50.1845
   572.58         50.0513
   572.72         49.9266
   572.86         49.8060
   573.00         49.6906
   573.14         49.5850
   573.28         49.4934
   573.42         49.4187
   573.56         49.3630
   573.70         49.3314
   573.84         49.3319
   573.98         49.3701
   574.12         49.4467
   574.26         49.5577
   574.40         49.6933
   574.54         49.8408
   574.68         49.9894
   574.82         50.1321
   574.96         50.2593
   575.10         50.3576
   575.24         50.4197
   575.38         50.4476
   575.52         50.4506
   575.66         50.4391
   575.80         50.4157
   575.94         50.3756
   576.08         50.3145
   576.22         50.2310
   576.36         50.1251
   576.50         49.9954
   576.64         49.8370
   576.78         49.6457
   576.92         49.4225
   577.06         49.1764
   577.20         48.9206
   577.34         48.6688
   577.48         48.4322
   577.62         48.2170
   577.76         48.0286
   577.90         47.8737
   578.04         47.7573
   578.18         47.6822
   578.32         47.6449
   578.46         47.6360
   578.60         47.6471
   578.74         47.6720
   578.88         47.7058
   579.02         47.7425
   579.16         47.7774
   579.30         47.8072
   579.44         47.8305
   579.58         47.8475
   579.72         47.8545
   579.86         47.8416
   580.00         47.7996
   580.14         47.7236
   580.28         47.6143
   580.42         47.4795
   580.56         47.3315
   580.70         47.1870
   580.84         47.0627
   580.98         46.9695
   581.12         46.9122
   581.26         46.8916
   581.40         46.9063
   581.54         46.9521
   581.68         47.0195
   581.82         47.0944
   581.96         47.1609
   582.10         47.2048
   582.24         47.2161
   582.38         47.1886
   582.52         47.1250
   582.66         47.0364
   582.80         46.9366
   582.94         46.8407
   583.08         46.7606
   583.22         46.7005
   583.36         46.6584
   583.50         46.6277
   583.64         46.5987
   583.78         46.5603
   583.92         46.5070
   584.06         46.4406
   584.20         46.3633
   584.34         46.2765
   584.48         46.1855
   584.62         46.1008
   584.76         46.0352
   584.90         45.9981
   585.04         45.9950
   585.18         46.0253
   585.32         46.0794
   585.46         46.1423
   585.60         46.1998
   585.74         46.2402
   585.88         46.2554
   586.02         46.2403
   586.16         46.1839
   586.30         46.0638
   586.44         45.8610
   586.58         45.5771
   586.72         45.2322
   586.86         44.8546
   587.00         44.4761
   587.14         44.1272
   587.28         43.8323
   587.42         43.6043
   587.56         43.4365
   587.70         43.2963
   587.84         43.1430
   587.98         42.9507
   588.12         42.7073
   588.26         42.4018
   588.40         42.0207
   588.54         41.5615
   588.68         41.0421
   588.82         40.4995
   588.96         39.9872
   589.10         39.5727
   589.24         39.3241
   589.38         39.2874
   589.52         39.4735
   589.66         39.8634
   589.80         40.4145
   589.94         41.0691
   590.08         41.7619
   590.22         42.4272
   590.36         43.0143
   590.50         43.5007
   590.64         43.8796
   590.78         44.1415
   590.92         44.2824
   591.06         44.3175
   591.20         44.2791
   591.34         44.2008
   591.48         44.1063
   591.62         44.0095
   591.76         43.9204
   591.90         43.8471
   592.04         43.7910
   592.18         43.7484
   592.32         43.7159
   592.46         43.6894
   592.60         43.6606
   592.74         43.6193
   592.88         43.5569
   593.02         43.4684
   593.16         43.3528
   593.30         43.2104
   593.44         43.0455
   593.58         42.8667
   593.72         42.6804
   593.86         42.4896
   594.00         42.2955
   594.14         42.1042
   594.28         41.9263
   594.42         41.7713
   594.56         41.6484
   594.70         41.5652
   594.84         41.5298
   594.98         41.5505
   595.12         41.6299
   595.26         41.7638
   595.40         41.9451
   595.54         42.1626
   595.68         42.3975
   595.82         42.6251
   595.96         42.8197
   596.10         42.9614
   596.24         43.0393
   596.38         43.0531
   596.52         43.0122
   596.66         42.9337
   596.80         42.8394
   596.94         42.7443
   597.08         42.6551
   597.22         42.5795
   597.36         42.5227
   597.50         42.4836
   597.64         42.4549
   597.78         42.4251
   597.92         42.3827
   598.06         42.3217
   598.20         42.2416
   598.34         42.1465
   598.48         42.0421
   598.62         41.9337
   598.76         41.8293
   598.90         41.7398
   599.04         41.6732
   599.18         41.6322
   599.32         41.6154
   599.46         41.6200
   599.60         41.6425
   599.74         41.6800
   599.88         41.7281
   600.02         41.7801
   600.16         41.8292
   600.30         41.8688
   600.44         41.8898
   600.58         41.8816
   600.72         41.8366
   600.86         41.7517
   601.00         41.6264
   601.14         41.4650
   601.28         41.2796
   601.42         41.0877
   601.56         40.9055
   601.70         40.7434
   601.84         40.6074
   601.98         40.4985
   602.12         40.4135
   602.26         40.3469
   602.40         40.2901
   602.54         40.2342
   602.68         40.1733
   602.82         40.1048
   602.96         40.0251
   603.10         39.9318
   603.24         39.8307
   603.38         39.7329
   603.52         39.6466
   603.66         39.5768
   603.80         39.5335
   603.94         39.5310
   604.08         39.5788
   604.22         39.6813
   604.36         39.8367
   604.50         40.0359
   604.64         40.2653
   604.78         40.5120
   604.92         40.7639
   605.06         41.0068
   605.20         41.2261
   605.34         41.4114
   605.48         41.5575
   605.62         41.6617
   605.76         41.7257
   605.90         41.7560
   606.04         41.7578
   606.18         41.7373
   606.32         41.7060
   606.46         41.6778
   606.60         41.6589
   606.74         41.6464
   606.88         41.6362
   607.02         41.6230
   607.16         41.5999
   607.30         41.5616
   607.44         41.5058
   607.58         41.4313
   607.72         41.3397
   607.86         41.2363
   608.00         41.1280
   608.14         41.0199
   608.28         40.9135
   608.42         40.8100
   608.56         40.7149
   608.70         40.6347
   608.84         40.5718
   608.98         40.5254
   609.12         40.4940
   609.26         40.4761
   609.40         40.4723
   609.54         40.4825
   609.68         40.5051
   609.82         40.5377
   609.96         40.5779
   610.10         40.6229
   610.24         40.6692
   610.38         40.7139
   610.52         40.7556
   610.66         40.7917
   610.80         40.8190
   610.94         40.8360
   611.08         40.8464
   611.22         40.8557
   611.36         40.8651
   611.50         40.8711
   611.64         40.8703
   611.78         40.8609
   611.92         40.8418
   612.06         40.8119
   612.20         40.7687
   612.34         40.7094
   612.48         40.6322
   612.62         40.5353
   612.76         40.4183
   612.90         40.2843
   613.04         40.1399
   613.18         39.9917
   613.32         39.8454
   613.46         39.7070
   613.60         39.5825
   613.74         39.4754
   613.88         39.3861
   614.02         39.3118
   614.16         39.2495
   614.30         39.1985
   614.44         39.1597
   614.58         39.1328
   614.72         39.1167
   614.86         39.1110
   615.00         39.1144
   615.14         39.1222
   615.28         39.1274
   615.42         39.1276
   615.56         39.1261
   615.70         39.1237
   615.84         39.1164
   615.98         39.0987
   616.12         39.0645
   616.26         39.0084
   616.40         38.9282
   616.54         38.8245
   616.68         38.7009
   616.82         38.5639
   616.96         38.4225
   617.10         38.2862
   617.24         38.1637
   617.38         38.0614
   617.52         37.9827
   617.66         37.9279
   617.80         37.8962
   617.94         37.8867
   618.08         37.8996
   618.22         37.9321
   618.36         37.9761
   618.50         38.0234
   618.64         38.0689
   618.78         38.1091
   618.92         38.1425
   619.06         38.1695
   619.20         38.1910
   619.34         38.2074
   619.48         38.2197
   619.62         38.2282
   619.76         38.2322
   619.90         38.2316
   620.04         38.2279
   620.18         38.2227
   620.32         38.2155
   620.46         38.2040
   620.60         38.1875
   620.74         38.1663
   620.88         38.1391
   621.02         38.1040
   621.16         38.0602
   621.30         38.0099
   621.44         37.9578
   621.58         37.9093
   621.72         37.8689
   621.86         37.8386
   622.00         37.8188
   622.14         37.8081
   622.28         37.8019
   622.42         37.7939
   622.56         37.7782
   622.70         37.7497
   622.84         37.7048
   622.98         37.6437
   623.12         37.5694
   623.26         37.4868
   623.40         37.4002
   623.54         37.3145
   623.68         37.2359
   623.82         37.1717
   623.96         37.1282
   624.10         37.1080
   624.24         37.1105
   624.38         37.1335
   624.52         37.1730
   624.66         37.2243
   624.80         37.2829
   624.94         37.3436
   625.08         37.4003
   625.22         37.4473
   625.36         37.4779
   625.50         37.4863
   625.64         37.4682
   625.78         37.4200
   625.92         37.3396
   626.06         37.2277
   626.20         37.0903
   626.34         36.9348
   626.48         36.7655
   626.62         36.5821
   626.76         36.3829
   626.90         36.1675
   627.04         35.9355
   627.18         35.6850
   627.32         35.4173
   627.46         35.1401
   627.60         34.8683
   627.74         34.6207
   627.88         34.4143
   628.02         34.2644
   628.16         34.1824
   628.30         34.1745
   628.44         34.2398
   628.58         34.3706
   628.72         34.5537
   628.86         34.7709
   629.00         35.0003
   629.14         35.2208
   629.28         35.4137
   629.42         35.5656
   629.56         35.6700
   629.70         35.7263
   629.84         35.7389
   629.98         35.7171
   630.12         35.6741
   630.26         35.6216
   630.40         35.5668
   630.54         35.5159
   630.68         35.4758
   630.82         35.4503
   630.96         35.4379
   631.10         35.4347
   631.24         35.4360
   631.38         35.4383
   631.52         35.4395
   631.66         35.4360
   631.80         35.4239
   631.94         35.4006
   632.08         35.3667
   632.22         35.3257
   632.36         35.2831
   632.50         35.2443
   632.64         35.2134
   632.78         35.1940
   632.92         35.1876
   633.06         35.1920
   633.20         35.2004
   633.34         35.2034
   633.48         35.1923
   633.62         35.1628
   633.76         35.1163
   633.90         35.0580
   634.04         34.9936
   634.18         34.9273
   634.32         34.8635
   634.46         34.8084
   634.60         34.7670
   634.74         34.7417
   634.88         34.7357
   635.02         34.7498
   635.16         34.7796
   635.30         34.8189
   635.44         34.8628
   635.58         34.9061
   635.72         34.9440
   635.86         34.9725
   636.00         34.9887
   636.14         34.9930
   636.28         34.9889
   636.42         34.9801
   636.56         34.9673
   636.70         34.9479
   636.84         34.9201
   636.98         34.8843
   637.12         34.8410
   637.26         34.7912
   637.40         34.7387
   637.54         34.6872
   637.68         34.6372
   637.82         34.5892
   637.96         34.5445
   638.10         34.5030
   638.24         34.4646
   638.38         34.4300
   638.52         34.4006
   638.66         34.3776
   638.80         34.3619
   638.94         34.3511
   639.08         34.3396
   639.22         34.3218
   639.36         34.2949
   639.50         34.2592
   639.64         34.2164
   639.78         34.1705
   639.92         34.1268
   640.06         34.0887
   640.20         34.0561
   640.34         34.0285
   640.48         34.0061
   640.62         33.9871
   640.76         33.9695
   640.90         33.9516
   641.04         33.9315
   641.18         33.9059
   641.32         33.8709
   641.46         33.8237
   641.60         33.7648
   641.74         33.6993
   641.88         33.6344
   642.02         33.5773
   642.16         33.5336
   642.30         33.5075
   642.44         33.5013
   642.58         33.5149
   642.72         33.5440
   642.86         33.5836
   643.00         33.6298
   643.14         33.6765
   643.28         33.7159
   643.42         33.7409
   643.56         33.7471
   643.70         33.7304
   643.84         33.6869
   643.98         33.6157
   644.12         33.5200
   644.26         33.4056
   644.40         33.2802
   644.54         33.1523
   644.68         33.0287
   644.82         32.9154
   644.96         32.8193
   645.10         32.7460
   645.24         32.6972
   645.38         32.6710
   645.52         32.6638
   645.66         32.6697
   645.80         32.6804
   645.94         32.6898
   646.08         32.6961
   646.22         32.7001
   646.36         32.7024
   646.50         32.7038
   646.64         32.7062
   646.78         32.7104
   646.92         32.7161
   647.06         32.7243
   647.20         32.7352
   647.34         32.7464
   647.48         32.7546
   647.62         32.7573
   647.76         32.7525
   647.90         32.7388
   648.04         32.7173
   648.18         32.6914
   648.32         32.6645
   648.46         32.6407
   648.60         32.6231
   648.74         32.6146
   648.88         32.6170
   649.02         32.6298
   649.16         32.6497
   649.30         32.6732
   649.44         32.6942
   649.58         32.7061
   649.72         32.7041
   649.86         32.6852
   650.00         32.6495
   650.14         32.6016
   650.28         32.5493
   650.42         32.5004
   650.56         32.4612
   650.70         32.4364
   650.84         32.4291
   650.98         32.4406
   651.12         32.4697
   651.26         32.5137
   651.40         32.5704
   651.54         32.6375
   651.68         32.7102
   651.82         32.7806
   651.96         32.8399
   652.10         32.8812
   652.24         32.9023
   652.38         32.9061
   652.52         32.8970
   652.66         32.8781
   652.80         32.8509
   652.94         32.8168
   653.08         32.7773
   653.22         32.7340
   653.36         32.6900
   653.50         32.6500
   653.64         32.6180
   653.78         32.5966
   653.92         32.5886
   654.06         32.5947
   654.20         32.6090
   654.34         32.6220
   654.48         32.6249
   654.62         32.6107
   654.76         32.5716
   654.90         32.4961
   655.04         32.3704
   655.18         32.1854
   655.32         31.9425
   655.46         31.6556
   655.60         31.3465
   655.74         31.0400
   655.88         30.7596
   656.02         30.5262
   656.16         30.3553
   656.30         30.2544
   656.44         30.2199
   656.58         30.2386
   656.72         30.2919
   656.86         30.3606
   657.00         30.4281
   657.14         30.4800
   657.28         30.5056
   657.42         30.5005
   657.56         30.4699
   657.70         30.4305
   657.84         30.4053
   657.98         30.4135
   658.12         30.4647
   658.26         30.5577
   658.40         30.6849
   658.54         30.8343
   658.68         30.9906
   658.82         31.1387
   658.96         31.2648
   659.10         31.3590
   659.24         31.4183
   659.38         31.4450
   659.52         31.4438
   659.66         31.4196
   659.80         31.3777
   659.94         31.3235
   660.08         31.2608
   660.22         31.1924
   660.36         31.1207
   660.50         31.0467
   660.64         30.9722
   660.78         30.8996
   660.92         30.8317
   661.06         30.7718
   661.20         30.7210
   661.34         30.6795
   661.48         30.6492
   661.62         30.6316
   661.76         30.6263
   661.90         30.6310
   662.04         30.6422
   662.18         30.6569
   662.32         30.6721
   662.46         30.6853
   662.60         30.6944
   662.74         30.6977
   662.88         30.6932
   663.02         30.6795
   663.16         30.6559
   663.30         30.6226
   663.44         30.5799
   663.58         30.5292
   663.72         30.4738
   663.86         30.4194
   664.00         30.3720
   664.14         30.3358
   664.28         30.3109
   664.42         30.2952
   664.56         30.2847
   664.70         30.2748
   664.84         30.2623
   664.98         30.2458
   665.12         30.2249
   665.26         30.1999
   665.40         30.1701
   665.54         30.1364
   665.68         30.1001
   665.82         30.0624
   665.96         30.0233
   666.10         29.9810
   666.24         29.9298
   666.38         29.8595
   666.52         29.7554
   666.66         29.6039
   666.80         29.4001
   666.94         29.1531
   667.08         28.8828
   667.22         28.6133
   667.36         28.3679
   667.50         28.1666
   667.64         28.0236
   667.78         27.9467
   667.92         27.9368
   668.06         27.9880
   668.20         28.0891
   668.34         28.2236
   668.48         28.3708
   668.62         28.5109
   668.76         28.6269
   668.90         28.7065
   669.04         28.7457
   669.18         28.7509
   669.32         28.7364
   669.46         28.7189
   669.60         28.7103
   669.74         28.7151
   669.88         28.7306
   670.02         28.7499
   670.16         28.7667
   670.30         28.7776
   670.44         28.7817
   670.58         28.7784
   670.72         28.7671
   670.86         28.7478
   671.00         28.7219
   671.14         28.6917
   671.28         28.6603
   671.42         28.6297
   671.56         28.5983
   671.70         28.5623
   671.84         28.5188
   671.98         28.4665
   672.12         28.4058
   672.26         28.3389
   672.40         28.2689
   672.54         28.1989
   672.68         28.1331
   672.82         28.0781
   672.96         28.0397
   673.10         28.0194
   673.24         28.0163
   673.38         28.0292
   673.52         28.0566
   673.66         28.0961
   673.80         28.1449
   673.94         28.2010
   674.08         28.2615
   674.22         28.3229
   674.36         28.3822
   674.50         28.4367
   674.64         28.4827
   674.78         28.5152
   674.92         28.5304
   675.06         28.5262
   675.20         28.5034
   675.34         28.4664
   675.48         28.4204
   675.62         28.3696
   675.76         28.3190
   675.90         28.2743
   676.04         28.2393
   676.18         28.2159
   676.32         28.2042
   676.46         28.2039
   676.60         28.2121
   676.74         28.2226
   676.88         28.2298
   677.02         28.2298
   677.16         28.2201
   677.30         28.2003
   677.44         28.1725
   677.58         28.1411
   677.72         28.1108
   677.86         28.0857
   678.00         28.0680
   678.14         28.0577
   678.28         28.0533
   678.42         28.0538
   678.56         28.0579
   678.70         28.0641
   678.84         28.0706
   678.98         28.0756
   679.12         28.0772
   679.26         28.0747
   679.40         28.0683
   679.54         28.0592
   679.68         28.0488
   679.82         28.0392
   679.96         28.0317
   680.10         28.0258
   680.24         28.0203
   680.38         28.0124
   680.52         27.9991
   680.66         27.9782
   680.80         27.9490
   680.94         27.9138
   681.08         27.8753
   681.22         27.8352
   681.36         27.7944
   681.50         27.7538
   681.64         27.7163
   681.78         27.6869
   681.92         27.6710
   682.06         27.6707
   682.20         27.6846
   682.34         27.7077
   682.48         27.7331
   682.62         27.7536
   682.76         27.7642
   682.90         27.7614
   683.04         27.7419
   683.18         27.7048
   683.32         27.6536
   683.46         27.5942
   683.60         27.5320
   683.74         27.4724
   683.88         27.4217
   684.02         27.3876
   684.16         27.3759
   684.30         27.3886
   684.44         27.4228
   684.58         27.4720
   684.72         27.5290
   684.86         27.5850
   685.00         27.6327
   685.14         27.6667
   685.28         27.6809
   685.42         27.6647
   685.56         27.5987
   685.70         27.4567
   685.84         27.2142
   685.98         26.8564
   686.12         26.3809
   686.26         25.7991
   686.40         25.1362
   686.54         24.4273
   686.68         23.7135
   686.82         23.0396
   686.96         22.4528
   687.10         21.9970
   687.24         21.7042
   687.38         21.5867
   687.52         21.6365
   687.66         21.8297
   687.80         22.1285
   687.94         22.4859
   688.08         22.8525
   688.22         23.1844
   688.36         23.4532
   688.50         23.6493
   688.64         23.7769
   688.78         23.8463
   688.92         23.8704
   689.06         23.8635
   689.20         23.8406
   689.34         23.8167
   689.48         23.8059
   689.62         23.8183
   689.76         23.8576
   689.90         23.9236
   690.04         24.0144
   690.18         24.1270
   690.32         24.2585
   690.46         24.4054
   690.60         24.5635
   690.74         24.7283
   690.88         24.8954
   691.02         25.0603
   691.16         25.2170
   691.30         25.3598
   691.44         25.4852
   691.58         25.5926
   691.72         25.6811
   691.86         25.7483
   692.00         25.7930
   692.14         25.8162
   692.28         25.8194
   692.42         25.8048
   692.56         25.7763
   692.70         25.7370
   692.84         25.6900
   692.98         25.6409
   693.12         25.5970
   693.26         25.5653
   693.40         25.5497
   693.54         25.5501
   693.68         25.5634
   693.82         25.5859
   693.96         25.6152
   694.10         25.6495
   694.24         25.6859
   694.38         25.7201
   694.52         25.7493
   694.66         25.7751
   694.80         25.8002
   694.94         25.8255
   695.08         25.8503
   695.22         25.8738
   695.36         25.8959
   695.50         25.9173
   695.64         25.9398
   695.78         25.9649
   695.92         25.9922
   696.06         26.0206
   696.20         26.0515
   696.34         26.0889
   696.48         26.1364
   696.62         26.1930
   696.76         26.2535
   696.90         26.3110
   697.04         26.3586
   697.18         26.3899
   697.32         26.3989
   697.46         26.3807
   697.60         26.3323
   697.74         26.2554
   697.88         26.1556
   698.02         26.0403
   698.16         25.9168
   698.30         25.7932
   698.44         25.6771
   698.58         25.5749
   698.72         25.4924
   698.86         25.4340
   699.00         25.3996
   699.14         25.3848
   699.28         25.3833
   699.42         25.3897
   699.56         25.4010
   699.70         25.4135
   699.84         25.4215
   699.98         25.4219
   700.12         25.4159
   700.26         25.4050
   700.40         25.3906
   700.54         25.3743
   700.68         25.3585
   700.82         25.3452
   700.96         25.3359
   701.10         25.3300
   701.24         25.3261
   701.38         25.3235
   701.52         25.3200
   701.66         25.3137
   701.80         25.3043
   701.94         25.2931
   702.08         25.2822
   702.22         25.2731
   702.36         25.2660
   702.50         25.2607
   702.64         25.2575
   702.78         25.2558
   702.92         25.2531
   703.06         25.2468
   703.20         25.2348
   703.34         25.2148
   703.48         25.1847
   703.62         25.1426
   703.76         25.0882
   703.90         25.0237
   704.04         24.9527
   704.18         24.8787
   704.32         24.8056
   704.46         24.7369
   704.60         24.6748
   704.74         24.6184
   704.88         24.5651
   705.02         24.5111
   705.16         24.4508
   705.30         24.3766
   705.44         24.2837
   705.58         24.1725
   705.72         24.0493
   705.86         23.9236
   706.00         23.8067
   706.14         23.7095
   706.28         23.6405
   706.42         23.6056
   706.56         23.6078
   706.70         23.6464
   706.84         23.7176
   706.98         23.8153
   707.12         23.9320
   707.26         24.0566
   707.40         24.1771
   707.54         24.2846
   707.68         24.3742
   707.82         24.4443
   707.96         24.4985
   708.10         24.5440
   708.24         24.5881
   708.38         24.6341
   708.52         24.6807
   708.66         24.7243
   708.80         24.7608
   708.94         24.7849
   709.08         24.7929
   709.22         24.7834
   709.36         24.7572
   709.50         24.7149
   709.64         24.6579
   709.78         24.5879
   709.92         24.5080
   710.06         24.4247
   710.20         24.3459
   710.34         24.2760
   710.48         24.2150
   710.62         24.1600
   710.76         24.1066
   710.90         24.0516
   711.04         23.9958
   711.18         23.9416
   711.32         23.8931
   711.46         23.8550
   711.60         23.8297
   711.74         23.8191
   711.88         23.8256
   712.02         23.8501
   712.16         23.8922
   712.30         23.9512
   712.44         24.0229
   712.58         24.0992
   712.72         24.1689
   712.86         24.2198
   713.00         24.2427
   713.14         24.2352
   713.28         24.1997
   713.42         24.1397
   713.56         24.0605
   713.70         23.9693
   713.84         23.8730
   713.98         23.7787
   714.12         23.6913
   714.26         23.6134
   714.40         23.5490
   714.54         23.5039
   714.68         23.4832
   714.82         23.4886
   714.96         23.5165
   715.10         23.5588
   715.24         23.6064
   715.38         23.6512
   715.52         23.6848
   715.66         23.7002
   715.80         23.6916
   715.94         23.6530
   716.08         23.5801
   716.22         23.4746
   716.36         23.3421
   716.50         23.1895
   716.64         23.0241
   716.78         22.8537
   716.92         22.6849
   717.06         22.5246
   717.20         22.3787
   717.34         22.2482
   717.48         22.1305
   717.62         22.0239
   717.76         21.9297
   717.90         21.8490
   718.04         21.7806
   718.18         21.7231
   718.32         21.6762
   718.46         21.6398
   718.60         21.6131
   718.74         21.5934
   718.88         21.5768
   719.02         21.5613
   719.16         21.5460
   719.30         21.5299
   719.44         21.5127
   719.58         21.4956
   719.72         21.4824
   719.86         21.4783
   720.00         21.4883
   720.14         21.5178
   720.28         21.5699
   720.42         21.6426
   720.56         21.7301
   720.70         21.8272
   720.84         21.9316
   720.98         22.0422
   721.12         22.1554
   721.26         22.2669
   721.40         22.3723
   721.54         22.4661
   721.68         22.5432
   721.82         22.5969
   721.96         22.6219
   722.10         22.6164
   722.24         22.5789
   722.38         22.5101
   722.52         22.4144
   722.66         22.3007
   722.80         22.1769
   722.94         22.0479
   723.08         21.9197
   723.22         21.8001
   723.36         21.6988
   723.50         21.6239
   723.64         21.5800
   723.78         21.5673
   723.92         21.5823
   724.06         21.6166
   724.20         21.6591
   724.34         21.7026
   724.48         21.7459
   724.62         21.7877
   724.76         21.8223
   724.90         21.8442
   725.04         21.8518
   725.18         21.8449
   725.32         21.8216
   725.46         21.7808
   725.60         21.7249
   725.74         21.6612
   725.88         21.5985
   726.02         21.5420
   726.16         21.4920
   726.30         21.4459
   726.44         21.3992
   726.58         21.3453
   726.72         21.2797
   726.86         21.2008
   727.00         21.1107
   727.14         21.0134
   727.28         20.9122
   727.42         20.8135
   727.56         20.7278
   727.70         20.6647
   727.84         20.6285
   727.98         20.6195
   728.12         20.6369
   728.26         20.6770
   728.40         20.7315
   728.54         20.7881
   728.68         20.8329
   728.82         20.8557
   728.96         20.8526
   729.10         20.8232
   729.24         20.7698
   729.38         20.6996
   729.52         20.6238
   729.66         20.5534
   729.80         20.4963
   729.94         20.4568
   730.08         20.4384
   730.22         20.4427
   730.36         20.4690
   730.50         20.5139
   730.64         20.5721
   730.78         20.6376
   730.92         20.7034
   731.06         20.7619
   731.20         20.8076
   731.34         20.8383
   731.48         20.8550
   731.62         20.8597
   731.76         20.8535
   731.90         20.8367
   732.04         20.8106
   732.18         20.7778
   732.32         20.7405
   732.46         20.7019
   732.60         20.6661
   732.74         20.6362
   732.88         20.6131
   733.02         20.5959
   733.16         20.5838
   733.30         20.5758
   733.44         20.5712
   733.58         20.5683
   733.72         20.5619
   733.86         20.5453
   734.00         20.5148
   734.14         20.4705
   734.28         20.4124
   734.42         20.3407
   734.56         20.2581
   734.70         20.1712
   734.84         20.0901
   734.98         20.0234
   735.12         19.9769
   735.26         19.9525
   735.40         19.9499
   735.54         19.9641
   735.68         19.9861
   735.82         20.0053
   735.96         20.0123
   736.10         20.0013
   736.24         19.9695
   736.38         19.9174
   736.52         19.8514
   736.66         19.7809
   736.80         19.7135
   736.94         19.6536
   737.08         19.6051
   737.22         19.5722
   737.36         19.5582
   737.50         19.5627
   737.64         19.5816
   737.78         19.6086
   737.92         19.6388
   738.06         19.6694
   738.20         19.6985
   738.34         19.7245
   738.48         19.7449
   738.62         19.7566
   738.76         19.7562
   738.90         19.7415
   739.04         19.7151
   739.18         19.6833
   739.32         19.6542
   739.46         19.6361
   739.60         19.6350
   739.74         19.6516
   739.88         19.6820
   740.02         19.7178
   740.16         19.7492
   740.30         19.7668
   740.44         19.7637
   740.58         19.7371
   740.72         19.6890
   740.86         19.6238
   741.00         19.5465
   741.14         19.4635
   741.28         19.3832
   741.42         19.3144
   741.56         19.2642
   741.70         19.2366
   741.84         19.2304
   741.98         19.2400
   742.12         19.2570
   742.26         19.2729
   742.40         19.2827
   742.54         19.2860
   742.68         19.2858
   742.82         19.2850
   742.96         19.2850
   743.10         19.2858
   743.24         19.2860
   743.38         19.2827
   743.52         19.2729
   743.66         19.2570
   743.80         19.2400
   743.94         19.2304
   744.08         19.2366
   744.22         19.2642
