# File SAO12149
# Wavelength [nm]    Normalized Amplitude
   349.70         98.8549
   349.84         98.7288
   349.98         98.0496
   350.12         96.8682
   350.26         95.2527
   350.40         93.3336
   350.54         91.2941
   350.68         89.3414
   350.82         87.7014
   350.96         86.5966
   351.10         86.2043
   351.24         86.5966
   351.38         87.7014
   351.52         89.3414
   351.66         91.2941
   351.80         93.3336
   351.94         95.2527
   352.08         96.8682
   352.22         98.0496
   352.36         98.7288
   352.50         98.8549
   352.64         98.4086
   352.78         97.4571
   352.92         96.1997
   353.06         94.8905
   353.20         93.7167
   353.34         92.7991
   353.48         92.2011
   353.62         91.9280
   353.76         91.9333
   353.90         92.1140
   354.04         92.3327
   354.18         92.5429
   354.32         92.8025
   354.46         93.1424
   354.60         93.5393
   354.74         93.9710
   354.88         94.4010
   355.02         94.7747
   355.16         95.1266
   355.30         95.5562
   355.44         96.1114
   355.58         96.7612
   355.72         97.4030
   355.86         97.9066
   356.00         98.1824
   356.14         98.2045
   356.28         97.9935
   356.42         97.5784
   356.56         96.9727
   356.70         96.2163
   356.84         95.4317
   356.98         94.7148
   357.12         94.0969
   357.26         93.6465
   357.40         93.4332
   357.54         93.4365
   357.68         93.6115
   357.82         93.9449
   357.96         94.3472
   358.10         94.6644
   358.24         94.7745
   358.38         94.5998
   358.52         94.0935
   358.66         93.2719
   358.80         92.2138
   358.94         91.0100
   359.08         89.7548
   359.22         88.5725
   359.36         87.6176
   359.50         87.0210
   359.64         86.8217
   359.78         86.9948
   359.92         87.4949
   360.06         88.2365
   360.20         89.1161
   360.34         90.0769
   360.48         91.1155
   360.62         92.2301
   360.76         93.3904
   360.90         94.5433
   361.04         95.6396
   361.18         96.6315
   361.32         97.4385
   361.46         97.9698
   361.60         98.1749
   361.74         98.0295
   361.88         97.5175
   362.02         96.6574
   362.16         95.5491
   362.30         94.3666
   362.44         93.2891
   362.58         92.4303
   362.72         91.8271
   362.86         91.4821
   363.00         91.3848
   363.14         91.5053
   363.28         91.8024
   363.42         92.2246
   363.56         92.6984
   363.70         93.1426
   363.84         93.5031
   363.98         93.7800
   364.12         94.0225
   364.26         94.2607
   364.40         94.4763
   364.54         94.6530
   364.68         94.7760
   364.82         94.8100
   364.96         94.6966
   365.10         94.3691
   365.24         93.8065
   365.38         93.0598
   365.52         92.2234
   365.66         91.4219
   365.80         90.7979
   365.94         90.4581
   366.08         90.4171
   366.22         90.6282
   366.36         91.0524
   366.50         91.6770
   366.64         92.4723
   366.78         93.3360
   366.92         94.1298
   367.06         94.7705
   367.20         95.2418
   367.34         95.5492
   367.48         95.7317
   367.62         95.8892
   367.76         96.1309
   367.90         96.5184
   368.04         97.1007
   368.18         97.9662
   368.32         99.2200
   368.46         100.9121
   368.60         103.0372
   368.74         105.6022
   368.88         108.6021
   369.02         111.9416
   369.16         115.4349
   369.30         118.8657
   369.44         122.0751
   369.58         125.0167
   369.72         127.7111
   369.86         130.1502
   370.00         132.2658
   370.14         134.0260
   370.28         135.5504
   370.42         137.0775
   370.56         138.8537
   370.70         141.0319
   370.84         143.5816
   370.98         146.3107
   371.12         148.9992
   371.26         151.5245
   371.40         153.8869
   371.54         156.1547
   371.68         158.4197
   371.82         160.7566
   371.96         163.1889
   372.10         165.6622
   372.24         168.0147
   372.38         170.0255
   372.52         171.5611
   372.66         172.7109
   372.80         173.7700
   372.94         175.0879
   373.08         176.9090
   373.22         179.3181
   373.36         182.2819
   373.50         185.6718
   373.64         189.2813
   373.78         192.8639
   373.92         196.1741
   374.06         199.0231
   374.20         201.3082
   374.34         202.9723
   374.48         204.0051
   374.62         204.5094
   374.76         204.7104
   374.90         204.9249
   375.04         205.5104
   375.18         206.7617
   375.32         208.8072
   375.46         211.5252
   375.60         214.5144
   375.74         217.1651
   375.88         218.8064
   376.02         218.9039
   376.16         217.2454
   376.30         214.0613
   376.44         209.9955
   376.58         205.9378
   376.72         202.7861
   376.86         201.2241
   377.00         201.6239
   377.14         204.0843
   377.28         208.5006
   377.42         214.6019
   377.56         221.9638
   377.70         230.0106
   377.84         238.0715
   377.98         245.4688
   378.12         251.5614
   378.26         255.7608
   378.40         257.6078
   378.54         256.8858
   378.68         253.7091
   378.82         248.5002
   378.96         241.8881
   379.10         234.6256
   379.24         227.5100
   379.38         221.2836
   379.52         216.5477
   379.66         213.7429
   379.80         213.1258
   379.94         214.7363
   380.08         218.4037
   380.22         223.7603
   380.36         230.2837
   380.50         237.3860
   380.64         244.4688
   380.78         250.9456
   380.92         256.3275
   381.06         260.3526
   381.20         263.0245
   381.34         264.5448
   381.48         265.1863
   381.62         265.1809
   381.76         264.6135
   381.90         263.3657
   382.04         261.1689
   382.18         257.6898
   382.32         252.6575
   382.46         245.9839
   382.60         237.8326
   382.74         228.6290
   382.88         219.0128
   383.02         209.7574
   383.16         201.6754
   383.30         195.4997
   383.44         191.7832
   383.58         190.8669
   383.72         192.8357
   383.86         197.4872
   384.00         204.3747
   384.14         212.8496
   384.28         222.0975
   384.42         231.2066
   384.56         239.3436
   384.70         245.9395
   384.84         250.7429
   384.98         253.7990
   385.12         255.3841
   385.26         255.9022
   385.40         255.7896
   385.54         255.4563
   385.68         255.2343
   385.82         255.3410
   385.96         255.8878
   386.10         256.8979
   386.24         258.2992
   386.38         259.9480
   386.52         261.6839
   386.66         263.3276
   386.80         264.6576
   386.94         265.4465
   387.08         265.4945
   387.22         264.6224
   387.36         262.6344
   387.50         259.2913
   387.64         254.3558
   387.78         247.7264
   387.92         239.5803
   388.06         230.3848
   388.20         220.7949
   388.34         211.5441
   388.48         203.3502
   388.62         196.8391
   388.76         192.4772
   388.90         190.5400
   389.04         191.1389
   389.18         194.2158
   389.32         199.4986
   389.46         206.5253
   389.60         214.7218
   389.74         223.4359
   389.88         231.9740
   390.02         239.7095
   390.16         246.2114
   390.30         251.3215
   390.44         255.1408
   390.58         257.9087
   390.72         259.8638
   390.86         261.1855
   391.00         262.0039
   391.14         262.4229
   391.28         262.5366
   391.42         262.4534
   391.56         262.3029
   391.70         262.2100
   391.84         262.2280
   391.98         262.2663
   392.12         262.1053
   392.26         261.4897
   392.40         260.2399
   392.54         258.3164
   392.68         255.8243
   392.82         252.9887
   392.96         250.0905
   393.10         247.3734
   393.24         245.0113
   393.38         243.1529
   393.52         241.9391
   393.66         241.4600
   393.80         241.7136
   393.94         242.6090
   394.08         243.9990
   394.22         245.7046
   394.36         247.5167
   394.50         249.1842
   394.64         250.4517
   394.78         251.1689
   394.92         251.3310
   395.06         250.9815
   395.20         250.0942
   395.34         248.5323
   395.48         246.0608
   395.62         242.3671
   395.76         237.1591
   395.90         230.3280
   396.04         222.0470
   396.18         212.7641
   396.32         203.1286
   396.46         193.8990
   396.60         185.8594
   396.74         179.7215
   396.88         176.0208
   397.02         175.0609
   397.16         176.8968
   397.30         181.3376
   397.44         187.9619
   397.58         196.1320
   397.72         205.0502
   397.86         213.8820
   398.00         221.8901
   398.14         228.5591
   398.28         233.6748
   398.42         237.3359
   398.56         239.8636
   398.70         241.6357
   398.84         242.9661
   398.98         244.0470
   399.12         244.9405
   399.26         245.6298
   399.40         246.0826
   399.54         246.2730
   399.68         246.1841
   399.82         245.8063
   399.96         245.1472
   400.10         244.2355
   400.24         243.1134
   400.38         241.8407
   400.52         240.4957
   400.66         239.1764
   400.80         237.9939
   400.94         237.0392
   401.08         236.3527
   401.22         235.8928
   401.36         235.5548
   401.50         235.2469
   401.64         234.9295
   401.78         234.6058
   401.92         234.3065
   402.06         234.0794
   402.20         233.9589
   402.34         233.9379
   402.48         233.9758
   402.62         234.0204
   402.76         234.0061
   402.90         233.8573
   403.04         233.5176
   403.18         232.9743
   403.32         232.2520
   403.46         231.3775
   403.60         230.3647
   403.74         229.2293
   403.88         228.0055
   404.02         226.7620
   404.16         225.5805
   404.30         224.5266
   404.44         223.6442
   404.58         222.9559
   404.72         222.4711
   404.86         222.1788
   405.00         222.0386
   405.14         222.0006
   405.28         222.0266
   405.42         222.0716
   405.56         222.0809
   405.70         222.0160
   405.84         221.8472
   405.98         221.5576
   406.12         221.1610
   406.26         220.6956
   406.40         220.2044
   406.54         219.7230
   406.68         219.2884
   406.82         218.9466
   406.96         218.7486
   407.10         218.7179
   407.24         218.8376
   407.38         219.0714
   407.52         219.3703
   407.66         219.6734
   407.80         219.9147
   407.94         220.0259
   408.08         219.9282
   408.22         219.5361
   408.36         218.7609
   408.50         217.4893
   408.64         215.5651
   408.78         212.7621
   408.92         208.8396
   409.06         203.6933
   409.20         197.4383
   409.34         190.3985
   409.48         183.0460
   409.62         175.9326
   409.76         169.6271
   409.90         164.6628
   410.04         161.4815
   410.18         160.3713
   410.32         161.4201
   410.46         164.5015
   410.60         169.2988
   410.74         175.3427
   410.88         182.0586
   411.02         188.8369
   411.16         195.0985
   411.30         200.3761
   411.44         204.4062
   411.58         207.1777
   411.72         208.8723
   411.86         209.7472
   412.00         210.0607
   412.14         210.0343
   412.28         209.8356
   412.42         209.5962
   412.56         209.4248
   412.70         209.3902
   412.84         209.5051
   412.98         209.7450
   413.12         210.0774
   413.26         210.4676
   413.40         210.8835
   413.54         211.3051
   413.68         211.7273
   413.82         212.1507
   413.96         212.5742
   414.10         212.9939
   414.24         213.4040
   414.38         213.8075
   414.52         214.2333
   414.66         214.7155
   414.80         215.2540
   414.94         215.8129
   415.08         216.3468
   415.22         216.8108
   415.36         217.1633
   415.50         217.3829
   415.64         217.4749
   415.78         217.4530
   415.92         217.3142
   416.06         217.0333
   416.20         216.5674
   416.34         215.8665
   416.48         214.8802
   416.62         213.5708
   416.76         211.9554
   416.90         210.1156
   417.04         208.1697
   417.18         206.2489
   417.32         204.4703
   417.46         202.9316
   417.60         201.7159
   417.74         200.8829
   417.88         200.4625
   418.02         200.4527
   418.16         200.8109
   418.30         201.4558
   418.44         202.2801
   418.58         203.1633
   418.72         203.9938
   418.86         204.6921
   419.00         205.2171
   419.14         205.5650
   419.28         205.7722
   419.42         205.9006
   419.56         205.9949
   419.70         206.0672
   419.84         206.1151
   419.98         206.1378
   420.12         206.1472
   420.26         206.1593
   420.40         206.1833
   420.54         206.2243
   420.68         206.2864
   420.82         206.3712
   420.96         206.4741
   421.10         206.5799
   421.24         206.6551
   421.38         206.6524
   421.52         206.5250
   421.66         206.2390
   421.80         205.7776
   421.94         205.1368
   422.08         204.3197
   422.22         203.3376
   422.36         202.2286
   422.50         201.0653
   422.64         199.9343
   422.78         198.9086
   422.92         198.0348
   423.06         197.3367
   423.20         196.8254
   423.34         196.5047
   423.48         196.3639
   423.62         196.3622
   423.76         196.4334
   423.90         196.5048
   424.04         196.5126
   424.18         196.4184
   424.32         196.2100
   424.46         195.8900
   424.60         195.4719
   424.74         194.9799
   424.88         194.4540
   425.02         193.9509
   425.16         193.5235
   425.30         193.1986
   425.44         192.9720
   425.58         192.8240
   425.72         192.7372
   425.86         192.6931
   426.00         192.6709
   426.14         192.6425
   426.28         192.5674
   426.42         192.4225
   426.56         192.2096
   426.70         191.9525
   426.84         191.7002
   426.98         191.4988
   427.12         191.3732
   427.26         191.3334
   427.40         191.3798
   427.54         191.5068
   427.68         191.7029
   427.82         191.9460
   427.96         192.2094
   428.10         192.4732
   428.24         192.7281
   428.38         192.9690
   428.52         193.1819
   428.66         193.3456
   428.80         193.4295
   428.94         193.4016
   429.08         193.2448
   429.22         192.9432
   429.36         192.4873
   429.50         191.8819
   429.64         191.1506
   429.78         190.3529
   429.92         189.5676
   430.06         188.8528
   430.20         188.2393
   430.34         187.7572
   430.48         187.4428
   430.62         187.3169
   430.76         187.3779
   430.90         187.6039
   431.04         187.9442
   431.18         188.3279
   431.32         188.6754
   431.46         188.9210
   431.60         189.0347
   431.74         189.0152
   431.88         188.8631
   432.02         188.5687
   432.16         188.1066
   432.30         187.4119
   432.44         186.3584
   432.58         184.7484
   432.72         182.3476
   432.86         178.9750
   433.00         174.5805
   433.14         169.2839
   433.28         163.3774
   433.42         157.2951
   433.56         151.5390
   433.70         146.5938
   433.84         142.8828
   433.98         140.7338
   434.12         140.3496
   434.26         141.7776
   434.40         144.8828
   434.54         149.3596
   434.68         154.7907
   434.82         160.7116
   434.96         166.6490
   435.10         172.1663
   435.24         176.9265
   435.38         180.7504
   435.52         183.6398
   435.66         185.7467
   435.80         187.2957
   435.94         188.4834
   436.08         189.4175
   436.22         190.1277
   436.36         190.6125
   436.50         190.8810
   436.64         190.9655
   436.78         190.9069
   436.92         190.7304
   437.06         190.4327
   437.20         189.9888
   437.34         189.3731
   437.48         188.5774
   437.62         187.6124
   437.76         186.5133
   437.90         185.3483
   438.04         184.1908
   438.18         183.0981
   438.32         182.1252
   438.46         181.3304
   438.60         180.7566
   438.74         180.4164
   438.88         180.3011
   439.02         180.3935
   439.16         180.6549
   439.30         181.0206
   439.44         181.4204
   439.58         181.7884
   439.72         182.0616
   439.86         182.1930
   440.00         182.1696
   440.14         182.0095
   440.28         181.7315
   440.42         181.3320
   440.56         180.7947
   440.70         180.1229
   440.84         179.3592
   440.98         178.5700
   441.12         177.8079
   441.26         177.0937
   441.40         176.4220
   441.54         175.7795
   441.68         175.1556
   441.82         174.5346
   441.96         173.8963
   442.10         173.2270
   442.24         172.5161
   442.38         171.7616
   442.52         170.9903
   442.66         170.2610
   442.80         169.6440
   442.94         169.1935
   443.08         168.9401
   443.22         168.9072
   443.36         169.1137
   443.50         169.5484
   443.64         170.1626
   443.78         170.8918
   443.92         171.6744
   444.06         172.4461
   444.20         173.1357
   444.34         173.6855
   444.48         174.0686
   444.62         174.2915
   444.76         174.3873
   444.90         174.4021
   445.04         174.3878
   445.18         174.3933
   445.32         174.4423
   445.46         174.5249
   445.60         174.6130
   445.74         174.6833
   445.88         174.7148
   446.02         174.6756
   446.16         174.5373
   446.30         174.2998
   446.44         173.9902
   446.58         173.6375
   446.72         173.2503
   446.86         172.8192
   447.00         172.3454
   447.14         171.8640
   447.28         171.4275
   447.42         171.0825
   447.56         170.8716
   447.70         170.8249
   447.84         170.9472
   447.98         171.2193
   448.12         171.6206
   448.26         172.1408
   448.40         172.7686
   448.54         173.4871
   448.68         174.2688
   448.82         175.0701
   448.96         175.8328
   449.10         176.4937
   449.24         176.9909
   449.38         177.2769
   449.52         177.3388
   449.66         177.2036
   449.80         176.9287
   449.94         176.5693
   450.08         176.1572
   450.22         175.7108
   450.36         175.2511
   450.50         174.8069
   450.64         174.4008
   450.78         174.0320
   450.92         173.6750
   451.06         173.2992
   451.20         172.8914
   451.34         172.4590
   451.48         172.0352
   451.62         171.6770
   451.76         171.4359
   451.90         171.3270
   452.04         171.3393
   452.18         171.4631
   452.32         171.7037
   452.46         172.0872
   452.60         172.6280
   452.74         173.2929
   452.88         174.0133
   453.02         174.7120
   453.16         175.3068
   453.30         175.7062
   453.44         175.8154
   453.58         175.5685
   453.72         174.9533
   453.86         174.0017
   454.00         172.7614
   454.14         171.2719
   454.28         169.5795
   454.42         167.7629
   454.56         165.9350
   454.70         164.2322
   454.84         162.7961
   454.98         161.7453
   455.12         161.1428
   455.26         160.9901
   455.40         161.2507
   455.54         161.8798
   455.68         162.8261
   455.82         164.0108
   455.96         165.3222
   456.10         166.6383
   456.24         167.8597
   456.38         168.9202
   456.52         169.7737
   456.66         170.3766
   456.80         170.6948
   456.94         170.7161
   457.08         170.4430
   457.22         169.8998
   457.36         169.1373
   457.50         168.2182
   457.64         167.1989
   457.78         166.1387
   457.92         165.1094
   458.06         164.1800
   458.20         163.4131
   458.34         162.8598
   458.48         162.5470
   458.62         162.4869
   458.76         162.6796
   458.90         163.1056
   459.04         163.7214
   459.18         164.4616
   459.32         165.2443
   459.46         165.9781
   459.60         166.5750
   459.74         166.9759
   459.88         167.1704
   460.02         167.1851
   460.16         167.0656
   460.30         166.8689
   460.44         166.6384
   460.58         166.3843
   460.72         166.1119
   460.86         165.8385
   461.00         165.5705
   461.14         165.3161
   461.28         165.1054
   461.42         164.9630
   461.56         164.8887
   461.70         164.8653
   461.84         164.8758
   461.98         164.9118
   462.12         164.9629
   462.26         165.0179
   462.40         165.0805
   462.54         165.1682
   462.68         165.2916
   462.82         165.4406
   462.96         165.5843
   463.10         165.6921
   463.24         165.7706
   463.38         165.8706
   463.52         166.0466
   463.66         166.3277
   463.80         166.7172
   463.94         167.1879
   464.08         167.6929
   464.22         168.1925
   464.36         168.6681
   464.50         169.1203
   464.64         169.5486
   464.78         169.9337
   464.92         170.2464
   465.06         170.4690
   465.20         170.5980
   465.34         170.6282
   465.48         170.5488
   465.62         170.3481
   465.76         170.0218
   465.90         169.5808
   466.04         169.0585
   466.18         168.5040
   466.32         167.9665
   466.46         167.4915
   466.60         167.1228
   466.74         166.8990
   466.88         166.8406
   467.02         166.9484
   467.16         167.2117
   467.30         167.6095
   467.44         168.0976
   467.58         168.6060
   467.72         169.0710
   467.86         169.4480
   468.00         169.6877
   468.14         169.7505
   468.28         169.6355
   468.42         169.3739
   468.56         169.0111
   468.70         168.5927
   468.84         168.1549
   468.98         167.7347
   469.12         167.3649
   469.26         167.0603
   469.40         166.8273
   469.54         166.6624
   469.68         166.5384
   469.82         166.4169
   469.96         166.2633
   470.10         166.0562
   470.24         165.8098
   470.38         165.5732
   470.52         165.3941
   470.66         165.2939
   470.80         165.2870
   470.94         165.3775
   471.08         165.5285
   471.22         165.6694
   471.36         165.7266
   471.50         165.6454
   471.64         165.3890
   471.78         164.9197
   471.92         164.2075
   472.06         163.2623
   472.20         162.1343
   472.34         160.9053
   472.48         159.6907
   472.62         158.6112
   472.76         157.7600
   472.90         157.1918
   473.04         156.9136
   473.18         156.8913
   473.32         157.0713
   473.46         157.3960
   473.60         157.8025
   473.74         158.2314
   473.88         158.6505
   474.02         159.0577
   474.16         159.4537
   474.30         159.8140
   474.44         160.0904
   474.58         160.2542
   474.72         160.3170
   474.86         160.3020
   475.00         160.2220
   475.14         160.0718
   475.28         159.8350
   475.42         159.5060
   475.56         159.0959
   475.70         158.6189
   475.84         158.0847
   475.98         157.5143
   476.12         156.9494
   476.26         156.4391
   476.40         156.0202
   476.54         155.7060
   476.68         155.4859
   476.82         155.3340
   476.96         155.2226
   477.10         155.1298
   477.24         155.0328
   477.38         154.8971
   477.52         154.6895
   477.66         154.3986
   477.80         154.0287
   477.94         153.5970
   478.08         153.1399
   478.22         152.7029
   478.36         152.3244
   478.50         152.0350
   478.64         151.8699
   478.78         151.8604
   478.92         152.0095
   479.06         152.2805
   479.20         152.6183
   479.34         152.9734
   479.48         153.2914
   479.62         153.5121
   479.76         153.5990
   479.90         153.5605
   480.04         153.4451
   480.18         153.3106
   480.32         153.1921
   480.46         153.1078
   480.60         153.0784
   480.74         153.1234
   480.88         153.2393
   481.02         153.4024
   481.16         153.5898
   481.30         153.7868
   481.44         153.9821
   481.58         154.1556
   481.72         154.2709
   481.86         154.2953
   482.00         154.2340
   482.14         154.1214
   482.28         154.0043
   482.42         153.9350
   482.56         153.9395
   482.70         154.0036
   482.84         154.0903
   482.98         154.1658
   483.12         154.2181
   483.26         154.2504
   483.40         154.2566
   483.54         154.2165
   483.68         154.1096
   483.82         153.9240
   483.96         153.6462
   484.10         153.2555
   484.24         152.7284
   484.38         152.0525
   484.52         151.2368
   484.66         150.3003
   484.80         149.2260
   484.94         147.9517
   485.08         146.3903
   485.22         144.4269
   485.36         141.9424
   485.50         138.8712
   485.64         135.2410
   485.78         131.1821
   485.92         126.9165
   486.06         122.7231
   486.20         118.9089
   486.34         115.7858
   486.48         113.6263
   486.62         112.6193
   486.76         112.8447
   486.90         114.2640
   487.04         116.7371
   487.18         120.0455
   487.32         123.9016
   487.46         127.9639
   487.60         131.8838
   487.74         135.3743
   487.88         138.2593
   488.02         140.4903
   488.16         142.1282
   488.30         143.2994
   488.44         144.1501
   488.58         144.8096
   488.72         145.3667
   488.86         145.8794
   489.00         146.3826
   489.14         146.8778
   489.28         147.3374
   489.42         147.7263
   489.56         148.0230
   489.70         148.2336
   489.84         148.3780
   489.98         148.4678
   490.12         148.5103
   490.26         148.5312
   490.40         148.5663
   490.54         148.6295
   490.68         148.7183
   490.82         148.8406
   490.96         149.0173
   491.10         149.2592
   491.24         149.5471
   491.38         149.8358
   491.52         150.0606
   491.66         150.1417
   491.80         150.0077
   491.94         149.6390
   492.08         149.0842
   492.22         148.4257
   492.36         147.7461
   492.50         147.1259
   492.64         146.6404
   492.78         146.3526
   492.92         146.3063
   493.06         146.5176
   493.20         146.9878
   493.34         147.7049
   493.48         148.6187
   493.62         149.6252
   493.76         150.5866
   493.90         151.3815
   494.04         151.9263
   494.18         152.1759
   494.32         152.1284
   494.46         151.8203
   494.60         151.3206
   494.74         150.7169
   494.88         150.0856
   495.02         149.4843
   495.16         148.9650
   495.30         148.5713
   495.44         148.3231
   495.58         148.2038
   495.72         148.1678
   495.86         148.1638
   496.00         148.1419
   496.14         148.0585
   496.28         147.8858
   496.42         147.6205
   496.56         147.2800
   496.70         146.8852
   496.84         146.4668
   496.98         146.0657
   497.12         145.7142
   497.26         145.4315
   497.40         145.2235
   497.54         145.0747
   497.68         144.9528
   497.82         144.8273
   497.96         144.6763
   498.10         144.4847
   498.24         144.2558
   498.38         144.0143
   498.52         143.7886
   498.66         143.6001
   498.80         143.4577
   498.94         143.3515
   499.08         143.2507
   499.22         143.0934
   499.36         142.8185
   499.50         142.4091
   499.64         141.8768
   499.78         141.2432
   499.92         140.5452
   500.06         139.8381
   500.20         139.1830
   500.34         138.6378
   500.48         138.2627
   500.62         138.1127
   500.76         138.2085
   500.90         138.5243
   501.04         138.9892
   501.18         139.4978
   501.32         139.9380
   501.46         140.2164
   501.60         140.2771
   501.74         140.1115
   501.88         139.7561
   502.02         139.2973
   502.16         138.8396
   502.30         138.4564
   502.44         138.1956
   502.58         138.0878
   502.72         138.1408
   502.86         138.3364
   503.00         138.6334
   503.14         138.9722
   503.28         139.2752
   503.42         139.4523
   503.56         139.4294
   503.70         139.1765
   503.84         138.7123
   503.98         138.1008
   504.12         137.4376
   504.26         136.8228
   504.40         136.3284
   504.54         135.9898
   504.68         135.8159
   504.82         135.7868
   504.96         135.8508
   505.10         135.9381
   505.24         135.9838
   505.38         135.9455
   505.52         135.8082
   505.66         135.5744
   505.80         135.2517
   505.94         134.8526
   506.08         134.4107
   506.22         133.9844
   506.36         133.6377
   506.50         133.4185
   506.64         133.3489
   506.78         133.4265
   506.92         133.6330
   507.06         133.9431
   507.20         134.3286
   507.34         134.7622
   507.48         135.2268
   507.62         135.7124
   507.76         136.2107
   507.90         136.7120
   508.04         137.1944
   508.18         137.6252
   508.32         137.9669
   508.46         138.1885
   508.60         138.2844
   508.74         138.2759
   508.88         138.1915
   509.02         138.0577
   509.16         137.8980
   509.30         137.7301
   509.44         137.5686
   509.58         137.4271
   509.72         137.3147
   509.86         137.2258
   510.00         137.1450
   510.14         137.0568
   510.28         136.9456
   510.42         136.8055
   510.56         136.6404
   510.70         136.4526
   510.84         136.2409
   510.98         136.0003
   511.12         135.7289
   511.26         135.4352
   511.40         135.1360
   511.54         134.8505
   511.68         134.5947
   511.82         134.3748
   511.96         134.1949
   512.10         134.0551
   512.24         133.9451
   512.38         133.8569
   512.52         133.7960
   512.66         133.7782
   512.80         133.8240
   512.94         133.9426
   513.08         134.1116
   513.22         134.2856
   513.36         134.4235
   513.50         134.4990
   513.64         134.4994
   513.78         134.4267
   513.92         134.2907
   514.06         134.1040
   514.20         133.8738
   514.34         133.5948
   514.48         133.2627
   514.62         132.8848
   514.76         132.4737
   514.90         132.0522
   515.04         131.6632
   515.18         131.3547
   515.32         131.1598
   515.46         131.0887
   515.60         131.1237
   515.74         131.2286
   515.88         131.3659
   516.02         131.4894
   516.16         131.5337
   516.30         131.4325
   516.44         131.1444
   516.58         130.6656
   516.72         130.0334
   516.86         129.3083
   517.00         128.5602
   517.14         127.8700
   517.28         127.3193
   517.42         126.9767
   517.56         126.8933
   517.70         127.0898
   517.84         127.5450
   517.98         128.2009
   518.12         128.9709
   518.26         129.7531
   518.40         130.4501
   518.54         130.9850
   518.68         131.3073
   518.82         131.3977
   518.96         131.2721
   519.10         130.9739
   519.24         130.5629
   519.38         130.1073
   519.52         129.6653
   519.66         129.2738
   519.80         128.9610
   519.94         128.7532
   520.08         128.6629
   520.22         128.6810
   520.36         128.7837
   520.50         128.9389
   520.64         129.1050
   520.78         129.2404
   520.92         129.3196
   521.06         129.3354
   521.20         129.2851
   521.34         129.1614
   521.48         128.9641
   521.62         128.7082
   521.76         128.4179
   521.90         128.1161
   522.04         127.8140
   522.18         127.5090
   522.32         127.1936
   522.46         126.8732
   522.60         126.5583
   522.74         126.2390
   522.88         125.8943
   523.02         125.5223
   523.16         125.1393
   523.30         124.7644
   523.44         124.4207
   523.58         124.1332
   523.72         123.9158
   523.86         123.7674
   524.00         123.6868
   524.14         123.6784
   524.28         123.7414
   524.42         123.8643
   524.56         124.0278
   524.70         124.2140
   524.84         124.4060
   524.98         124.5788
   525.12         124.7006
   525.26         124.7364
   525.40         124.6639
   525.54         124.4919
   525.68         124.2451
   525.82         123.9369
   525.96         123.5800
   526.10         123.2062
   526.24         122.8527
   526.38         122.5431
   526.52         122.2901
   526.66         122.1035
   526.80         121.9845
   526.94         121.9129
   527.08         121.8555
   527.22         121.7871
   527.36         121.7028
   527.50         121.6086
   527.64         121.5058
   527.78         121.3897
   527.92         121.2587
   528.06         121.1173
   528.20         120.9710
   528.34         120.8212
   528.48         120.6735
   528.62         120.5465
   528.76         120.4590
   528.90         120.4158
   529.04         120.4111
   529.18         120.4365
   529.32         120.4838
   529.46         120.5428
   529.60         120.6081
   529.74         120.6838
   529.88         120.7731
   530.02         120.8668
   530.16         120.9466
   530.30         120.9988
   530.44         121.0254
   530.58         121.0405
   530.72         121.0531
   530.86         121.0515
   531.00         121.0078
   531.14         120.9022
   531.28         120.7311
   531.42         120.4981
   531.56         120.2106
   531.70         119.8792
   531.84         119.5187
   531.98         119.1542
   532.12         118.8240
   532.26         118.5647
   532.40         118.3957
   532.54         118.3277
   532.68         118.3730
   532.82         118.5347
   532.96         118.7914
   533.10         119.0991
   533.24         119.4096
   533.38         119.6885
   533.52         119.9241
   533.66         120.1255
   533.80         120.3099
   533.94         120.4880
   534.08         120.6592
   534.22         120.8109
   534.36         120.9233
   534.50         120.9855
   534.64         121.0034
   534.78         120.9864
   534.92         120.9311
   535.06         120.8273
   535.20         120.6767
   535.34         120.4885
   535.48         120.2618
   535.62         119.9916
   535.76         119.6860
   535.90         119.3639
   536.04         119.0437
   536.18         118.7385
   536.32         118.4537
   536.46         118.1892
   536.60         117.9428
   536.74         117.7111
   536.88         117.4910
   537.02         117.2823
   537.16         117.0864
   537.30         116.9080
   537.44         116.7618
   537.58         116.6717
   537.72         116.6595
   537.86         116.7347
   538.00         116.8878
   538.14         117.0959
   538.28         117.3389
   538.42         117.6048
   538.56         117.8798
   538.70         118.1413
   538.84         118.3598
   538.98         118.5025
   539.12         118.5395
   539.26         118.4520
   539.40         118.2375
   539.54         117.9078
   539.68         117.4850
   539.82         117.0050
   539.96         116.5135
   540.10         116.0495
   540.24         115.6338
   540.38         115.2732
   540.52         114.9741
   540.66         114.7455
   540.80         114.5922
   540.94         114.5084
   541.08         114.4801
   541.22         114.4910
   541.36         114.5238
   541.50         114.5589
   541.64         114.5696
   541.78         114.5236
   541.92         114.4019
   542.06         114.2112
   542.20         113.9747
   542.34         113.7208
   542.48         113.4832
   542.62         113.2950
   542.76         113.1780
   542.90         113.1375
   543.04         113.1578
   543.18         113.2073
   543.32         113.2540
   543.46         113.2736
   543.60         113.2498
   543.74         113.1706
   543.88         113.0271
   544.02         112.8102
   544.16         112.5152
   544.30         112.1561
   544.44         111.7679
   544.58         111.3893
   544.72         111.0475
   544.86         110.7600
   545.00         110.5363
   545.14         110.3752
   545.28         110.2704
   545.42         110.2195
   545.56         110.2209
   545.70         110.2670
   545.84         110.3507
   545.98         110.4633
   546.12         110.5844
   546.26         110.6879
   546.40         110.7537
   546.54         110.7734
   546.68         110.7506
   546.82         110.6977
   546.96         110.6310
   547.10         110.5645
   547.24         110.5125
   547.38         110.4989
   547.52         110.5456
   547.66         110.6556
   547.80         110.8214
   547.94         111.0365
   548.08         111.2805
   548.22         111.5088
   548.36         111.6717
   548.50         111.7365
   548.64         111.6939
   548.78         111.5541
   548.92         111.3398
   549.06         111.0799
   549.20         110.8049
   549.34         110.5440
   549.48         110.3257
   549.62         110.1716
   549.76         110.0898
   549.90         110.0726
   550.04         110.0985
   550.18         110.1377
   550.32         110.1637
   550.46         110.1588
   550.60         110.1094
   550.74         110.0011
   550.88         109.8259
   551.02         109.5946
   551.16         109.3364
   551.30         109.0881
   551.44         108.8784
   551.58         108.7229
   551.72         108.6283
   551.86         108.5883
   552.00         108.5855
   552.14         108.6016
   552.28         108.6158
   552.42         108.6082
   552.56         108.5701
   552.70         108.5044
   552.84         108.4142
   552.98         108.3004
   553.12         108.1651
   553.26         108.0128
   553.40         107.8514
   553.54         107.6921
   553.68         107.5412
   553.82         107.3941
   553.96         107.2448
   554.10         107.0922
   554.24         106.9383
   554.38         106.7912
   554.52         106.6670
   554.66         106.5899
   554.80         106.5832
   554.94         106.6567
   555.08         106.8030
   555.22         107.0043
   555.36         107.2382
   555.50         107.4816
   555.64         107.7133
   555.78         107.9097
   555.92         108.0425
   556.06         108.0855
   556.20         108.0235
   556.34         107.8568
   556.48         107.6002
   556.62         107.2743
   556.76         106.8993
   556.90         106.4928
   557.04         106.0713
   557.18         105.6526
   557.32         105.2523
   557.46         104.8811
   557.60         104.5460
   557.74         104.2525
   557.88         104.0078
   558.02         103.8185
   558.16         103.6804
   558.30         103.5788
   558.44         103.5003
   558.58         103.4423
   558.72         103.4100
   558.86         103.4103
   559.00         103.4421
   559.14         103.4928
   559.28         103.5474
   559.42         103.5988
   559.56         103.6454
   559.70         103.6871
   559.84         103.7237
   559.98         103.7492
   560.12         103.7522
   560.26         103.7225
   560.40         103.6565
   560.54         103.5584
   560.68         103.4332
   560.82         103.2845
   560.96         103.1177
   561.10         102.9430
   561.24         102.7720
   561.38         102.6126
   561.52         102.4683
   561.66         102.3393
   561.80         102.2248
   561.94         102.1263
   562.08         102.0485
   562.22         101.9955
   562.36         101.9640
   562.50         101.9409
   562.64         101.9138
   562.78         101.8832
   562.92         101.8547
   563.06         101.8265
   563.20         101.7897
   563.34         101.7331
   563.48         101.6458
   563.62         101.5221
   563.76         101.3651
   563.90         101.1801
   564.04         100.9672
   564.18         100.7298
   564.32         100.4823
   564.46         100.2502
   564.60         100.0623
   564.74         99.9420
   564.88         99.8975
   565.02         99.9189
   565.16         99.9870
   565.30         100.0833
   565.44         100.1892
   565.58         100.2798
   565.72         100.3308
   565.86         100.3277
   566.00         100.2618
   566.14         100.1290
   566.28         99.9337
   566.42         99.6912
   566.56         99.4244
   566.70         99.1615
   566.84         98.9316
   566.98         98.7522
   567.12         98.6258
   567.26         98.5481
   567.40         98.5150
   567.54         98.5181
   567.68         98.5477
   567.82         98.6021
   567.96         98.6805
   568.10         98.7729
   568.24         98.8593
   568.38         98.9129
   568.52         98.9038
   568.66         98.8143
   568.80         98.6508
   568.94         98.4386
   569.08         98.2039
   569.22         97.9622
   569.36         97.7215
   569.50         97.4910
   569.64         97.2834
   569.78         97.1081
   569.92         96.9604
   570.06         96.8201
   570.20         96.6672
   570.34         96.4940
   570.48         96.2986
   570.62         96.0758
   570.76         95.8245
   570.90         95.5572
   571.04         95.2972
   571.18         95.0724
   571.32         94.9127
   571.46         94.8429
   571.60         94.8729
   571.74         94.9969
   571.88         95.1969
   572.02         95.4446
   572.16         95.7078
   572.30         95.9522
   572.44         96.1451
   572.58         96.2691
   572.72         96.3291
   572.86         96.3410
   573.00         96.3121
   573.14         96.2421
   573.28         96.1386
   573.42         96.0168
   573.56         95.8855
   573.70         95.7461
   573.84         95.6037
   573.98         95.4675
   574.12         95.3453
   574.26         95.2408
   574.40         95.1538
   574.54         95.0846
   574.68         95.0445
   574.82         95.0558
   574.96         95.1322
   575.10         95.2678
   575.24         95.4429
   575.38         95.6401
   575.52         95.8486
   575.66         96.0541
   575.80         96.2376
   575.94         96.3806
   576.08         96.4660
   576.22         96.4813
   576.36         96.4231
   576.50         96.2945
   576.64         96.0986
   576.78         95.8410
   576.92         95.5391
   577.06         95.2131
   577.20         94.8660
   577.34         94.4727
   577.48         93.9926
   577.62         93.3972
   577.76         92.6885
   577.90         91.9016
   578.04         91.0924
   578.18         90.3140
   578.32         89.6065
   578.46         89.0038
   578.60         88.5372
   578.74         88.2277
   578.88         88.0780
   579.02         88.0759
   579.16         88.1971
   579.30         88.4052
   579.44         88.6602
   579.58         88.9233
   579.72         89.1598
   579.86         89.3435
   580.00         89.4679
   580.14         89.5557
   580.28         89.6458
   580.42         89.7693
   580.56         89.9443
   580.70         90.1819
   580.84         90.4854
   580.98         90.8464
   581.12         91.2456
   581.26         91.6618
   581.40         92.0719
   581.54         92.4472
   581.68         92.7611
   581.82         92.9931
   581.96         93.1303
   582.10         93.1701
   582.24         93.1196
   582.38         92.9936
   582.52         92.8098
   582.66         92.5869
   582.80         92.3518
   582.94         92.1407
   583.08         91.9907
   583.22         91.9287
   583.36         91.9622
   583.50         92.0734
   583.64         92.2262
   583.78         92.3823
   583.92         92.5141
   584.06         92.6028
   584.20         92.6351
   584.34         92.6076
   584.48         92.5254
   584.62         92.3985
   584.76         92.2433
   584.90         92.0806
   585.04         91.9258
   585.18         91.7816
   585.32         91.6444
   585.46         91.5155
   585.60         91.3973
   585.74         91.2855
   585.88         91.1747
   586.02         91.0665
   586.16         90.9672
   586.30         90.8852
   586.44         90.8327
   586.58         90.8179
   586.72         90.8322
   586.86         90.8532
   587.00         90.8555
   587.14         90.8194
   587.28         90.7347
   587.42         90.5977
   587.56         90.4032
   587.70         90.1431
   587.84         89.8159
   587.98         89.4280
   588.12         88.9666
   588.26         88.3732
   588.40         87.5802
   588.54         86.5740
   588.68         85.3913
   588.82         84.0641
   588.96         82.6146
   589.10         81.0976
   589.24         79.6098
   589.38         78.2675
   589.52         77.1903
   589.66         76.4847
   589.80         76.2272
   589.94         76.4498
   590.08         77.1271
   590.22         78.1851
   590.36         79.5258
   590.50         81.0422
   590.64         82.6160
   590.78         84.1256
   590.92         85.4828
   591.06         86.6555
   591.20         87.6363
   591.34         88.3957
   591.48         88.8931
   591.62         89.1346
   591.76         89.1804
   591.90         89.0986
   592.04         88.9392
   592.18         88.7379
   592.32         88.5124
   592.46         88.2712
   592.60         88.0302
   592.74         87.8074
   592.88         87.6214
   593.02         87.4957
   593.16         87.4450
   593.30         87.4609
   593.44         87.5203
   593.58         87.6018
   593.72         87.6815
   593.86         87.7298
   594.00         87.7242
   594.14         87.6546
   594.28         87.5183
   594.42         87.3168
   594.56         87.0579
   594.70         86.7552
   594.84         86.4190
   594.98         86.0545
   595.12         85.6734
   595.26         85.2979
   595.40         84.9472
   595.54         84.6381
   595.68         84.3852
   595.82         84.1885
   595.96         84.0418
   596.10         83.9444
   596.24         83.8941
   596.38         83.8773
   596.52         83.8755
   596.66         83.8823
   596.80         83.8963
   596.94         83.9079
   597.08         83.9036
   597.22         83.8767
   597.36         83.8269
   597.50         83.7518
   597.64         83.6495
   597.78         83.5288
   597.92         83.4084
   598.06         83.3038
   598.20         83.2236
   598.34         83.1698
   598.48         83.1426
   598.62         83.1441
   598.76         83.1683
   598.90         83.1956
   599.04         83.2089
   599.18         83.2009
   599.32         83.1709
   599.46         83.1274
   599.60         83.0839
   599.74         83.0539
   599.88         83.0493
   600.02         83.0742
   600.16         83.1226
   600.30         83.1822
   600.44         83.2378
   600.58         83.2713
   600.72         83.2720
   600.86         83.2404
   601.00         83.1778
   601.14         83.0905
   601.28         82.9879
   601.42         82.8773
   601.56         82.7794
   601.70         82.7307
   601.84         82.7599
   601.98         82.8764
   602.12         83.0723
   602.26         83.3205
   602.40         83.5866
   602.54         83.8399
   602.68         84.0534
   602.82         84.2023
   602.96         84.2632
   603.10         84.2218
   603.24         84.0794
   603.38         83.8525
   603.52         83.5549
   603.66         83.1954
   603.80         82.7950
   603.94         82.3836
   604.08         81.9979
   604.22         81.6782
   604.36         81.4472
   604.50         81.3085
   604.64         81.2611
   604.78         81.3029
   604.92         81.4255
   605.06         81.6099
   605.20         81.8268
   605.34         82.0438
   605.48         82.2314
   605.62         82.3663
   605.76         82.4374
   605.90         82.4453
   606.04         82.3981
   606.18         82.3125
   606.32         82.2144
   606.46         82.1311
   606.60         82.0787
   606.74         82.0613
   606.88         82.0731
   607.02         82.1033
   607.16         82.1432
   607.30         82.1832
   607.44         82.2111
   607.58         82.2142
   607.72         82.1840
   607.86         82.1192
   608.00         82.0260
   608.14         81.9146
   608.28         81.7971
   608.42         81.6851
   608.56         81.5863
   608.70         81.5051
   608.84         81.4410
   608.98         81.3877
   609.12         81.3369
   609.26         81.2825
   609.40         81.2203
   609.54         81.1501
   609.68         81.0782
   609.82         81.0141
   609.96         80.9652
   610.10         80.9350
   610.24         80.9229
   610.38         80.9267
   610.52         80.9451
   610.66         80.9774
   610.80         81.0227
   610.94         81.0798
   611.08         81.1466
   611.22         81.2203
   611.36         81.2975
   611.50         81.3727
   611.64         81.4417
   611.78         81.5006
   611.92         81.5446
   612.06         81.5739
   612.20         81.5956
   612.34         81.6107
   612.48         81.6072
   612.62         81.5686
   612.76         81.4840
   612.90         81.3509
   613.04         81.1752
   613.18         80.9678
   613.32         80.7377
   613.46         80.4915
   613.60         80.2350
   613.74         79.9736
   613.88         79.7168
   614.02         79.4765
   614.16         79.2618
   614.30         79.0734
   614.44         78.9045
   614.58         78.7526
   614.72         78.6224
   614.86         78.5140
   615.00         78.4221
   615.14         78.3481
   615.28         78.3012
   615.42         78.2859
   615.56         78.2968
   615.70         78.3210
   615.84         78.3426
   615.98         78.3482
   616.12         78.3309
   616.26         78.2877
   616.40         78.2163
   616.54         78.1143
   616.68         77.9775
   616.82         77.8019
   616.96         77.5906
   617.10         77.3609
   617.24         77.1427
   617.38         76.9642
   617.52         76.8413
   617.66         76.7814
   617.80         76.7849
   617.94         76.8422
   618.08         76.9390
   618.22         77.0626
   618.36         77.2023
   618.50         77.3513
   618.64         77.5058
   618.78         77.6558
   618.92         77.7856
   619.06         77.8803
   619.20         77.9302
   619.34         77.9322
   619.48         77.8926
   619.62         77.8279
   619.76         77.7589
   619.90         77.7018
   620.04         77.6619
   620.18         77.6375
   620.32         77.6264
   620.46         77.6250
   620.60         77.6290
   620.74         77.6372
   620.88         77.6479
   621.02         77.6579
   621.16         77.6665
   621.30         77.6728
   621.44         77.6717
   621.58         77.6620
   621.72         77.6495
   621.86         77.6395
   622.00         77.6364
   622.14         77.6441
   622.28         77.6617
   622.42         77.6809
   622.56         77.6841
   622.70         77.6542
   622.84         77.5834
   622.98         77.4753
   623.12         77.3430
   623.26         77.2055
   623.40         77.0811
   623.54         76.9823
   623.68         76.9214
   623.82         76.9118
   623.96         76.9594
   624.10         77.0622
   624.24         77.2127
   624.38         77.3959
   624.52         77.5912
   624.66         77.7795
   624.80         77.9449
   624.94         78.0721
   625.08         78.1422
   625.22         78.1334
   625.36         78.0335
   625.50         77.8494
   625.64         77.6016
   625.78         77.3087
   625.92         76.9857
   626.06         76.6492
   626.20         76.3192
   626.34         76.0167
   626.48         75.7519
   626.62         75.5189
   626.76         75.2995
   626.90         75.0661
   627.04         74.7837
   627.18         74.4166
   627.32         73.9386
   627.46         73.3437
   627.60         72.6528
   627.74         71.9108
   627.88         71.1801
   628.02         70.5338
   628.16         70.0450
   628.30         69.7729
   628.44         69.7539
   628.58         70.0027
   628.72         70.5071
   628.86         71.2249
   629.00         72.0900
   629.14         73.0214
   629.28         73.9338
   629.42         74.7476
   629.56         75.3983
   629.70         75.8448
   629.84         76.0777
   629.98         76.1205
   630.12         76.0177
   630.26         75.8173
   630.40         75.5616
   630.54         75.2878
   630.68         75.0333
   630.82         74.8348
   630.96         74.7191
   631.10         74.6966
   631.24         74.7627
   631.38         74.9025
   631.52         75.0957
   631.66         75.3169
   631.80         75.5384
   631.94         75.7351
   632.08         75.8878
   632.22         75.9842
   632.36         76.0186
   632.50         75.9918
   632.64         75.9093
   632.78         75.7781
   632.92         75.6089
   633.06         75.4169
   633.20         75.2156
   633.34         75.0053
   633.48         74.7731
   633.62         74.5070
   633.76         74.2083
   633.90         73.8883
   634.04         73.5641
   634.18         73.2555
   634.32         72.9793
   634.46         72.7499
   634.60         72.5785
   634.74         72.4726
   634.88         72.4383
   635.02         72.4790
   635.16         72.5902
   635.30         72.7568
   635.44         72.9533
   635.58         73.1450
   635.72         73.2886
   635.86         73.3429
   636.00         73.2875
   636.14         73.1379
   636.28         72.9373
   636.42         72.7301
   636.56         72.5453
   636.70         72.3986
   636.84         72.2972
   636.98         72.2445
   637.12         72.2463
   637.26         72.3069
   637.40         72.4227
   637.54         72.5809
   637.68         72.7596
   637.82         72.9343
   637.96         73.0872
   638.10         73.2075
   638.24         73.2916
   638.38         73.3435
   638.52         73.3744
   638.66         73.3985
   638.80         73.4256
   638.94         73.4559
   639.08         73.4831
   639.22         73.5028
   639.36         73.5143
   639.50         73.5212
   639.64         73.5293
   639.78         73.5400
   639.92         73.5466
   640.06         73.5387
   640.20         73.5078
   640.34         73.4468
   640.48         73.3506
   640.62         73.2189
   640.76         73.0543
   640.90         72.8640
   641.04         72.6634
   641.18         72.4748
   641.32         72.3229
   641.46         72.2265
   641.60         72.1931
   641.74         72.2199
   641.88         72.2980
   642.02         72.4149
   642.16         72.5577
   642.30         72.7122
   642.44         72.8618
   642.58         72.9916
   642.72         73.0921
   642.86         73.1585
   643.00         73.1908
   643.14         73.1957
   643.28         73.1867
   643.42         73.1742
   643.56         73.1615
   643.70         73.1464
   643.84         73.1225
   643.98         73.0801
   644.12         73.0050
   644.26         72.8795
   644.40         72.6899
   644.54         72.4346
   644.68         72.1252
   644.82         71.7828
   644.96         71.4325
   645.10         71.0989
   645.24         70.8029
   645.38         70.5638
   645.52         70.3990
   645.66         70.3201
   645.80         70.3311
   645.94         70.4241
   646.08         70.5782
   646.22         70.7648
   646.36         70.9547
   646.50         71.1234
   646.64         71.2496
   646.78         71.3158
   646.92         71.3161
   647.06         71.2600
   647.20         71.1671
   647.34         71.0589
   647.48         70.9544
   647.62         70.8694
   647.76         70.8116
   647.90         70.7786
   648.04         70.7640
   648.18         70.7613
   648.32         70.7640
   648.46         70.7680
   648.60         70.7746
   648.74         70.7905
   648.88         70.8250
   649.02         70.8863
   649.16         70.9785
   649.30         71.1000
   649.44         71.2436
   649.58         71.4032
   649.72         71.5775
   649.86         71.7656
   650.00         71.9606
   650.14         72.1450
   650.28         72.2934
   650.42         72.3813
   650.56         72.3953
   650.70         72.3423
   650.84         72.2421
   650.98         72.1158
   651.12         71.9850
   651.26         71.8716
   651.40         71.7896
   651.54         71.7414
   651.68         71.7190
   651.82         71.7105
   651.96         71.7040
   652.10         71.6914
   652.24         71.6698
   652.38         71.6334
   652.52         71.5697
   652.66         71.4666
   652.80         71.3215
   652.94         71.1449
   653.08         70.9546
   653.22         70.7671
   653.36         70.5929
   653.50         70.4342
   653.64         70.2900
   653.78         70.1570
   653.92         70.0240
   654.06         69.8703
   654.20         69.6739
   654.34         69.4152
   654.48         69.0722
   654.62         68.6160
   654.76         68.0095
   654.90         67.2130
   655.04         66.2035
   655.18         64.9967
   655.32         63.6514
   655.46         62.2579
   655.60         60.9201
   655.74         59.7418
   655.88         58.8200
   656.02         58.2382
   656.16         58.0592
   656.30         58.3149
   656.44         58.9961
   656.58         60.0525
   656.72         61.3993
   656.86         62.9283
   657.00         64.5196
   657.14         66.0544
   657.28         67.4312
   657.42         68.5799
   657.56         69.4719
   657.70         70.1162
   657.84         70.5455
   657.98         70.7988
   658.12         70.9125
   658.26         70.9198
   658.40         70.8561
   658.54         70.7620
   658.68         70.6773
   658.82         70.6330
   658.96         70.6440
   659.10         70.7076
   659.24         70.8137
   659.38         70.9507
   659.52         71.1061
   659.66         71.2660
   659.80         71.4107
   659.94         71.5137
   660.08         71.5476
   660.22         71.4943
   660.36         71.3514
   660.50         71.1326
   660.64         70.8613
   660.78         70.5634
   660.92         70.2649
   661.06         69.9923
   661.20         69.7681
   661.34         69.6044
   661.48         69.5031
   661.62         69.4625
   661.76         69.4803
   661.90         69.5492
   662.04         69.6549
   662.18         69.7771
   662.32         69.8927
   662.46         69.9794
   662.60         70.0195
   662.74         70.0059
   662.88         69.9422
   663.02         69.8371
   663.16         69.6987
   663.30         69.5328
   663.44         69.3490
   663.58         69.1626
   663.72         68.9910
   663.86         68.8476
   664.00         68.7394
   664.14         68.6675
   664.28         68.6262
   664.42         68.6015
   664.56         68.5750
   664.70         68.5329
   664.84         68.4664
   664.98         68.3724
   665.12         68.2539
   665.26         68.1202
   665.40         67.9862
   665.54         67.8683
   665.68         67.7818
   665.82         67.7388
   665.96         67.7453
   666.10         67.7995
   666.24         67.8894
   666.38         67.9925
   666.52         68.0833
   666.66         68.1409
   666.80         68.1518
   666.94         68.1108
   667.08         68.0205
   667.22         67.8923
   667.36         67.7456
   667.50         67.6018
   667.64         67.4789
   667.78         67.3901
   667.92         67.3416
   668.06         67.3303
   668.20         67.3455
   668.34         67.3742
   668.48         67.4040
   668.62         67.4212
   668.76         67.4152
   668.90         67.3820
   669.04         67.3254
   669.18         67.2541
   669.32         67.1800
   669.46         67.1136
   669.60         67.0613
   669.74         67.0251
   669.88         67.0056
   670.02         67.0002
   670.16         67.0015
   670.30         67.0002
   670.44         66.9872
   670.58         66.9547
   670.72         66.8979
   670.86         66.8179
   671.00         66.7224
   671.14         66.6241
   671.28         66.5362
   671.42         66.4711
   671.56         66.4389
   671.70         66.4411
   671.84         66.4688
   671.98         66.5106
   672.12         66.5567
   672.26         66.5979
   672.40         66.6266
   672.54         66.6359
   672.68         66.6217
   672.82         66.5819
   672.96         66.5159
   673.10         66.4276
   673.24         66.3285
   673.38         66.2339
   673.52         66.1552
   673.66         66.0988
   673.80         66.0663
   673.94         66.0555
   674.08         66.0619
   674.22         66.0782
   674.36         66.0938
   674.50         66.1012
   674.64         66.1002
   674.78         66.0908
   674.92         66.0714
   675.06         66.0440
   675.20         66.0156
   675.34         65.9943
   675.48         65.9839
   675.62         65.9827
   675.76         65.9874
   675.90         65.9938
   676.04         65.9932
   676.18         65.9751
   676.32         65.9325
   676.46         65.8644
   676.60         65.7748
   676.74         65.6712
   676.88         65.5644
   677.02         65.4663
   677.16         65.3885
   677.30         65.3393
   677.44         65.3218
   677.58         65.3375
   677.72         65.3859
   677.86         65.4593
   678.00         65.5392
   678.14         65.6023
   678.28         65.6312
   678.42         65.6184
   678.56         65.5648
   678.70         65.4764
   678.84         65.3618
   678.98         65.2309
   679.12         65.0959
   679.26         64.9697
   679.40         64.8613
   679.54         64.7750
   679.68         64.7107
   679.82         64.6668
   679.96         64.6435
   680.10         64.6417
   680.24         64.6625
   680.38         64.7032
   680.52         64.7544
   680.66         64.8009
   680.80         64.8293
   680.94         64.8312
   681.08         64.8034
   681.22         64.7474
   681.36         64.6633
   681.50         64.5477
   681.64         64.3994
   681.78         64.2267
   681.92         64.0440
   682.06         63.8652
   682.20         63.7028
   682.34         63.5662
   682.48         63.4623
   682.62         63.3934
   682.76         63.3556
   682.90         63.3383
   683.04         63.3280
   683.18         63.3116
   683.32         63.2772
   683.46         63.2201
   683.60         63.1425
   683.74         63.0488
   683.88         62.9425
   684.02         62.8257
   684.16         62.7037
   684.30         62.5878
   684.44         62.4923
   684.58         62.4263
   684.72         62.3897
   684.86         62.3773
   685.00         62.3814
   685.14         62.3907
   685.28         62.3893
   685.42         62.3512
   685.56         62.2317
   685.70         61.9728
   685.84         61.5179
   685.98         60.8296
   686.12         59.9009
   686.26         58.7536
   686.40         57.4350
   686.54         56.0147
   686.68         54.5801
   686.82         53.2315
   686.96         52.0748
   687.10         51.2061
   687.24         50.6900
   687.38         50.5479
   687.52         50.7603
   687.66         51.2729
   687.80         52.0063
   687.94         52.8674
   688.08         53.7543
   688.22         54.5704
   688.36         55.2473
   688.50         55.7544
   688.64         56.0937
   688.78         56.2861
   688.92         56.3601
   689.06         56.3530
   689.20         56.3078
   689.34         56.2674
   689.48         56.2685
   689.62         56.3301
   689.76         56.4486
   689.90         56.6076
   690.04         56.7916
   690.18         56.9911
   690.32         57.2045
   690.46         57.4354
   690.60         57.6828
   690.74         57.9393
   690.88         58.1990
   691.02         58.4617
   691.16         58.7257
   691.30         58.9851
   691.44         59.2300
   691.58         59.4506
   691.72         59.6391
   691.86         59.7866
   692.00         59.8870
   692.14         59.9412
   692.28         59.9546
   692.42         59.9383
   692.56         59.9089
   692.70         59.8827
   692.84         59.8712
   692.98         59.8817
   693.12         59.9154
   693.26         59.9695
   693.40         60.0422
   693.54         60.1332
   693.68         60.2369
   693.82         60.3411
   693.96         60.4366
   694.10         60.5237
   694.24         60.6081
   694.38         60.6930
   694.52         60.7796
   694.66         60.8701
   694.80         60.9652
   694.94         61.0625
   695.08         61.1593
   695.22         61.2528
   695.36         61.3384
   695.50         61.4112
   695.64         61.4703
   695.78         61.5194
   695.92         61.5640
   696.06         61.6082
   696.20         61.6526
   696.34         61.6946
   696.48         61.7334
   696.62         61.7740
   696.76         61.8225
   696.90         61.8784
   697.04         61.9356
   697.18         61.9889
   697.32         62.0352
   697.46         62.0717
   697.60         62.0975
   697.74         62.1100
   697.88         62.1006
   698.02         62.0569
   698.16         61.9715
   698.30         61.8470
   698.44         61.6935
   698.58         61.5242
   698.72         61.3533
   698.86         61.1926
   699.00         61.0523
   699.14         60.9424
   699.28         60.8689
   699.42         60.8298
   699.56         60.8164
   699.70         60.8196
   699.84         60.8316
   699.98         60.8439
   700.12         60.8512
   700.26         60.8534
   700.40         60.8485
   700.54         60.8324
   700.68         60.8070
   700.82         60.7802
   700.96         60.7579
   701.10         60.7390
   701.24         60.7189
   701.38         60.6913
   701.52         60.6496
   701.66         60.5870
   701.80         60.4982
   701.94         60.3812
   702.08         60.2385
   702.22         60.0806
   702.36         59.9240
   702.50         59.7823
   702.64         59.6669
   702.78         59.5863
   702.92         59.5417
   703.06         59.5251
   703.20         59.5269
   703.34         59.5411
   703.48         59.5604
   703.62         59.5776
   703.76         59.5893
   703.90         59.5939
   704.04         59.5882
   704.18         59.5683
   704.32         59.5329
   704.46         59.4880
   704.60         59.4436
   704.74         59.4080
   704.88         59.3868
   705.02         59.3811
   705.16         59.3862
   705.30         59.3957
   705.44         59.4020
   705.58         59.3967
   705.72         59.3745
   705.86         59.3378
   706.00         59.2936
   706.14         59.2477
   706.28         59.2055
   706.42         59.1726
   706.56         59.1541
   706.70         59.1522
   706.84         59.1666
   706.98         59.1963
   707.12         59.2416
   707.26         59.3005
   707.40         59.3666
   707.54         59.4326
   707.68         59.4925
   707.82         59.5416
   707.96         59.5780
   708.10         59.6015
   708.24         59.6158
   708.38         59.6308
   708.52         59.6557
   708.66         59.6926
   708.80         59.7395
   708.94         59.7956
   709.08         59.8597
   709.22         59.9285
   709.36         59.9956
   709.50         60.0543
   709.64         60.1003
   709.78         60.1334
   709.92         60.1563
   710.06         60.1726
   710.20         60.1878
   710.34         60.2081
   710.48         60.2367
   710.62         60.2737
   710.76         60.3207
   710.90         60.3833
   711.04         60.4639
   711.18         60.5528
   711.32         60.6364
   711.46         60.7060
   711.60         60.7564
   711.74         60.7864
   711.88         60.7969
   712.02         60.7861
   712.16         60.7516
   712.30         60.6963
   712.44         60.6279
   712.58         60.5518
   712.72         60.4675
   712.86         60.3722
   713.00         60.2629
   713.14         60.1371
   713.28         59.9965
   713.42         59.8465
   713.56         59.6892
   713.70         59.5241
   713.84         59.3518
   713.98         59.1798
   714.12         59.0210
   714.26         58.8873
   714.40         58.7898
   714.54         58.7366
   714.68         58.7306
   714.82         58.7696
   714.96         58.8485
   715.10         58.9589
   715.24         59.0856
   715.38         59.2083
   715.52         59.3088
   715.66         59.3739
   715.80         59.3921
   715.94         59.3533
   716.08         59.2524
   716.22         59.0913
   716.36         58.8755
   716.50         58.6115
   716.64         58.3093
   716.78         57.9832
   716.92         57.6482
   717.06         57.3151
   717.20         56.9835
   717.34         56.6420
   717.48         56.2845
   717.62         55.9222
   717.76         55.5739
   717.90         55.2531
   718.04         54.9669
   718.18         54.7242
   718.32         54.5376
   718.46         54.4167
   718.60         54.3652
   718.74         54.3781
   718.88         54.4422
   719.02         54.5405
   719.16         54.6543
   719.30         54.7681
   719.44         54.8737
   719.58         54.9762
   719.72         55.0918
   719.86         55.2372
   720.00         55.4285
   720.14         55.6813
   720.28         55.9994
   720.42         56.3704
   720.56         56.7740
   720.70         57.1855
   720.84         57.5790
   720.98         57.9251
   721.12         58.1929
   721.26         58.3601
   721.40         58.4201
   721.54         58.3842
   721.68         58.2733
   721.82         58.1102
   721.96         57.9190
   722.10         57.7203
   722.24         57.5303
   722.38         57.3602
   722.52         57.2139
   722.66         57.0860
   722.80         56.9627
   722.94         56.8304
   723.08         56.6803
   723.22         56.5067
   723.36         56.3089
   723.50         56.0982
   723.64         55.8993
   723.78         55.7400
   723.92         55.6358
   724.06         55.5870
   724.20         55.5891
   724.34         55.6352
   724.48         55.7148
   724.62         55.8183
   724.76         55.9388
   724.90         56.0710
   725.04         56.2064
   725.18         56.3240
   725.32         56.3968
   725.46         56.4094
   725.60         56.3643
   725.74         56.2744
   725.88         56.1559
   726.02         56.0221
   726.16         55.8764
   726.30         55.7109
   726.44         55.5131
   726.58         55.2775
   726.72         55.0175
   726.86         54.7602
   727.00         54.5336
   727.14         54.3637
   727.28         54.2713
   727.42         54.2636
   727.56         54.3352
   727.70         54.4689
   727.84         54.6360
   727.98         54.8098
   728.12         54.9712
   728.26         55.1019
   728.40         55.1855
   728.54         55.2149
   728.68         55.1922
   728.82         55.1254
   728.96         55.0288
   729.10         54.9226
   729.24         54.8291
   729.38         54.7693
   729.52         54.7570
   729.66         54.7924
   729.80         54.8610
   729.94         54.9371
   730.08         54.9975
   730.22         55.0316
   730.36         55.0398
   730.50         55.0301
   730.64         55.0159
   730.78         55.0083
   730.92         55.0147
   731.06         55.0442
   731.20         55.1015
   731.34         55.1773
   731.48         55.2520
   731.62         55.3106
   731.76         55.3484
   731.90         55.3657
   732.04         55.3633
   732.18         55.3375
   732.32         55.2832
   732.46         55.2008
   732.60         55.1001
   732.74         55.0003
   732.88         54.9202
   733.02         54.8680
   733.16         54.8399
   733.30         54.8275
   733.44         54.8256
   733.58         54.8324
   733.72         54.8432
   733.86         54.8480
   734.00         54.8388
   734.14         54.8157
   734.28         54.7811
   734.42         54.7311
   734.56         54.6527
   734.70         54.5314
   734.84         54.3603
   734.98         54.1442
   735.12         53.8944
   735.26         53.6283
   735.40         53.3684
   735.54         53.1326
   735.68         52.9319
   735.82         52.7751
   735.96         52.6718
   736.10         52.6301
   736.24         52.6486
   736.38         52.7153
   736.52         52.8116
   736.66         52.9133
   736.80         52.9921
   736.94         53.0186
   737.08         52.9694
   737.22         52.8372
   737.36         52.6310
   737.50         52.3717
   737.64         52.0855
   737.78         51.7991
   737.92         51.5389
   738.06         51.3280
   738.20         51.1829
   738.34         51.1124
   738.48         51.1156
   738.62         51.1835
   738.76         51.3031
   738.90         51.4592
   739.04         51.6347
   739.18         51.8084
   739.32         51.9599
   739.46         52.0782
   739.60         52.1638
   739.74         52.2272
   739.88         52.2833
   740.02         52.3430
   740.16         52.4128
   740.30         52.4982
   740.44         52.6019
   740.58         52.7181
   740.72         52.8336
   740.86         52.9314
   741.00         52.9925
   741.14         53.0000
   741.28         52.9472
   741.42         52.8374
   741.56         52.6758
   741.70         52.4685
   741.84         52.2266
   741.98         51.9687
   742.12         51.7161
   742.26         51.4870
   742.40         51.2938
   742.54         51.1425
   742.68         51.0356
   742.82         50.9786
   742.96         50.9786
   743.10         51.0356
   743.24         51.1425
   743.38         51.2938
   743.52         51.4870
   743.66         51.7161
   743.80         51.9687
   743.94         52.2266
   744.08         52.4685
   744.22         52.6758
