# File SAO20899
# Wavelength [nm]    Normalized Amplitude
   349.70         182.3429
   349.84         182.4426
   349.98         182.2846
   350.12         181.9104
   350.26         181.3963
   350.40         180.8261
   350.54         180.2629
   350.68         179.7520
   350.82         179.3369
   350.96         179.0632
   351.10         178.9674
   351.24         179.0632
   351.38         179.3369
   351.52         179.7520
   351.66         180.2629
   351.80         180.8261
   351.94         181.3963
   352.08         181.9104
   352.22         182.2846
   352.36         182.4426
   352.50         182.3429
   352.64         181.9803
   352.78         181.3742
   352.92         180.5631
   353.06         179.6039
   353.20         178.5664
   353.34         177.5299
   353.48         176.5682
   353.62         175.7315
   353.76         175.0473
   353.90         174.5304
   354.04         174.1847
   354.18         174.0083
   354.32         174.0012
   354.46         174.1607
   354.60         174.4483
   354.74         174.7748
   354.88         175.0366
   355.02         175.1596
   355.16         175.1017
   355.30         174.8379
   355.44         174.3648
   355.58         173.7278
   355.72         173.0092
   355.86         172.2817
   356.00         171.6041
   356.14         171.0395
   356.28         170.6531
   356.42         170.4898
   356.56         170.5445
   356.70         170.7655
   356.84         171.0868
   356.98         171.4387
   357.12         171.7376
   357.26         171.8861
   357.40         171.7978
   357.54         171.4314
   357.68         170.7945
   357.82         169.9323
   357.96         168.9257
   358.10         167.8748
   358.24         166.8738
   358.38         165.9901
   358.52         165.2545
   358.66         164.6726
   358.80         164.2302
   358.94         163.8798
   359.08         163.5509
   359.22         163.1987
   359.36         162.8325
   359.50         162.4926
   359.64         162.2040
   359.78         161.9628
   359.92         161.7638
   360.06         161.6160
   360.20         161.5447
   360.34         161.5841
   360.48         161.7618
   360.62         162.0820
   360.76         162.5114
   360.90         162.9896
   361.04         163.4387
   361.18         163.7681
   361.32         163.9077
   361.46         163.8351
   361.60         163.5582
   361.74         163.1055
   361.88         162.5292
   362.02         161.8788
   362.16         161.1884
   362.30         160.4781
   362.44         159.7604
   362.58         159.0592
   362.72         158.4054
   362.86         157.8233
   363.00         157.3335
   363.14         156.9499
   363.28         156.6833
   363.42         156.5600
   363.56         156.6200
   363.70         156.8877
   363.84         157.3473
   363.98         157.9535
   364.12         158.6599
   364.26         159.4302
   364.40         160.2341
   364.54         161.0433
   364.68         161.8251
   364.82         162.5418
   364.96         163.1548
   365.10         163.6335
   365.24         163.9682
   365.38         164.1594
   365.52         164.2055
   365.66         164.1097
   365.80         163.8900
   365.94         163.5794
   366.08         163.2112
   366.22         162.8024
   366.36         162.3512
   366.50         161.8502
   366.64         161.3147
   366.78         160.7944
   366.92         160.3449
   367.06         160.0055
   367.20         159.8014
   367.34         159.7391
   367.48         159.8014
   367.62         159.9784
   367.76         160.2730
   367.90         160.6662
   368.04         161.1197
   368.18         161.6055
   368.32         162.1077
   368.46         162.5932
   368.60         163.0119
   368.74         163.3307
   368.88         163.5426
   369.02         163.6453
   369.16         163.6302
   369.30         163.5068
   369.44         163.3251
   369.58         163.1591
   369.72         163.0642
   369.86         163.0503
   370.00         163.0966
   370.14         163.1949
   370.28         163.3899
   370.42         163.7652
   370.56         164.4102
   370.70         165.3889
   370.84         166.6864
   370.98         168.1918
   371.12         169.7569
   371.26         171.2922
   371.40         172.8007
   371.54         174.3362
   371.68         175.9581
   371.82         177.6934
   371.96         179.5066
   372.10         181.2799
   372.24         182.8348
   372.38         184.0054
   372.52         184.7160
   372.66         185.0248
   372.80         185.1118
   372.94         185.2114
   373.08         185.5318
   373.22         186.2023
   373.36         187.2486
   373.50         188.6103
   373.64         190.1668
   373.78         191.7470
   373.92         193.1692
   374.06         194.2873
   374.20         194.9968
   374.34         195.2279
   374.48         194.9565
   374.62         194.2443
   374.76         193.2810
   374.90         192.3779
   375.04         191.8849
   375.18         192.0802
   375.32         193.0880
   375.46         194.8383
   375.60         197.0580
   375.74         199.3095
   375.88         201.0883
   376.02         201.9650
   376.16         201.7111
   376.30         200.3512
   376.44         198.1589
   376.58         195.6067
   376.72         193.2504
   376.86         191.5915
   377.00         190.9844
   377.14         191.6040
   377.28         193.4568
   377.42         196.4111
   377.56         200.2221
   377.70         204.5500
   377.84         208.9823
   377.98         213.0799
   378.12         216.4341
   378.26         218.6979
   378.40         219.6203
   378.54         219.1043
   378.68         217.2402
   378.82         214.2770
   378.96         210.5560
   379.10         206.4693
   379.24         202.4397
   379.38         198.8834
   379.52         196.1608
   379.66         194.5488
   379.80         194.2264
   379.94         195.2591
   380.08         197.6001
   380.22         201.0762
   380.36         205.3687
   380.50         210.0397
   380.64         214.6026
   380.78         218.5991
   380.92         221.6764
   381.06         223.6631
   381.20         224.5981
   381.34         224.6825
   381.48         224.1918
   381.62         223.3835
   381.76         222.4295
   381.90         221.3791
   382.04         220.1475
   382.18         218.5576
   382.32         216.4350
   382.46         213.6888
   382.60         210.3593
   382.74         206.6308
   382.88         202.7833
   383.02         199.1385
   383.16         196.0318
   383.30         193.7839
   383.44         192.6637
   383.58         192.8490
   383.72         194.3828
   383.86         197.1470
   384.00         200.8702
   384.14         205.1569
   384.28         209.5360
   384.42         213.5417
   384.56         216.8027
   384.70         219.1091
   384.84         220.4315
   384.98         220.8912
   385.12         220.6913
   385.26         220.0390
   385.40         219.0997
   385.54         217.9955
   385.68         216.8201
   385.82         215.6383
   385.96         214.4867
   386.10         213.4001
   386.24         212.4302
   386.38         211.6238
   386.52         211.0032
   386.66         210.5646
   386.80         210.2758
   386.94         210.0866
   387.08         209.9226
   387.22         209.6451
   387.36         209.0264
   387.50         207.7951
   387.64         205.7295
   387.78         202.7473
   387.92         198.9389
   388.06         194.5472
   388.20         189.9311
   388.34         185.5188
   388.48         181.7512
   388.62         179.0301
   388.76         177.6662
   388.90         177.8324
   389.04         179.5372
   389.18         182.6283
   389.32         186.8049
   389.46         191.6491
   389.60         196.6958
   389.74         201.4979
   389.88         205.6779
   390.02         208.9886
   390.16         211.3546
   390.30         212.8497
   390.44         213.6354
   390.58         213.8922
   390.72         213.7729
   390.86         213.3984
   391.00         212.8602
   391.14         212.2056
   391.28         211.4461
   391.42         210.5965
   391.56         209.6944
   391.70         208.7784
   391.84         207.8425
   391.98         206.8309
   392.12         205.6889
   392.26         204.4118
   392.40         203.0538
   392.54         201.6982
   392.68         200.4325
   392.82         199.3426
   392.96         198.5117
   393.10         198.0170
   393.24         197.9205
   393.38         198.2614
   393.52         199.0425
   393.66         200.2159
   393.80         201.6757
   393.94         203.2779
   394.08         204.8627
   394.22         206.2593
   394.36         207.3006
   394.50         207.8617
   394.64         207.9046
   394.78         207.4799
   394.92         206.6820
   395.06         205.5860
   395.20         204.1988
   395.34         202.4559
   395.48         200.2391
   395.62         197.4020
   395.76         193.8289
   395.90         189.5105
   396.04         184.5831
   396.18         179.3163
   396.32         174.0724
   396.46         169.2506
   396.60         165.2378
   396.74         162.3653
   396.88         160.8681
   397.02         160.8593
   397.16         162.3212
   397.30         165.0999
   397.44         168.9096
   397.58         173.3692
   397.72         178.0517
   397.86         182.5372
   398.00         186.4743
   398.14         189.6319
   398.28         191.9298
   398.42         193.4341
   398.56         194.3039
   398.70         194.7163
   398.84         194.8079
   398.98         194.6616
   399.12         194.3267
   399.26         193.8424
   399.40         193.2387
   399.54         192.5303
   399.68         191.7302
   399.82         190.8669
   399.96         189.9873
   400.10         189.1448
   400.24         188.3935
   400.38         187.7788
   400.52         187.3297
   400.66         187.0548
   400.80         186.9393
   400.94         186.9430
   401.08         186.9974
   401.22         187.0023
   401.36         186.8445
   401.50         186.4359
   401.64         185.7468
   401.78         184.8086
   401.92         183.6909
   402.06         182.4790
   402.20         181.2749
   402.34         180.2038
   402.48         179.3914
   402.62         178.9296
   402.76         178.8530
   402.90         179.1432
   403.04         179.7414
   403.18         180.5622
   403.32         181.5051
   403.46         182.4615
   403.60         183.3269
   403.74         184.0189
   403.88         184.4905
   404.02         184.7425
   404.16         184.8225
   404.30         184.7985
   404.44         184.7321
   404.58         184.6696
   404.72         184.6456
   404.86         184.6866
   405.00         184.8087
   405.14         185.0107
   405.28         185.2760
   405.42         185.5780
   405.56         185.8806
   405.70         186.1406
   405.84         186.3148
   405.98         186.3668
   406.12         186.2719
   406.26         186.0281
   406.40         185.6536
   406.54         185.1811
   406.68         184.6568
   406.82         184.1323
   406.96         183.6478
   407.10         183.2259
   407.24         182.8704
   407.38         182.5656
   407.52         182.2852
   407.66         181.9998
   407.80         181.6781
   407.94         181.2833
   408.08         180.7713
   408.22         180.0959
   408.36         179.2163
   408.50         178.0865
   408.64         176.6377
   408.78         174.7755
   408.92         172.4040
   409.06         169.4774
   409.20         166.0469
   409.34         162.2672
   409.48         158.3780
   409.62         154.6727
   409.76         151.4537
   409.90         148.9863
   410.04         147.4773
   410.18         147.0647
   410.32         147.7933
   410.46         149.5911
   410.60         152.2699
   410.74         155.5492
   410.88         159.0943
   411.02         162.5573
   411.16         165.6182
   411.30         168.0291
   411.44         169.6519
   411.58         170.4779
   411.72         170.6140
   411.86         170.2321
   412.00         169.5172
   412.14         168.6406
   412.28         167.7429
   412.42         166.9259
   412.56         166.2605
   412.70         165.7911
   412.84         165.5245
   412.98         165.4182
   413.12         165.3928
   413.26         165.3682
   413.40         165.2960
   413.54         165.1613
   413.68         164.9667
   413.82         164.7236
   413.96         164.4502
   414.10         164.1729
   414.24         163.9286
   414.38         163.7691
   414.52         163.7600
   414.66         163.9544
   414.80         164.3653
   414.94         164.9630
   415.08         165.6843
   415.22         166.4483
   415.36         167.1679
   415.50         167.7563
   415.64         168.1483
   415.78         168.3251
   415.92         168.3127
   416.06         168.1552
   416.20         167.8898
   416.34         167.5470
   416.48         167.1612
   416.62         166.7724
   416.76         166.4225
   416.90         166.1524
   417.04         165.9938
   417.18         165.9517
   417.32         165.9938
   417.46         166.0751
   417.60         166.1621
   417.74         166.2276
   417.88         166.2507
   418.02         166.2192
   418.16         166.1310
   418.30         165.9931
   418.44         165.8088
   418.58         165.5691
   418.72         165.2577
   418.86         164.8668
   419.00         164.4073
   419.14         163.9073
   419.28         163.4013
   419.42         162.9172
   419.56         162.4734
   419.70         162.0785
   419.84         161.7342
   419.98         161.4450
   420.12         161.2192
   420.26         161.0584
   420.40         160.9544
   420.54         160.8997
   420.68         160.8898
   420.82         160.9137
   420.96         160.9527
   421.10         160.9901
   421.24         161.0144
   421.38         161.0142
   421.52         160.9772
   421.66         160.8932
   421.80         160.7553
   421.94         160.5569
   422.08         160.2945
   422.22         159.9736
   422.36         159.6081
   422.50         159.2156
   422.64         158.8169
   422.78         158.4330
   422.92         158.0818
   423.06         157.7792
   423.20         157.5365
   423.34         157.3584
   423.48         157.2442
   423.62         157.1923
   423.76         157.1928
   423.90         157.2248
   424.04         157.2708
   424.18         157.3236
   424.32         157.3809
   424.46         157.4373
   424.60         157.4814
   424.74         157.5015
   424.88         157.4907
   425.02         157.4423
   425.16         157.3495
   425.30         157.2026
   425.44         156.9864
   425.58         156.6845
   425.72         156.2859
   425.86         155.7926
   426.00         155.2211
   426.14         154.6002
   426.28         153.9645
   426.42         153.3489
   426.56         152.7886
   426.70         152.3198
   426.84         151.9725
   426.98         151.7620
   427.12         151.6905
   427.26         151.7492
   427.40         151.9158
   427.54         152.1529
   427.68         152.4136
   427.82         152.6542
   427.96         152.8398
   428.10         152.9505
   428.24         152.9846
   428.38         152.9522
   428.52         152.8686
   428.66         152.7475
   428.80         152.6002
   428.94         152.4387
   429.08         152.2749
   429.22         152.1245
   429.36         152.0072
   429.50         151.9399
   429.64         151.9277
   429.78         151.9577
   429.92         152.0039
   430.06         152.0402
   430.20         152.0495
   430.34         152.0195
   430.48         151.9401
   430.62         151.8073
   430.76         151.6239
   430.90         151.3981
   431.04         151.1420
   431.18         150.8711
   431.32         150.6001
   431.46         150.3401
   431.60         150.0950
   431.74         149.8582
   431.88         149.6145
   432.02         149.3403
   432.16         148.9977
   432.30         148.5264
   432.44         147.8409
   432.58         146.8359
   432.72         145.3987
   432.86         143.4430
   433.00         140.9552
   433.14         138.0240
   433.28         134.8316
   433.42         131.6155
   433.56         128.6299
   433.70         126.1134
   433.84         124.2671
   433.98         123.2352
   434.12         123.0924
   434.26         123.8399
   434.40         125.4058
   434.54         127.6521
   434.68         130.3854
   434.82         133.3737
   434.96         136.3771
   435.10         139.1808
   435.24         141.6220
   435.38         143.6144
   435.52         145.1601
   435.66         146.3183
   435.80         147.1566
   435.94         147.7251
   436.08         148.0582
   436.22         148.1832
   436.36         148.1277
   436.50         147.9293
   436.64         147.6346
   436.78         147.2927
   436.92         146.9500
   437.06         146.6421
   437.20         146.3839
   437.34         146.1625
   437.48         145.9421
   437.62         145.6799
   437.76         145.3418
   437.90         144.9096
   438.04         144.3837
   438.18         143.7872
   438.32         143.1623
   438.46         142.5615
   438.60         142.0371
   438.74         141.6307
   438.88         141.3664
   439.02         141.2537
   439.16         141.2897
   439.30         141.4556
   439.44         141.7159
   439.58         142.0229
   439.72         142.3226
   439.86         142.5600
   440.00         142.6876
   440.14         142.6712
   440.28         142.4943
   440.42         142.1612
   440.56         141.6927
   440.70         141.1153
   440.84         140.4576
   440.98         139.7463
   441.12         139.0030
   441.26         138.2455
   441.40         137.4912
   441.54         136.7597
   441.68         136.0701
   441.82         135.4338
   441.96         134.8540
   442.10         134.3283
   442.24         133.8483
   442.38         133.3995
   442.52         132.9707
   442.66         132.5655
   442.80         132.2057
   442.94         131.9230
   443.08         131.7508
   443.22         131.7144
   443.36         131.8212
   443.50         132.0618
   443.64         132.4174
   443.78         132.8660
   443.92         133.3801
   444.06         133.9256
   444.20         134.4675
   444.34         134.9779
   444.48         135.4346
   444.62         135.8212
   444.76         136.1303
   444.90         136.3623
   445.04         136.5238
   445.18         136.6314
   445.32         136.7072
   445.46         136.7628
   445.60         136.7775
   445.74         136.6975
   445.88         136.4537
   446.02         135.9860
   446.16         135.2751
   446.30         134.3567
   446.44         133.2996
   446.58         132.1762
   446.72         131.0435
   446.86         129.9444
   447.00         128.9234
   447.14         128.0303
   447.28         127.3163
   447.42         126.8257
   447.56         126.5833
   447.70         126.5898
   447.84         126.8214
   447.98         127.2320
   448.12         127.7537
   448.26         128.3050
   448.40         128.8205
   448.54         129.2792
   448.68         129.6979
   448.82         130.0986
   448.96         130.4765
   449.10         130.7996
   449.24         131.0345
   449.38         131.1671
   449.52         131.2144
   449.66         131.2186
   449.80         131.2249
   449.94         131.2623
   450.08         131.3389
   450.22         131.4467
   450.36         131.5678
   450.50         131.6829
   450.64         131.7807
   450.78         131.8537
   450.92         131.8940
   451.06         131.9030
   451.20         131.8959
   451.34         131.8872
   451.48         131.8756
   451.62         131.8471
   451.76         131.7895
   451.90         131.6950
   452.04         131.5559
   452.18         131.3659
   452.32         131.1278
   452.46         130.8537
   452.60         130.5555
   452.74         130.2425
   452.88         129.9264
   453.02         129.6217
   453.16         129.3447
   453.30         129.1113
   453.44         128.9306
   453.58         128.7993
   453.72         128.7018
   453.86         128.6110
   454.00         128.4881
   454.14         128.2978
   454.28         128.0284
   454.42         127.6958
   454.56         127.3330
   454.70         126.9798
   454.84         126.6732
   454.98         126.4403
   455.12         126.2918
   455.26         126.2248
   455.40         126.2301
   455.54         126.2960
   455.68         126.4093
   455.82         126.5537
   455.96         126.7079
   456.10         126.8451
   456.24         126.9399
   456.38         126.9763
   456.52         126.9509
   456.66         126.8750
   456.80         126.7738
   456.94         126.6726
   457.08         126.5863
   457.22         126.5245
   457.36         126.4927
   457.50         126.4860
   457.64         126.4888
   457.78         126.4822
   457.92         126.4523
   458.06         126.3890
   458.20         126.2826
   458.34         126.1278
   458.48         125.9270
   458.62         125.6895
   458.76         125.4283
   458.90         125.1580
   459.04         124.8915
   459.18         124.6413
   459.32         124.4230
   459.46         124.2507
   459.60         124.1292
   459.74         124.0570
   459.88         124.0340
   460.02         124.0586
   460.16         124.1205
   460.30         124.2046
   460.44         124.2957
   460.58         124.3776
   460.72         124.4303
   460.86         124.4339
   461.00         124.3803
   461.14         124.2758
   461.28         124.1276
   461.42         123.9398
   461.56         123.7187
   461.70         123.4745
   461.84         123.2201
   461.98         122.9722
   462.12         122.7447
   462.26         122.5398
   462.40         122.3544
   462.54         122.1875
   462.68         122.0357
   462.82         121.8905
   462.96         121.7423
   463.10         121.5889
   463.24         121.4411
   463.38         121.3171
   463.52         121.2363
   463.66         121.2174
   463.80         121.2701
   463.94         121.3819
   464.08         121.5276
   464.22         121.6858
   464.36         121.8451
   464.50         121.9980
   464.64         122.1335
   464.78         122.2391
   464.92         122.3092
   465.06         122.3491
   465.20         122.3676
   465.34         122.3694
   465.48         122.3536
   465.62         122.3182
   465.76         122.2633
   465.90         122.1903
   466.04         122.1035
   466.18         122.0098
   466.32         121.9146
   466.46         121.8205
   466.60         121.7265
   466.74         121.6334
   466.88         121.5480
   467.02         121.4809
   467.16         121.4395
   467.30         121.4311
   467.44         121.4644
   467.58         121.5421
   467.72         121.6595
   467.86         121.8073
   468.00         121.9705
   468.14         122.1283
   468.28         122.2588
   468.42         122.3432
   468.56         122.3674
   468.70         122.3208
   468.84         122.1919
   468.98         121.9772
   469.12         121.6857
   469.26         121.3336
   469.40         120.9475
   469.54         120.5628
   469.68         120.2106
   469.82         119.9022
   469.96         119.6254
   470.10         119.3536
   470.24         119.0669
   470.38         118.7591
   470.52         118.4312
   470.66         118.0862
   470.80         117.7330
   470.94         117.3896
   471.08         117.0744
   471.22         116.7983
   471.36         116.5658
   471.50         116.3782
   471.64         116.2380
   471.78         116.1428
   471.92         116.0852
   472.06         116.0553
   472.20         116.0376
   472.34         116.0164
   472.48         115.9790
   472.62         115.9199
   472.76         115.8488
   472.90         115.7812
   473.04         115.7219
   473.18         115.6640
   473.32         115.6009
   473.46         115.5282
   473.60         115.4390
   473.74         115.3259
   473.88         115.1912
   474.02         115.0475
   474.16         114.9078
   474.30         114.7798
   474.44         114.6650
   474.58         114.5625
   474.72         114.4722
   474.86         114.3954
   475.00         114.3261
   475.14         114.2484
   475.28         114.1498
   475.42         114.0256
   475.56         113.8770
   475.70         113.7134
   475.84         113.5481
   475.98         113.3951
   476.12         113.2628
   476.26         113.1550
   476.40         113.0758
   476.54         113.0203
   476.68         112.9625
   476.82         112.8700
   476.96         112.7249
   477.10         112.5250
   477.24         112.2783
   477.38         111.9995
   477.52         111.7026
   477.66         111.3982
   477.80         111.1032
   477.94         110.8414
   478.08         110.6355
   478.22         110.5082
   478.36         110.4723
   478.50         110.5250
   478.64         110.6521
   478.78         110.8272
   478.92         111.0155
   479.06         111.1843
   479.20         111.3004
   479.34         111.3397
   479.48         111.3034
   479.62         111.2093
   479.76         111.0722
   479.90         110.8983
   480.04         110.6919
   480.18         110.4613
   480.32         110.2190
   480.46         109.9793
   480.60         109.7556
   480.74         109.5573
   480.88         109.3883
   481.02         109.2467
   481.16         109.1279
   481.30         109.0270
   481.44         108.9398
   481.58         108.8690
   481.72         108.8176
   481.86         108.7817
   482.00         108.7612
   482.14         108.7632
   482.28         108.7920
   482.42         108.8487
   482.56         108.9369
   482.70         109.0638
   482.84         109.2300
   482.98         109.4185
   483.12         109.6002
   483.26         109.7487
   483.40         109.8446
   483.54         109.8738
   483.68         109.8238
   483.82         109.6817
   483.96         109.4342
   484.10         109.0720
   484.24         108.5869
   484.38         107.9622
   484.52         107.1735
   484.66         106.1878
   484.80         104.9565
   484.94         103.4298
   485.08         101.5921
   485.22         99.4835
   485.36         97.1990
   485.50         94.8805
   485.64         92.6981
   485.78         90.8316
   485.92         89.4467
   486.06         88.6616
   486.20         88.5232
   486.34         89.0056
   486.48         90.0231
   486.62         91.4456
   486.76         93.1127
   486.90         94.8479
   487.04         96.4833
   487.18         97.8872
   487.32         98.9812
   487.46         99.7530
   487.60         100.2579
   487.74         100.5908
   487.88         100.8469
   488.02         101.1024
   488.16         101.4073
   488.30         101.7767
   488.44         102.1945
   488.58         102.6257
   488.72         103.0285
   488.86         103.3651
   489.00         103.6114
   489.14         103.7607
   489.28         103.8152
   489.42         103.7775
   489.56         103.6545
   489.70         103.4648
   489.84         103.2485
   489.98         103.0551
   490.12         102.9187
   490.26         102.8512
   490.40         102.8443
   490.54         102.8800
   490.68         102.9366
   490.82         102.9781
   490.96         102.9462
   491.10         102.7774
   491.24         102.4386
   491.38         101.9397
   491.52         101.3257
   491.66         100.6659
   491.80         100.0400
   491.94         99.5211
   492.08         99.1649
   492.22         99.0129
   492.36         99.0906
   492.50         99.3987
   492.64         99.8957
   492.78         100.5074
   492.92         101.1561
   493.06         101.7716
   493.20         102.2970
   493.34         102.6920
   493.48         102.9353
   493.62         103.0356
   493.76         103.0375
   493.90         103.0046
   494.04         102.9828
   494.18         102.9873
   494.32         103.0164
   494.46         103.0591
   494.60         103.0963
   494.74         103.1172
   494.88         103.1244
   495.02         103.1222
   495.16         103.1077
   495.30         103.0721
   495.44         103.0054
   495.58         102.9006
   495.72         102.7518
   495.86         102.5533
   496.00         102.3015
   496.14         102.0003
   496.28         101.6590
   496.42         101.2904
   496.56         100.9131
   496.70         100.5515
   496.84         100.2313
   496.98         99.9705
   497.12         99.7694
   497.26         99.6179
   497.40         99.5072
   497.54         99.4274
   497.68         99.3664
   497.82         99.3131
   497.96         99.2604
   498.10         99.2047
   498.24         99.1480
   498.38         99.0994
   498.52         99.0724
   498.66         99.0820
   498.80         99.1387
   498.94         99.2386
   499.08         99.3619
   499.22         99.4752
   499.36         99.5375
   499.50         99.5165
   499.64         99.4008
   499.78         99.1957
   499.92         98.9144
   500.06         98.5720
   500.20         98.1776
   500.34         97.7323
   500.48         97.2402
   500.62         96.7219
   500.76         96.2154
   500.90         95.7677
   501.04         95.4191
   501.18         95.1901
   501.32         95.0799
   501.46         95.0736
   501.60         95.1492
   501.74         95.2860
   501.88         95.4677
   502.02         95.6816
   502.16         95.9128
   502.30         96.1390
   502.44         96.3367
   502.58         96.4902
   502.72         96.5856
   502.86         96.6124
   503.00         96.5706
   503.14         96.4701
   503.28         96.3239
   503.42         96.1355
   503.56         95.9062
   503.70         95.6424
   503.84         95.3536
   503.98         95.0597
   504.12         94.7851
   504.26         94.5456
   504.40         94.3434
   504.54         94.1760
   504.68         94.0420
   504.82         93.9407
   504.96         93.8712
   505.10         93.8311
   505.24         93.8144
   505.38         93.8162
   505.52         93.8369
   505.66         93.8758
   505.80         93.9284
   505.94         93.9931
   506.08         94.0701
   506.22         94.1616
   506.36         94.2603
   506.50         94.3493
   506.64         94.4110
   506.78         94.4261
   506.92         94.3821
   507.06         94.2813
   507.20         94.1342
   507.34         93.9513
   507.48         93.7449
   507.62         93.5294
   507.76         93.3211
   507.90         93.1371
   508.04         92.9925
   508.18         92.8950
   508.32         92.8497
   508.46         92.8640
   508.60         92.9429
   508.74         93.0819
   508.88         93.2660
   509.02         93.4742
   509.16         93.6836
   509.30         93.8739
   509.44         94.0283
   509.58         94.1317
   509.72         94.1718
   509.86         94.1419
   510.00         94.0459
   510.14         93.8993
   510.28         93.7255
   510.42         93.5526
   510.56         93.4017
   510.70         93.2797
   510.84         93.1857
   510.98         93.1160
   511.12         93.0614
   511.26         93.0054
   511.40         92.9291
   511.54         92.8197
   511.68         92.6683
   511.82         92.4701
   511.96         92.2332
   512.10         91.9764
   512.24         91.7183
   512.38         91.4742
   512.52         91.2586
   512.66         91.0838
   512.80         90.9639
   512.94         90.9121
   513.08         90.9237
   513.22         90.9710
   513.36         91.0244
   513.50         91.0695
   513.64         91.1002
   513.78         91.1120
   513.92         91.1071
   514.06         91.0922
   514.20         91.0719
   514.34         91.0502
   514.48         91.0364
   514.62         91.0361
   514.76         91.0403
   514.90         91.0326
   515.04         90.9999
   515.18         90.9319
   515.32         90.8224
   515.46         90.6705
   515.60         90.4713
   515.74         90.2160
   515.88         89.9084
   516.02         89.5696
   516.16         89.2306
   516.30         88.9201
   516.44         88.6623
   516.58         88.4790
   516.72         88.3812
   516.86         88.3671
   517.00         88.4287
   517.14         88.5480
   517.28         88.7001
   517.42         88.8619
   517.56         89.0133
   517.70         89.1337
   517.84         89.2058
   517.98         89.2213
   518.12         89.1838
   518.26         89.1073
   518.40         89.0148
   518.54         88.9355
   518.68         88.8952
   518.82         88.9099
   518.96         88.9839
   519.10         89.1111
   519.24         89.2772
   519.38         89.4604
   519.52         89.6383
   519.66         89.7892
   519.80         89.8941
   519.94         89.9428
   520.08         89.9295
   520.22         89.8498
   520.36         89.7073
   520.50         89.5187
   520.64         89.3120
   520.78         89.1171
   520.92         88.9529
   521.06         88.8251
   521.20         88.7318
   521.34         88.6613
   521.48         88.5965
   521.62         88.5293
   521.76         88.4595
   521.90         88.3873
   522.04         88.3116
   522.18         88.2232
   522.32         88.1082
   522.46         87.9600
   522.60         87.7801
   522.74         87.5744
   522.88         87.3488
   523.02         87.1103
   523.16         86.8678
   523.30         86.6246
   523.44         86.3789
   523.58         86.1297
   523.72         85.8783
   523.86         85.6261
   524.00         85.3755
   524.14         85.1404
   524.28         84.9434
   524.42         84.7995
   524.56         84.7143
   524.70         84.6878
   524.84         84.7133
   524.98         84.7841
   525.12         84.8933
   525.26         85.0294
   525.40         85.1784
   525.54         85.3230
   525.68         85.4477
   525.82         85.5407
   525.96         85.5923
   526.10         85.5982
   526.24         85.5578
   526.38         85.4691
   526.52         85.3290
   526.66         85.1381
   526.80         84.9042
   526.94         84.6368
   527.08         84.3449
   527.22         84.0432
   527.36         83.7482
   527.50         83.4736
   527.64         83.2296
   527.78         83.0255
   527.92         82.8688
   528.06         82.7660
   528.20         82.7186
   528.34         82.7191
   528.48         82.7524
   528.62         82.7994
   528.76         82.8414
   528.90         82.8659
   529.04         82.8644
   529.18         82.8328
   529.32         82.7761
   529.46         82.7088
   529.60         82.6466
   529.74         82.6026
   529.88         82.5850
   530.02         82.5937
   530.16         82.6240
   530.30         82.6709
   530.44         82.7251
   530.58         82.7681
   530.72         82.7776
   530.86         82.7350
   531.00         82.6283
   531.14         82.4565
   531.28         82.2314
   531.42         81.9746
   531.56         81.7091
   531.70         81.4489
   531.84         81.2004
   531.98         80.9699
   532.12         80.7646
   532.26         80.5907
   532.40         80.4524
   532.54         80.3508
   532.68         80.2849
   532.82         80.2532
   532.96         80.2524
   533.10         80.2759
   533.24         80.3124
   533.38         80.3485
   533.52         80.3735
   533.66         80.3793
   533.80         80.3609
   533.94         80.3181
   534.08         80.2553
   534.22         80.1807
   534.36         80.1052
   534.50         80.0416
   534.64         80.0025
   534.78         79.9956
   534.92         80.0188
   535.06         80.0586
   535.20         80.0955
   535.34         80.1135
   535.48         80.1005
   535.62         80.0463
   535.76         79.9489
   535.90         79.8187
   536.04         79.6787
   536.18         79.5543
   536.32         79.4639
   536.46         79.4179
   536.60         79.4189
   536.74         79.4626
   536.88         79.5405
   537.02         79.6396
   537.16         79.7427
   537.30         79.8319
   537.44         79.8912
   537.58         79.9091
   537.72         79.8816
   537.86         79.8137
   538.00         79.7163
   538.14         79.5980
   538.28         79.4630
   538.42         79.3150
   538.56         79.1552
   538.70         78.9793
   538.84         78.7819
   538.98         78.5658
   539.12         78.3412
   539.26         78.1190
   539.40         77.9097
   539.54         77.7221
   539.68         77.5611
   539.82         77.4311
   539.96         77.3353
   540.10         77.2750
   540.24         77.2493
   540.38         77.2544
   540.52         77.2836
   540.66         77.3263
   540.80         77.3682
   540.94         77.3962
   541.08         77.4033
   541.22         77.3871
   541.36         77.3466
   541.50         77.2789
   541.64         77.1806
   541.78         77.0501
   541.92         76.8885
   542.06         76.6988
   542.20         76.4859
   542.34         76.2566
   542.48         76.0208
   542.62         75.7877
   542.76         75.5638
   542.90         75.3509
   543.04         75.1499
   543.18         74.9631
   543.32         74.7927
   543.46         74.6407
   543.60         74.5129
   543.74         74.4156
   543.88         74.3483
   544.02         74.3026
   544.16         74.2644
   544.30         74.2194
   544.44         74.1553
   544.58         74.0635
   544.72         73.9415
   544.86         73.7942
   545.00         73.6324
   545.14         73.4674
   545.28         73.3089
   545.42         73.1678
   545.56         73.0563
   545.70         72.9867
   545.84         72.9625
   545.98         72.9786
   546.12         73.0287
   546.26         73.1054
   546.40         73.1958
   546.54         73.2840
   546.68         73.3571
   546.82         73.4089
   546.96         73.4387
   547.10         73.4481
   547.24         73.4388
   547.38         73.4104
   547.52         73.3601
   547.66         73.2860
   547.80         73.1913
   547.94         73.0836
   548.08         72.9681
   548.22         72.8462
   548.36         72.7202
   548.50         72.5974
   548.64         72.4899
   548.78         72.4101
   548.92         72.3656
   549.06         72.3589
   549.20         72.3857
   549.34         72.4346
   549.48         72.4882
   549.62         72.5233
   549.76         72.5132
   549.90         72.4392
   550.04         72.3011
   550.18         72.1142
   550.32         71.9015
   550.46         71.6884
   550.60         71.4971
   550.74         71.3429
   550.88         71.2358
   551.02         71.1796
   551.16         71.1679
   551.30         71.1829
   551.44         71.2022
   551.58         71.2067
   551.72         71.1823
   551.86         71.1165
   552.00         71.0001
   552.14         70.8291
   552.28         70.6050
   552.42         70.3386
   552.56         70.0536
   552.70         69.7796
   552.84         69.5399
   552.98         69.3480
   553.12         69.2103
   553.26         69.1281
   553.40         69.0985
   553.54         69.1159
   553.68         69.1732
   553.82         69.2597
   553.96         69.3614
   554.10         69.4662
   554.24         69.5647
   554.38         69.6495
   554.52         69.7136
   554.66         69.7540
   554.80         69.7727
   554.94         69.7758
   555.08         69.7728
   555.22         69.7730
   555.36         69.7802
   555.50         69.7921
   555.64         69.8029
   555.78         69.8059
   555.92         69.7946
   556.06         69.7610
   556.20         69.6982
   556.34         69.6046
   556.48         69.4821
   556.62         69.3389
   556.76         69.1914
   556.90         69.0590
   557.04         68.9604
   557.18         68.9075
   557.32         68.9031
   557.46         68.9466
   557.60         69.0353
   557.74         69.1626
   557.88         69.3160
   558.02         69.4775
   558.16         69.6290
   558.30         69.7539
   558.44         69.8360
   558.58         69.8603
   558.72         69.8197
   558.86         69.7176
   559.00         69.5621
   559.14         69.3634
   559.28         69.1365
   559.42         68.8981
   559.56         68.6648
   559.70         68.4518
   559.84         68.2689
   559.98         68.1202
   560.12         68.0054
   560.26         67.9185
   560.40         67.8523
   560.54         67.8011
   560.68         67.7617
   560.82         67.7324
   560.96         67.7081
   561.10         67.6793
   561.24         67.6384
   561.38         67.5846
   561.52         67.5212
   561.66         67.4524
   561.80         67.3844
   561.94         67.3239
   562.08         67.2771
   562.22         67.2502
   562.36         67.2445
   562.50         67.2523
   562.64         67.2583
   562.78         67.2432
   562.92         67.1913
   563.06         67.0947
   563.20         66.9479
   563.34         66.7487
   563.48         66.5021
   563.62         66.2210
   563.76         65.9258
   563.90         65.6388
   564.04         65.3836
   564.18         65.1835
   564.32         65.0541
   564.46         65.0054
   564.60         65.0386
   564.74         65.1407
   564.88         65.2884
   565.02         65.4516
   565.16         65.5976
   565.30         65.6987
   565.44         65.7383
   565.58         65.7110
   565.72         65.6182
   565.86         65.4662
   566.00         65.2688
   566.14         65.0472
   566.28         64.8240
   566.42         64.6177
   566.56         64.4406
   566.70         64.3039
   566.84         64.2132
   566.98         64.1667
   567.12         64.1634
   567.26         64.1963
   567.40         64.2518
   567.54         64.3182
   567.68         64.3844
   567.82         64.4401
   567.96         64.4770
   568.10         64.4892
   568.24         64.4748
   568.38         64.4364
   568.52         64.3789
   568.66         64.3073
   568.80         64.2259
   568.94         64.1377
   569.08         64.0436
   569.22         63.9433
   569.36         63.8402
   569.50         63.7416
   569.64         63.6560
   569.78         63.5873
   569.92         63.5326
   570.06         63.4868
   570.20         63.4474
   570.34         63.4144
   570.48         63.3872
   570.62         63.3637
   570.76         63.3431
   570.90         63.3258
   571.04         63.3130
   571.18         63.3048
   571.32         63.2988
   571.46         63.2900
   571.60         63.2714
   571.74         63.2376
   571.88         63.1882
   572.02         63.1299
   572.16         63.0734
   572.30         63.0251
   572.44         62.9818
   572.58         62.9364
   572.72         62.8819
   572.86         62.8125
   573.00         62.7256
   573.14         62.6204
   573.28         62.4953
   573.42         62.3495
   573.56         62.1829
   573.70         61.9968
   573.84         61.7957
   573.98         61.5866
   574.12         61.3779
   574.26         61.1799
   574.40         61.0017
   574.54         60.8494
   574.68         60.7270
   574.82         60.6371
   574.96         60.5766
   575.10         60.5396
   575.24         60.5280
   575.38         60.5492
   575.52         60.6074
   575.66         60.6991
   575.80         60.8141
   575.94         60.9420
   576.08         61.0707
   576.22         61.1847
   576.36         61.2700
   576.50         61.3127
   576.64         61.2937
   576.78         61.1915
   576.92         60.9923
   577.06         60.6984
   577.20         60.3304
   577.34         59.9218
   577.48         59.5072
   577.62         59.1139
   577.76         58.7682
   577.90         58.4957
   578.04         58.3127
   578.18         58.2214
   578.32         58.2094
   578.46         58.2580
   578.60         58.3461
   578.74         58.4486
   578.88         58.5426
   579.02         58.6138
   579.16         58.6556
   579.30         58.6645
   579.44         58.6434
   579.58         58.6081
   579.72         58.5795
   579.86         58.5729
   580.00         58.5918
   580.14         58.6293
   580.28         58.6768
   580.42         58.7312
   580.56         58.7898
   580.70         58.8467
   580.84         58.8925
   580.98         58.9210
   581.12         58.9338
   581.26         58.9366
   581.40         58.9316
   581.54         58.9195
   581.68         58.9018
   581.82         58.8755
   581.96         58.8320
   582.10         58.7691
   582.24         58.6928
   582.38         58.6078
   582.52         58.5195
   582.66         58.4318
   582.80         58.3458
   582.94         58.2628
   583.08         58.1825
   583.22         58.1007
   583.36         58.0136
   583.50         57.9233
   583.64         57.8347
   583.78         57.7490
   583.92         57.6647
   584.06         57.5823
   584.20         57.5086
   584.34         57.4513
   584.48         57.4149
   584.62         57.4031
   584.76         57.4204
   584.90         57.4664
   585.04         57.5352
   585.18         57.6177
   585.32         57.7007
   585.46         57.7693
   585.60         57.8114
   585.74         57.8197
   585.88         57.7926
   586.02         57.7295
   586.16         57.6170
   586.30         57.4211
   586.44         57.1098
   586.58         56.6853
   586.72         56.1835
   586.86         55.6531
   587.00         55.1415
   587.14         54.6902
   587.28         54.3342
   587.42         54.0959
   587.56         53.9708
   587.70         53.9166
   587.84         53.8719
   587.98         53.7861
   588.12         53.6208
   588.26         53.3367
   588.40         52.8966
   588.54         52.2871
   588.68         51.5322
   588.82         50.6886
   588.96         49.8413
   589.10         49.0998
   589.24         48.5736
   589.38         48.3345
   589.52         48.4049
   589.66         48.7664
   589.80         49.3695
   589.94         50.1431
   590.08         51.0040
   590.22         51.8679
   590.36         52.6683
   590.50         53.3723
   590.64         53.9676
   590.78         54.4392
   590.92         54.7750
   591.06         54.9848
   591.20         55.0996
   591.34         55.1513
   591.48         55.1603
   591.62         55.1374
   591.76         55.0893
   591.90         55.0177
   592.04         54.9196
   592.18         54.7921
   592.32         54.6364
   592.46         54.4587
   592.60         54.2681
   592.74         54.0761
   592.88         53.8924
   593.02         53.7200
   593.16         53.5553
   593.30         53.3897
   593.44         53.2172
   593.58         53.0358
   593.72         52.8448
   593.86         52.6475
   594.00         52.4504
   594.14         52.2612
   594.28         52.0840
   594.42         51.9193
   594.56         51.7689
   594.70         51.6395
   594.84         51.5422
   594.98         51.4883
   595.12         51.4843
   595.26         51.5304
   595.40         51.6236
   595.54         51.7581
   595.68         51.9276
   595.82         52.1288
   595.96         52.3561
   596.10         52.5941
   596.24         52.8199
   596.38         53.0124
   596.52         53.1559
   596.66         53.2401
   596.80         53.2627
   596.94         53.2273
   597.08         53.1434
   597.22         53.0274
   597.36         52.8970
   597.50         52.7663
   597.64         52.6462
   597.78         52.5442
   597.92         52.4629
   598.06         52.4017
   598.20         52.3597
   598.34         52.3350
   598.48         52.3189
   598.62         52.2947
   598.76         52.2472
   598.90         52.1759
   599.04         52.0896
   599.18         51.9969
   599.32         51.9044
   599.46         51.8156
   599.60         51.7308
   599.74         51.6507
   599.88         51.5756
   600.02         51.5034
   600.16         51.4319
   600.30         51.3645
   600.44         51.3050
   600.58         51.2523
   600.72         51.2068
   600.86         51.1712
   601.00         51.1449
   601.14         51.1223
   601.28         51.0945
   601.42         51.0584
   601.56         51.0195
   601.70         50.9832
   601.84         50.9486
   601.98         50.9101
   602.12         50.8638
   602.26         50.8100
   602.40         50.7522
   602.54         50.6949
   602.68         50.6426
   602.82         50.5994
   602.96         50.5644
   603.10         50.5318
   603.24         50.4967
   603.38         50.4565
   603.52         50.4094
   603.66         50.3551
   603.80         50.2986
   603.94         50.2483
   604.08         50.2136
   604.22         50.1974
   604.36         50.1928
   604.50         50.1903
   604.64         50.1858
   604.78         50.1809
   604.92         50.1770
   605.06         50.1754
   605.20         50.1772
   605.34         50.1817
   605.48         50.1878
   605.62         50.1953
   605.76         50.2092
   605.90         50.2344
   606.04         50.2698
   606.18         50.3129
   606.32         50.3615
   606.46         50.4127
   606.60         50.4601
   606.74         50.4958
   606.88         50.5135
   607.02         50.5098
   607.16         50.4850
   607.30         50.4414
   607.44         50.3812
   607.58         50.3067
   607.72         50.2237
   607.86         50.1396
   608.00         50.0582
   608.14         49.9767
   608.28         49.8883
   608.42         49.7873
   608.56         49.6719
   608.70         49.5466
   608.84         49.4192
   608.98         49.2987
   609.12         49.1941
   609.26         49.1127
   609.40         49.0601
   609.54         49.0406
   609.68         49.0550
   609.82         49.1013
   609.96         49.1758
   610.10         49.2731
   610.24         49.3842
   610.38         49.4971
   610.52         49.5978
   610.66         49.6732
   610.80         49.7165
   610.94         49.7296
   611.08         49.7217
   611.22         49.7042
   611.36         49.6853
   611.50         49.6673
   611.64         49.6502
   611.78         49.6339
   611.92         49.6187
   612.06         49.6031
   612.20         49.5849
   612.34         49.5616
   612.48         49.5297
   612.62         49.4860
   612.76         49.4284
   612.90         49.3539
   613.04         49.2625
   613.18         49.1592
   613.32         49.0529
   613.46         48.9515
   613.60         48.8617
   613.74         48.7894
   613.88         48.7369
   614.02         48.7028
   614.16         48.6849
   614.30         48.6817
   614.44         48.6905
   614.58         48.7064
   614.72         48.7240
   614.86         48.7408
   615.00         48.7556
   615.14         48.7662
   615.28         48.7708
   615.42         48.7695
   615.56         48.7606
   615.70         48.7418
   615.84         48.7122
   615.98         48.6704
   616.12         48.6129
   616.26         48.5371
   616.40         48.4420
   616.54         48.3263
   616.68         48.1927
   616.82         48.0489
   616.96         47.9040
   617.10         47.7675
   617.24         47.6458
   617.38         47.5418
   617.52         47.4551
   617.66         47.3817
   617.80         47.3172
   617.94         47.2586
   618.08         47.2052
   618.22         47.1547
   618.36         47.1056
   618.50         47.0599
   618.64         47.0215
   618.78         46.9952
   618.92         46.9852
   619.06         46.9947
   619.20         47.0233
   619.34         47.0692
   619.48         47.1305
   619.62         47.2030
   619.76         47.2801
   619.90         47.3557
   620.04         47.4286
   620.18         47.5006
   620.32         47.5741
   620.46         47.6496
   620.60         47.7231
   620.74         47.7879
   620.88         47.8370
   621.02         47.8663
   621.16         47.8733
   621.30         47.8561
   621.44         47.8151
   621.58         47.7541
   621.72         47.6787
   621.86         47.5938
   622.00         47.5046
   622.14         47.4164
   622.28         47.3306
   622.42         47.2467
   622.56         47.1646
   622.70         47.0838
   622.84         47.0064
   622.98         46.9369
   623.12         46.8773
   623.26         46.8279
   623.40         46.7886
   623.54         46.7594
   623.68         46.7397
   623.82         46.7273
   623.96         46.7210
   624.10         46.7218
   624.24         46.7325
   624.38         46.7554
   624.52         46.7901
   624.66         46.8354
   624.80         46.8901
   624.94         46.9516
   625.08         47.0160
   625.22         47.0773
   625.36         47.1276
   625.50         47.1592
   625.64         47.1628
   625.78         47.1292
   625.92         47.0526
   626.06         46.9338
   626.20         46.7793
   626.34         46.5977
   626.48         46.3969
   626.62         46.1812
   626.76         45.9503
   626.90         45.6978
   627.04         45.4138
   627.18         45.0882
   627.32         44.7187
   627.46         44.3143
   627.60         43.8946
   627.74         43.4866
   627.88         43.1212
   628.02         42.8297
   628.16         42.6381
   628.30         42.5641
   628.44         42.6152
   628.58         42.7852
   628.72         43.0552
   628.86         43.3954
   629.00         43.7679
   629.14         44.1332
   629.28         44.4577
   629.42         44.7194
   629.56         44.9096
   629.70         45.0300
   629.84         45.0902
   629.98         45.1052
   630.12         45.0938
   630.26         45.0731
   630.40         45.0538
   630.54         45.0411
   630.68         45.0351
   630.82         45.0310
   630.96         45.0216
   631.10         45.0010
   631.24         44.9674
   631.38         44.9250
   631.52         44.8821
   631.66         44.8461
   631.80         44.8218
   631.94         44.8124
   632.08         44.8173
   632.22         44.8317
   632.36         44.8493
   632.50         44.8623
   632.64         44.8634
   632.78         44.8495
   632.92         44.8192
   633.06         44.7686
   633.20         44.6915
   633.34         44.5802
   633.48         44.4299
   633.62         44.2461
   633.76         44.0455
   633.90         43.8490
   634.04         43.6747
   634.18         43.5353
   634.32         43.4388
   634.46         43.3899
   634.60         43.3895
   634.74         43.4349
   634.88         43.5211
   635.02         43.6397
   635.16         43.7789
   635.30         43.9279
   635.44         44.0777
   635.58         44.2156
   635.72         44.3234
   635.86         44.3812
   636.00         44.3749
   636.14         44.3053
   636.28         44.1868
   636.42         44.0361
   636.56         43.8656
   636.70         43.6831
   636.84         43.4961
   636.98         43.3135
   637.12         43.1445
   637.26         42.9994
   637.40         42.8896
   637.54         42.8248
   637.68         42.8082
   637.82         42.8392
   637.96         42.9165
   638.10         43.0345
   638.24         43.1815
   638.38         43.3426
   638.52         43.5053
   638.66         43.6632
   638.80         43.8140
   638.94         43.9521
   639.08         44.0686
   639.22         44.1567
   639.36         44.2154
   639.50         44.2478
   639.64         44.2581
   639.78         44.2506
   639.92         44.2294
   640.06         44.1978
   640.20         44.1581
   640.34         44.1145
   640.48         44.0735
   640.62         44.0407
   640.76         44.0180
   640.90         44.0035
   641.04         43.9951
   641.18         43.9930
   641.32         43.9987
   641.46         44.0131
   641.60         44.0375
   641.74         44.0718
   641.88         44.1133
   642.02         44.1562
   642.16         44.1925
   642.30         44.2162
   642.44         44.2259
   642.58         44.2228
   642.72         44.2081
   642.86         44.1843
   643.00         44.1524
   643.14         44.1110
   643.28         44.0581
   643.42         43.9928
   643.56         43.9163
   643.70         43.8305
   643.84         43.7377
   643.98         43.6410
   644.12         43.5422
   644.26         43.4411
   644.40         43.3360
   644.54         43.2275
   644.68         43.1181
   644.82         43.0130
   644.96         42.9173
   645.10         42.8340
   645.24         42.7631
   645.38         42.7056
   645.52         42.6640
   645.66         42.6377
   645.80         42.6242
   645.94         42.6202
   646.08         42.6218
   646.22         42.6253
   646.36         42.6271
   646.50         42.6243
   646.64         42.6142
   646.78         42.5957
   646.92         42.5731
   647.06         42.5558
   647.20         42.5522
   647.34         42.5653
   647.48         42.5923
   647.62         42.6282
   647.76         42.6688
   647.90         42.7107
   648.04         42.7497
   648.18         42.7811
   648.32         42.8011
   648.46         42.8093
   648.60         42.8087
   648.74         42.8041
   648.88         42.8021
   649.02         42.8094
   649.16         42.8304
   649.30         42.8669
   649.44         42.9174
   649.58         42.9769
   649.72         43.0381
   649.86         43.0929
   650.00         43.1366
   650.14         43.1691
   650.28         43.1944
   650.42         43.2159
   650.56         43.2362
   650.70         43.2575
   650.84         43.2819
   650.98         43.3103
   651.12         43.3430
   651.26         43.3810
   651.40         43.4272
   651.54         43.4848
   651.68         43.5542
   651.82         43.6323
   651.96         43.7135
   652.10         43.7936
   652.24         43.8696
   652.38         43.9383
   652.52         43.9942
   652.66         44.0300
   652.80         44.0392
   652.94         44.0170
   653.08         43.9617
   653.22         43.8740
   653.36         43.7567
   653.50         43.6165
   653.64         43.4640
   653.78         43.3118
   653.92         43.1735
   654.06         43.0578
   654.20         42.9640
   654.34         42.8826
   654.48         42.7986
   654.62         42.6948
   654.76         42.5507
   654.90         42.3413
   655.04         42.0420
   655.18         41.6389
   655.32         41.1371
   655.46         40.5630
   655.60         39.9569
   655.74         39.3662
   655.88         38.8387
   656.02         38.4181
   656.16         38.1404
   656.30         38.0272
   656.44         38.0790
   656.58         38.2751
   656.72         38.5788
   656.86         38.9463
   657.00         39.3324
   657.14         39.6946
   657.28         39.9989
   657.42         40.2239
   657.56         40.3641
   657.70         40.4324
   657.84         40.4548
   657.98         40.4607
   658.12         40.4735
   658.26         40.5063
   658.40         40.5645
   658.54         40.6466
   658.68         40.7458
   658.82         40.8526
   658.96         40.9559
   659.10         41.0441
   659.24         41.1092
   659.38         41.1486
   659.52         41.1632
   659.66         41.1552
   659.80         41.1283
   659.94         41.0865
   660.08         41.0310
   660.22         40.9600
   660.36         40.8728
   660.50         40.7719
   660.64         40.6633
   660.78         40.5531
   660.92         40.4472
   661.06         40.3509
   661.20         40.2675
   661.34         40.1993
   661.48         40.1484
   661.62         40.1156
   661.76         40.1011
   661.90         40.1038
   662.04         40.1216
   662.18         40.1508
   662.32         40.1856
   662.46         40.2189
   662.60         40.2443
   662.74         40.2571
   662.88         40.2555
   663.02         40.2414
   663.16         40.2177
   663.30         40.1861
   663.44         40.1469
   663.58         40.1025
   663.72         40.0580
   663.86         40.0186
   664.00         39.9880
   664.14         39.9686
   664.28         39.9609
   664.42         39.9641
   664.56         39.9730
   664.70         39.9801
   664.84         39.9797
   664.98         39.9689
   665.12         39.9478
   665.26         39.9173
   665.40         39.8779
   665.54         39.8306
   665.68         39.7769
   665.82         39.7192
   665.96         39.6595
   666.10         39.5977
   666.24         39.5296
   666.38         39.4432
   666.52         39.3178
   666.66         39.1363
   666.80         38.8940
   666.94         38.6033
   667.08         38.2876
   667.22         37.9727
   667.36         37.6839
   667.50         37.4437
   667.64         37.2698
   667.78         37.1739
   667.92         37.1601
   668.06         37.2264
   668.20         37.3674
   668.34         37.5713
   668.48         37.8194
   668.62         38.0865
   668.76         38.3429
   668.90         38.5616
   669.04         38.7239
   669.18         38.8261
   669.32         38.8796
   669.46         38.9021
   669.60         38.9087
   669.74         38.9058
   669.88         38.8929
   670.02         38.8696
   670.16         38.8385
   670.30         38.8046
   670.44         38.7726
   670.58         38.7449
   670.72         38.7210
   670.86         38.6985
   671.00         38.6750
   671.14         38.6471
   671.28         38.6107
   671.42         38.5621
   671.56         38.5001
   671.70         38.4281
   671.84         38.3519
   671.98         38.2774
   672.12         38.2104
   672.26         38.1558
   672.40         38.1155
   672.54         38.0886
   672.68         38.0751
   672.82         38.0757
   672.96         38.0896
   673.10         38.1138
   673.24         38.1432
   673.38         38.1727
   673.52         38.1990
   673.66         38.2192
   673.80         38.2308
   673.94         38.2318
   674.08         38.2221
   674.22         38.2030
   674.36         38.1757
   674.50         38.1397
   674.64         38.0932
   674.78         38.0331
   674.92         37.9572
   675.06         37.8670
   675.20         37.7697
   675.34         37.6755
   675.48         37.5921
   675.62         37.5235
   675.76         37.4719
   675.90         37.4403
   676.04         37.4323
   676.18         37.4499
   676.32         37.4906
   676.46         37.5467
   676.60         37.6059
   676.74         37.6557
   676.88         37.6878
   677.02         37.6988
   677.16         37.6898
   677.30         37.6642
   677.44         37.6271
   677.58         37.5853
   677.72         37.5457
   677.86         37.5137
   678.00         37.4913
   678.14         37.4759
   678.28         37.4649
   678.42         37.4574
   678.56         37.4543
   678.70         37.4557
   678.84         37.4588
   678.98         37.4586
   679.12         37.4503
   679.26         37.4304
   679.40         37.3983
   679.54         37.3570
   679.68         37.3123
   679.82         37.2703
   679.96         37.2349
   680.10         37.2074
   680.24         37.1878
   680.38         37.1751
   680.52         37.1683
   680.66         37.1645
   680.80         37.1594
   680.94         37.1515
   681.08         37.1408
   681.22         37.1255
   681.36         37.1015
   681.50         37.0639
   681.64         37.0115
   681.78         36.9460
   681.92         36.8711
   682.06         36.7937
   682.20         36.7204
   682.34         36.6536
   682.48         36.5913
   682.62         36.5320
   682.76         36.4771
   682.90         36.4292
   683.04         36.3890
   683.18         36.3566
   683.32         36.3307
   683.46         36.3082
   683.60         36.2856
   683.74         36.2614
   683.88         36.2375
   684.02         36.2176
   684.16         36.2048
   684.30         36.2007
   684.44         36.2058
   684.58         36.2194
   684.72         36.2383
   684.86         36.2571
   685.00         36.2722
   685.14         36.2822
   685.28         36.2852
   685.42         36.2706
   685.56         36.2110
   685.70         36.0665
   685.84         35.8004
   685.98         35.3894
   686.12         34.8269
   686.26         34.1259
   686.40         33.3180
   686.54         32.4471
   686.68         31.5640
   686.82         30.7273
   686.96         29.9997
   687.10         29.4369
   687.24         29.0763
   687.38         28.9309
   687.52         28.9919
   687.66         29.2303
   687.80         29.5969
   687.94         30.0299
   688.08         30.4638
   688.22         30.8413
   688.36         31.1284
   688.50         31.3175
   688.64         31.4206
   688.78         31.4581
   688.92         31.4536
   689.06         31.4327
   689.20         31.4187
   689.34         31.4295
   689.48         31.4770
   689.62         31.5637
   689.76         31.6821
   689.90         31.8200
   690.04         31.9657
   690.18         32.1114
   690.32         32.2524
   690.46         32.3864
   690.60         32.5140
   690.74         32.6361
   690.88         32.7535
   691.02         32.8679
   691.16         32.9816
   691.30         33.0976
   691.44         33.2173
   691.58         33.3402
   691.72         33.4650
   691.86         33.5882
   692.00         33.7063
   692.14         33.8177
   692.28         33.9203
   692.42         34.0110
   692.56         34.0866
   692.70         34.1449
   692.84         34.1856
   692.98         34.2107
   693.12         34.2237
   693.26         34.2277
   693.40         34.2259
   693.54         34.2228
   693.68         34.2240
   693.82         34.2356
   693.96         34.2625
   694.10         34.3052
   694.24         34.3588
   694.38         34.4154
   694.52         34.4672
   694.66         34.5084
   694.80         34.5331
   694.94         34.5361
   695.08         34.5160
   695.22         34.4761
   695.36         34.4226
   695.50         34.3625
   695.64         34.3028
   695.78         34.2494
   695.92         34.2058
   696.06         34.1761
   696.20         34.1649
   696.34         34.1761
   696.48         34.2099
   696.62         34.2597
   696.76         34.3149
   696.90         34.3664
   697.04         34.4106
   697.18         34.4480
   697.32         34.4802
   697.46         34.5064
   697.60         34.5247
   697.74         34.5326
   697.88         34.5281
   698.02         34.5091
   698.16         34.4740
   698.30         34.4240
   698.44         34.3619
   698.58         34.2922
   698.72         34.2209
   698.86         34.1534
   699.00         34.0926
   699.14         34.0382
   699.28         33.9879
   699.42         33.9417
   699.56         33.9013
   699.70         33.8669
   699.84         33.8361
   699.98         33.8076
   700.12         33.7809
   700.26         33.7543
   700.40         33.7251
   700.54         33.6925
   700.68         33.6568
   700.82         33.6184
   700.96         33.5772
   701.10         33.5311
   701.24         33.4797
   701.38         33.4257
   701.52         33.3721
   701.66         33.3210
   701.80         33.2732
   701.94         33.2295
   702.08         33.1913
   702.22         33.1608
   702.36         33.1406
   702.50         33.1340
   702.64         33.1435
   702.78         33.1683
   702.92         33.2044
   703.06         33.2489
   703.20         33.3002
   703.34         33.3570
   703.48         33.4167
   703.62         33.4763
   703.76         33.5321
   703.90         33.5811
   704.04         33.6198
   704.18         33.6445
   704.32         33.6549
   704.46         33.6527
   704.60         33.6393
   704.74         33.6167
   704.88         33.5868
   705.02         33.5440
   705.16         33.4727
   705.30         33.3563
   705.44         33.1865
   705.58         32.9661
   705.72         32.7076
   705.86         32.4323
   706.00         32.1650
   706.14         31.9306
   706.28         31.7496
   706.42         31.6362
   706.56         31.5983
   706.70         31.6379
   706.84         31.7519
   706.98         31.9302
   707.12         32.1539
   707.26         32.3975
   707.40         32.6362
   707.54         32.8494
   707.68         33.0227
   707.82         33.1538
   707.96         33.2538
   708.10         33.3372
   708.24         33.4132
   708.38         33.4843
   708.52         33.5489
   708.66         33.6010
   708.80         33.6334
   708.94         33.6392
   709.08         33.6154
   709.22         33.5636
   709.36         33.4891
   709.50         33.3977
   709.64         33.2947
   709.78         33.1849
   709.92         33.0741
   710.06         32.9716
   710.20         32.8874
   710.34         32.8272
   710.48         32.7913
   710.62         32.7758
   710.76         32.7743
   710.90         32.7809
   711.04         32.7919
   711.18         32.8044
   711.32         32.8173
   711.46         32.8315
   711.60         32.8490
   711.74         32.8697
   711.88         32.8909
   712.02         32.9094
   712.16         32.9227
   712.30         32.9295
   712.44         32.9302
   712.58         32.9266
   712.72         32.9214
   712.86         32.9161
   713.00         32.9101
   713.14         32.9032
   713.28         32.8961
   713.42         32.8883
   713.56         32.8795
   713.70         32.8695
   713.84         32.8572
   713.98         32.8414
   714.12         32.8216
   714.26         32.7991
   714.40         32.7760
   714.54         32.7545
   714.68         32.7366
   714.82         32.7211
   714.96         32.7066
   715.10         32.6920
   715.24         32.6747
   715.38         32.6503
   715.52         32.6151
   715.66         32.5674
   715.80         32.5058
   715.94         32.4271
   716.08         32.3267
   716.22         32.2015
   716.36         32.0519
   716.50         31.8802
   716.64         31.6929
   716.78         31.5003
   716.92         31.3120
   717.06         31.1346
   717.20         30.9720
   717.34         30.8232
   717.48         30.6855
   717.62         30.5611
   717.76         30.4551
   717.90         30.3711
   718.04         30.3092
   718.18         30.2671
   718.32         30.2417
   718.46         30.2290
   718.60         30.2267
   718.74         30.2330
   718.88         30.2446
   719.02         30.2601
   719.16         30.2791
   719.30         30.3000
   719.44         30.3195
   719.58         30.3369
   719.72         30.3553
   719.86         30.3796
   720.00         30.4170
   720.14         30.4792
   720.28         30.5783
   720.42         30.7180
   720.56         30.8938
   720.70         31.0980
   720.84         31.3217
   720.98         31.5537
   721.12         31.7776
   721.26         31.9742
   721.40         32.1273
   721.54         32.2259
   721.68         32.2652
   721.82         32.2445
   721.96         32.1665
   722.10         32.0391
   722.24         31.8733
   722.38         31.6815
   722.52         31.4799
   722.66         31.2853
   722.80         31.1085
   722.94         30.9530
   723.08         30.8197
   723.22         30.7120
   723.36         30.6336
   723.50         30.5852
   723.64         30.5637
   723.78         30.5625
   723.92         30.5724
   724.06         30.5828
   724.20         30.5819
   724.34         30.5613
   724.48         30.5181
   724.62         30.4523
   724.76         30.3661
   724.90         30.2660
   725.04         30.1618
   725.18         30.0620
   725.32         29.9689
   725.46         29.8844
   725.60         29.8159
   725.74         29.7744
   725.88         29.7660
   726.02         29.7877
   726.16         29.8303
   726.30         29.8807
   726.44         29.9237
   726.58         29.9466
   726.72         29.9437
   726.86         29.9138
   727.00         29.8585
   727.14         29.7843
   727.28         29.7011
   727.42         29.6203
   727.56         29.5518
   727.70         29.5012
   727.84         29.4692
   727.98         29.4532
   728.12         29.4500
   728.26         29.4547
   728.40         29.4605
   728.54         29.4617
   728.68         29.4581
   728.82         29.4519
   728.96         29.4428
   729.10         29.4294
   729.24         29.4131
   729.38         29.3981
   729.52         29.3889
   729.66         29.3904
   729.80         29.4086
   729.94         29.4450
   730.08         29.4951
   730.22         29.5498
   730.36         29.5977
   730.50         29.6298
   730.64         29.6438
   730.78         29.6422
   730.92         29.6296
   731.06         29.6097
   731.20         29.5833
   731.34         29.5491
   731.48         29.5057
   731.62         29.4535
   731.76         29.3977
   731.90         29.3451
   732.04         29.3018
   732.18         29.2700
   732.32         29.2496
   732.46         29.2380
   732.60         29.2292
   732.74         29.2160
   732.88         29.1928
   733.02         29.1565
   733.16         29.1084
   733.30         29.0511
   733.44         28.9874
   733.58         28.9201
   733.72         28.8495
   733.86         28.7748
   734.00         28.6985
   734.14         28.6250
   734.28         28.5566
   734.42         28.4926
   734.56         28.4303
   734.70         28.3687
   734.84         28.3103
   734.98         28.2603
   735.12         28.2233
   735.26         28.1999
   735.40         28.1871
   735.54         28.1788
   735.68         28.1684
   735.82         28.1513
   735.96         28.1235
   736.10         28.0816
   736.24         28.0231
   736.38         27.9477
   736.52         27.8608
   736.66         27.7717
   736.80         27.6896
   736.94         27.6238
   737.08         27.5826
   737.22         27.5744
   737.36         27.6050
   737.50         27.6740
   737.64         27.7740
   737.78         27.8950
   737.92         28.0269
   738.06         28.1597
   738.20         28.2832
   738.34         28.3867
   738.48         28.4585
   738.62         28.4889
   738.76         28.4758
   738.90         28.4245
   739.04         28.3469
   739.18         28.2608
   739.32         28.1844
   739.46         28.1328
   739.60         28.1153
   739.74         28.1332
   739.88         28.1808
   740.02         28.2481
   740.16         28.3238
   740.30         28.3993
   740.44         28.4673
   740.58         28.5227
   740.72         28.5624
   740.86         28.5870
   741.00         28.6011
   741.14         28.6120
   741.28         28.6274
   741.42         28.6517
   741.56         28.6846
   741.70         28.7222
   741.84         28.7561
   741.98         28.7748
   742.12         28.7705
   742.26         28.7421
   742.40         28.6954
   742.54         28.6421
   742.68         28.5963
   742.82         28.5702
   742.96         28.5702
   743.10         28.5963
   743.24         28.6421
   743.38         28.6954
   743.52         28.7421
   743.66         28.7705
   743.80         28.7748
   743.94         28.7561
   744.08         28.7222
   744.22         28.6846
