# File SAO21536
# Wavelength [nm]    Normalized Amplitude
   349.70         38.8243
   349.84         38.9114
   349.98         38.9042
   350.12         38.8124
   350.26         38.6563
   350.40         38.4647
   350.54         38.2696
   350.68         38.0993
   350.82         37.9728
   350.96         37.8972
   351.10         37.8721
   351.24         37.8972
   351.38         37.9728
   351.52         38.0993
   351.66         38.2696
   351.80         38.4647
   351.94         38.6563
   352.08         38.8124
   352.22         38.9042
   352.36         38.9114
   352.50         38.8243
   352.64         38.6448
   352.78         38.3898
   352.92         38.0902
   353.06         37.7835
   353.20         37.5102
   353.34         37.3080
   353.48         37.2049
   353.62         37.2140
   353.76         37.3307
   353.90         37.5345
   354.04         37.7971
   354.18         38.0871
   354.32         38.3709
   354.46         38.6223
   354.60         38.8289
   354.74         38.9853
   354.88         39.0866
   355.02         39.1301
   355.16         39.1186
   355.30         39.0572
   355.44         38.9470
   355.58         38.7835
   355.72         38.5609
   355.86         38.2770
   356.00         37.9339
   356.14         37.5409
   356.28         37.1165
   356.42         36.6846
   356.56         36.2691
   356.70         35.8912
   356.84         35.5687
   356.98         35.3137
   357.12         35.1265
   357.26         34.9869
   357.40         34.8609
   357.54         34.7204
   357.68         34.5545
   357.82         34.3628
   357.96         34.1489
   358.10         33.9292
   358.24         33.7363
   358.38         33.6063
   358.52         33.5669
   358.66         33.6326
   358.80         33.8013
   358.94         34.0549
   359.08         34.3666
   359.22         34.7112
   359.36         35.0707
   359.50         35.4314
   359.64         35.7723
   359.78         36.0604
   359.92         36.2635
   360.06         36.3656
   360.20         36.3679
   360.34         36.2798
   360.48         36.1147
   360.62         35.8909
   360.76         35.6339
   360.90         35.3696
   361.04         35.1181
   361.18         34.8983
   361.32         34.7307
   361.46         34.6342
   361.60         34.6255
   361.74         34.7130
   361.88         34.8869
   362.02         35.1181
   362.16         35.3651
   362.30         35.5872
   362.44         35.7572
   362.58         35.8659
   362.72         35.9156
   362.86         35.9203
   363.00         35.9050
   363.14         35.8924
   363.28         35.9020
   363.42         35.9585
   363.56         36.0820
   363.70         36.2758
   363.84         36.5319
   363.98         36.8327
   364.12         37.1494
   364.26         37.4546
   364.40         37.7276
   364.54         37.9538
   364.68         38.1316
   364.82         38.2710
   364.96         38.3842
   365.10         38.4787
   365.24         38.5576
   365.38         38.6222
   365.52         38.6799
   365.66         38.7392
   365.80         38.8019
   365.94         38.8728
   366.08         38.9606
   366.22         39.0648
   366.36         39.1783
   366.50         39.2993
   366.64         39.4301
   366.78         39.5753
   366.92         39.7436
   367.06         39.9366
   367.20         40.1442
   367.34         40.3512
   367.48         40.5438
   367.62         40.7230
   367.76         40.9099
   367.90         41.1337
   368.04         41.4170
   368.18         41.7779
   368.32         42.2306
   368.46         42.7819
   368.60         43.4369
   368.74         44.1998
   368.88         45.0660
   369.02         46.0173
   369.16         47.0133
   369.30         47.9914
   369.44         48.8902
   369.58         49.6706
   369.72         50.3087
   369.86         50.7884
   370.00         51.1125
   370.14         51.3125
   370.28         51.4491
   370.42         51.6019
   370.56         51.8497
   370.70         52.2447
   370.84         52.7926
   370.98         53.4554
   371.12         54.1742
   371.26         54.8990
   371.40         55.5971
   371.54         56.2427
   371.68         56.8098
   371.82         57.2769
   371.96         57.6304
   372.10         57.8592
   372.24         57.9450
   372.38         57.8717
   372.52         57.6624
   372.66         57.3973
   372.80         57.1952
   372.94         57.1798
   373.08         57.4368
   373.22         57.9774
   373.36         58.7342
   373.50         59.5924
   373.64         60.4272
   373.78         61.1258
   373.92         61.5974
   374.06         61.7875
   374.20         61.6933
   374.34         61.3609
   374.48         60.8657
   374.62         60.2982
   374.76         59.7680
   374.90         59.4090
   375.04         59.3671
   375.18         59.7617
   375.32         60.6323
   375.46         61.9044
   375.60         63.3935
   375.74         64.8480
   375.88         66.0208
   376.02         66.7373
   376.16         66.9344
   376.30         66.6680
   376.44         66.0988
   376.58         65.4666
   376.72         65.0508
   376.86         65.1065
   377.00         65.8023
   377.14         67.2056
   377.28         69.2916
   377.42         71.9528
   377.56         75.0126
   377.70         78.2422
   377.84         81.3771
   377.98         84.1358
   378.12         86.2474
   378.26         87.4897
   378.40         87.7277
   378.54         86.9402
   378.68         85.2353
   378.82         82.8390
   378.96         80.0593
   379.10         77.2440
   379.24         74.7337
   379.38         72.8221
   379.52         71.7267
   379.66         71.5851
   379.80         72.4518
   379.94         74.2767
   380.08         76.9056
   380.22         80.1155
   380.36         83.6542
   380.50         87.2636
   380.64         90.6950
   380.78         93.7330
   380.92         96.2261
   381.06         98.0990
   381.20         99.3423
   381.34         99.9945
   381.48         100.1109
   381.62         99.7302
   381.76         98.8610
   381.90         97.4862
   382.04         95.5790
   382.18         93.1238
   382.32         90.1415
   382.46         86.7051
   382.60         82.9533
   382.74         79.1087
   382.88         75.4685
   383.02         72.3536
   383.16         70.0480
   383.30         68.7610
   383.44         68.6030
   383.58         69.5679
   383.72         71.5453
   383.86         74.3620
   384.00         77.8117
   384.14         81.6571
   384.28         85.6329
   384.42         89.4678
   384.56         92.9244
   384.70         95.8481
   384.84         98.1955
   384.98         100.0173
   385.12         101.4139
   385.26         102.5006
   385.40         103.3899
   385.54         104.1752
   385.68         104.9097
   385.82         105.5946
   385.96         106.1946
   386.10         106.6699
   386.24         106.9934
   386.38         107.1492
   386.52         107.1224
   386.66         106.8804
   386.80         106.3719
   386.94         105.5355
   387.08         104.3088
   387.22         102.6413
   387.36         100.4983
   387.50         97.8573
   387.64         94.7239
   387.78         91.1600
   387.92         87.2980
   388.06         83.3290
   388.20         79.4752
   388.34         75.9692
   388.48         73.0376
   388.62         70.8876
   388.76         69.6860
   388.90         69.5189
   389.04         70.3727
   389.18         72.1430
   389.32         74.6500
   389.46         77.6652
   389.60         80.9458
   389.74         84.2621
   389.88         87.4149
   390.02         90.2465
   390.16         92.6506
   390.30         94.5805
   390.44         96.0358
   390.58         97.0407
   390.72         97.6369
   390.86         97.8814
   391.00         97.8440
   391.14         97.5846
   391.28         97.1268
   391.42         96.4477
   391.56         95.4695
   391.70         94.0651
   391.84         92.0829
   391.98         89.3939
   392.12         85.9387
   392.26         81.7547
   392.40         76.9849
   392.54         71.8762
   392.68         66.7634
   392.82         62.0360
   392.96         58.0904
   393.10         55.2769
   393.24         53.8535
   393.38         53.9462
   393.52         55.5236
   393.66         58.3980
   393.80         62.2481
   393.94         66.6733
   394.08         71.2635
   394.22         75.6435
   394.36         79.5025
   394.50         82.6335
   394.64         84.9526
   394.78         86.4698
   394.92         87.2349
   395.06         87.2937
   395.20         86.6590
   395.34         85.2991
   395.48         83.1595
   395.62         80.2074
   395.76         76.4784
   395.90         72.1043
   396.04         67.3185
   396.18         62.4457
   396.32         57.8735
   396.46         54.0036
   396.60         51.2022
   396.74         49.7487
   396.88         49.7923
   397.02         51.3446
   397.16         54.2961
   397.30         58.4208
   397.44         63.3881
   397.58         68.8098
   397.72         74.3002
   397.86         79.5220
   398.00         84.2207
   398.14         88.2456
   398.28         91.5439
   398.42         94.1371
   398.56         96.0969
   398.70         97.5296
   398.84         98.5534
   398.98         99.2706
   399.12         99.7544
   399.26         100.0596
   399.40         100.2377
   399.54         100.3437
   399.68         100.4417
   399.82         100.5952
   399.96         100.8458
   400.10         101.2116
   400.24         101.6998
   400.38         102.3114
   400.52         103.0394
   400.66         103.8644
   400.80         104.7478
   400.94         105.6336
   401.08         106.4600
   401.22         107.1740
   401.36         107.7395
   401.50         108.1253
   401.64         108.2933
   401.78         108.2105
   401.92         107.8691
   402.06         107.2894
   402.20         106.5138
   402.34         105.6060
   402.48         104.6502
   402.62         103.7408
   402.76         102.9684
   402.90         102.4100
   403.04         102.1122
   403.18         102.0801
   403.32         102.2789
   403.46         102.6504
   403.60         103.1352
   403.74         103.6821
   403.88         104.2423
   404.02         104.7590
   404.16         105.1628
   404.30         105.3919
   404.44         105.4284
   404.58         105.3057
   404.72         105.0840
   404.86         104.8222
   405.00         104.5614
   405.14         104.3227
   405.28         104.1114
   405.42         103.9272
   405.56         103.7721
   405.70         103.6451
   405.84         103.5383
   405.98         103.4406
   406.12         103.3358
   406.26         103.1868
   406.40         102.9327
   406.54         102.5172
   406.68         101.9262
   406.82         101.1974
   406.96         100.4009
   407.10         99.6094
   407.24         98.8761
   407.38         98.2339
   407.52         97.7073
   407.66         97.3201
   407.80         97.0908
   407.94         97.0179
   408.08         97.0642
   408.22         97.1512
   408.36         97.1637
   408.50         96.9603
   408.64         96.3905
   408.78         95.3117
   408.92         93.6218
   409.06         91.3071
   409.20         88.4699
   409.34         85.3059
   409.48         82.0524
   409.62         78.9505
   409.76         76.2287
   409.90         74.0972
   410.04         72.7334
   410.18         72.2610
   410.32         72.7275
   410.46         74.0858
   410.60         76.1965
   410.74         78.8557
   410.88         81.8262
   411.02         84.8635
   411.16         87.7427
   411.30         90.2826
   411.44         92.3613
   411.58         93.9249
   411.72         94.9843
   411.86         95.5985
   412.00         95.8492
   412.14         95.8263
   412.28         95.6317
   412.42         95.3795
   412.56         95.1863
   412.70         95.1543
   412.84         95.3475
   412.98         95.7724
   413.12         96.3854
   413.26         97.1254
   413.40         97.9342
   413.54         98.7503
   413.68         99.5056
   413.82         100.1359
   413.96         100.5895
   414.10         100.8318
   414.24         100.8564
   414.38         100.6928
   414.52         100.3978
   414.66         100.0359
   414.80         99.6649
   414.94         99.3309
   415.08         99.0664
   415.22         98.8903
   415.36         98.8092
   415.50         98.8146
   415.64         98.8806
   415.78         98.9697
   415.92         99.0272
   416.06         98.9824
   416.20         98.7667
   416.34         98.3328
   416.48         97.6587
   416.62         96.7493
   416.76         95.6486
   416.90         94.4410
   417.04         93.2275
   417.18         92.1020
   417.32         91.1449
   417.46         90.4210
   417.60         89.9791
   417.74         89.8488
   417.88         90.0324
   418.02         90.5019
   418.16         91.1949
   418.30         92.0163
   418.44         92.8553
   418.58         93.6137
   418.72         94.2287
   418.86         94.6719
   419.00         94.9315
   419.14         95.0050
   419.28         94.9088
   419.42         94.6848
   419.56         94.3882
   419.70         94.0728
   419.84         93.7966
   419.98         93.6223
   420.12         93.6006
   420.26         93.7563
   420.40         94.0874
   420.54         94.5688
   420.68         95.1564
   420.82         95.7951
   420.96         96.4222
   421.10         96.9726
   421.24         97.3828
   421.38         97.5932
   421.52         97.5727
   421.66         97.3368
   421.80         96.9350
   421.94         96.4256
   422.08         95.8592
   422.22         95.2761
   422.36         94.7104
   422.50         94.1940
   422.64         93.7551
   422.78         93.4157
   422.92         93.1944
   423.06         93.1037
   423.20         93.1373
   423.34         93.2645
   423.48         93.4384
   423.62         93.6067
   423.76         93.7267
   423.90         93.7792
   424.04         93.7776
   424.18         93.7643
   424.32         93.7786
   424.46         93.8281
   424.60         93.8940
   424.74         93.9569
   424.88         94.0149
   425.02         94.0839
   425.16         94.1866
   425.30         94.3423
   425.44         94.5577
   425.58         94.8171
   425.72         95.0805
   425.86         95.2972
   426.00         95.4268
   426.14         95.4489
   426.28         95.3655
   426.42         95.2012
   426.56         94.9974
   426.70         94.7984
   426.84         94.6364
   426.98         94.5235
   427.12         94.4568
   427.26         94.4322
   427.40         94.4468
   427.54         94.4883
   427.68         94.5312
   427.82         94.5421
   427.96         94.4876
   428.10         94.3402
   428.24         94.0795
   428.38         93.6952
   428.52         93.1913
   428.66         92.5793
   428.80         91.8718
   428.94         91.0861
   429.08         90.2471
   429.22         89.3850
   429.36         88.5312
   429.50         87.7189
   429.64         86.9872
   429.78         86.3787
   429.92         85.9239
   430.06         85.6292
   430.20         85.4899
   430.34         85.5072
   430.48         85.6831
   430.62         86.0025
   430.76         86.4250
   430.90         86.8946
   431.04         87.3555
   431.18         87.7595
   431.32         88.0711
   431.46         88.2758
   431.60         88.3798
   431.74         88.3965
   431.88         88.3323
   432.02         88.1767
   432.16         87.8951
   432.30         87.4284
   432.44         86.6897
   432.58         85.5747
   432.72         83.9999
   432.86         81.9410
   433.00         79.4475
   433.14         76.6366
   433.28         73.6832
   433.42         70.8045
   433.56         68.2334
   433.70         66.1771
   433.84         64.7913
   433.98         64.1797
   434.12         64.3967
   434.26         65.4403
   434.40         67.2404
   434.54         69.6585
   434.68         72.4998
   434.82         75.5460
   434.96         78.5893
   435.10         81.4581
   435.24         84.0398
   435.38         86.2830
   435.52         88.1794
   435.66         89.7444
   435.80         91.0027
   435.94         91.9765
   436.08         92.6766
   436.22         93.1091
   436.36         93.2958
   436.50         93.2905
   436.64         93.1766
   436.78         93.0368
   436.92         92.9160
   437.06         92.8088
   437.20         92.6810
   437.34         92.5030
   437.48         92.2651
   437.62         91.9664
   437.76         91.6058
   437.90         91.1805
   438.04         90.6839
   438.18         90.1162
   438.32         89.4954
   438.46         88.8530
   438.60         88.2179
   438.74         87.6168
   438.88         87.0870
   439.02         86.6706
   439.16         86.3924
   439.30         86.2513
   439.44         86.2205
   439.58         86.2637
   439.72         86.3587
   439.86         86.5031
   440.00         86.6936
   440.14         86.9022
   440.28         87.0708
   440.42         87.1301
   440.56         87.0308
   440.70         86.7609
   440.84         86.3443
   440.98         85.8281
   441.12         85.2686
   441.26         84.7239
   441.40         84.2539
   441.54         83.9126
   441.68         83.7303
   441.82         83.7039
   441.96         83.8017
   442.10         83.9783
   442.24         84.1905
   442.38         84.4085
   442.52         84.6123
   442.66         84.7813
   442.80         84.8918
   442.94         84.9220
   443.08         84.8691
   443.22         84.7593
   443.36         84.6341
   443.50         84.5326
   443.64         84.4795
   443.78         84.4890
   443.92         84.5721
   444.06         84.7315
   444.20         84.9539
   444.34         85.2122
   444.48         85.4743
   444.62         85.7107
   444.76         85.9002
   444.90         86.0292
   445.04         86.0870
   445.18         86.0581
   445.32         85.9221
   445.46         85.6624
   445.60         85.2843
   445.74         84.8305
   445.88         84.3729
   446.02         83.9875
   446.16         83.7336
   446.30         83.6523
   446.44         83.7737
   446.58         84.1028
   446.72         84.6009
   446.86         85.1979
   447.00         85.8260
   447.14         86.4319
   447.28         86.9756
   447.42         87.4244
   447.56         87.7477
   447.70         87.9212
   447.84         87.9345
   447.98         87.7951
   448.12         87.5302
   448.26         87.1950
   448.40         86.8735
   448.54         86.6544
   448.68         86.6005
   448.82         86.7374
   448.96         87.0659
   449.10         87.5673
   449.24         88.2014
   449.38         88.9144
   449.52         89.6595
   449.66         90.4062
   449.80         91.1296
   449.94         91.7999
   450.08         92.3765
   450.22         92.8191
   450.36         93.1046
   450.50         93.2294
   450.64         93.2011
   450.78         93.0334
   450.92         92.7458
   451.06         92.3602
   451.20         91.8935
   451.34         91.3553
   451.48         90.7514
   451.62         90.0930
   451.76         89.3985
   451.90         88.6894
   452.04         87.9887
   452.18         87.3305
   452.32         86.7628
   452.46         86.3331
   452.60         86.0685
   452.74         85.9657
   452.88         86.0040
   453.02         86.1569
   453.16         86.3934
   453.30         86.6759
   453.44         86.9566
   453.58         87.1821
   453.72         87.3064
   453.86         87.3007
   454.00         87.1483
   454.14         86.8460
   454.28         86.4157
   454.42         85.9036
   454.56         85.3667
   454.70         84.8692
   454.84         84.4770
   454.98         84.2396
   455.12         84.1751
   455.26         84.2754
   455.40         84.5242
   455.54         84.9042
   455.68         85.3888
   455.82         85.9326
   455.96         86.4776
   456.10         86.9707
   456.24         87.3769
   456.38         87.6777
   456.52         87.8636
   456.66         87.9292
   456.80         87.8732
   456.94         87.6994
   457.08         87.4187
   457.22         87.0528
   457.36         86.6290
   457.50         86.1699
   457.64         85.6973
   457.78         85.2449
   457.92         84.8549
   458.06         84.5637
   458.20         84.3919
   458.34         84.3466
   458.48         84.4302
   458.62         84.6440
   458.76         84.9846
   458.90         85.4326
   459.04         85.9511
   459.18         86.4958
   459.32         87.0241
   459.46         87.5070
   459.60         87.9383
   459.74         88.3313
   459.88         88.7040
   460.02         89.0627
   460.16         89.3976
   460.30         89.6886
   460.44         89.9077
   460.58         90.0238
   460.72         90.0174
   460.86         89.8881
   461.00         89.6521
   461.14         89.3352
   461.28         88.9660
   461.42         88.5693
   461.56         88.1651
   461.70         87.7764
   461.84         87.4288
   461.98         87.1423
   462.12         86.9276
   462.26         86.7830
   462.40         86.6994
   462.54         86.6700
   462.68         86.6904
   462.82         86.7567
   462.96         86.8678
   463.10         87.0228
   463.24         87.2194
   463.38         87.4548
   463.52         87.7203
   463.66         87.9982
   463.80         88.2657
   463.94         88.4963
   464.08         88.6626
   464.22         88.7452
   464.36         88.7388
   464.50         88.6515
   464.64         88.5027
   464.78         88.3180
   464.92         88.1225
   465.06         87.9346
   465.20         87.7583
   465.34         87.5758
   465.48         87.3527
   465.62         87.0576
   465.76         86.6807
   465.90         86.2416
   466.04         85.7856
   466.18         85.3712
   466.32         85.0578
   466.46         84.8915
   466.60         84.9004
   466.74         85.0952
   466.88         85.4730
   467.02         86.0185
   467.16         86.7008
   467.30         87.4667
   467.44         88.2460
   467.58         88.9695
   467.72         89.5847
   467.86         90.0528
   468.00         90.3479
   468.14         90.4688
   468.28         90.4437
   468.42         90.3153
   468.56         90.1236
   468.70         89.8980
   468.84         89.6531
   468.98         89.3876
   469.12         89.0940
   469.26         88.7674
   469.40         88.4051
   469.54         88.0083
   469.68         87.5888
   469.82         87.1680
   469.96         86.7666
   470.10         86.4016
   470.24         86.0933
   470.38         85.8655
   470.52         85.7339
   470.66         85.7044
   470.80         85.7777
   470.94         85.9512
   471.08         86.2168
   471.22         86.5527
   471.36         86.9236
   471.50         87.2866
   471.64         87.5958
   471.78         87.8093
   471.92         87.8992
   472.06         87.8593
   472.20         87.7078
   472.34         87.4785
   472.48         87.2084
   472.62         86.9316
   472.76         86.6827
   472.90         86.4978
   473.04         86.4044
   473.18         86.4158
   473.32         86.5325
   473.46         86.7426
   473.60         87.0226
   473.74         87.3359
   473.88         87.6367
   474.02         87.8800
   474.16         88.0299
   474.30         88.0670
   474.44         88.0019
   474.58         87.8665
   474.72         87.6877
   474.86         87.4699
   475.00         87.1968
   475.14         86.8490
   475.28         86.4220
   475.42         85.9332
   475.56         85.4154
   475.70         84.9020
   475.84         84.4193
   475.98         83.9928
   476.12         83.6510
   476.26         83.4212
   476.40         83.3206
   476.54         83.3487
   476.68         83.4908
   476.82         83.7263
   476.96         84.0326
   477.10         84.3783
   477.24         84.7168
   477.38         84.9978
   477.52         85.1879
   477.66         85.2837
   477.80         85.3100
   477.94         85.3059
   478.08         85.3106
   478.22         85.3521
   478.36         85.4428
   478.50         85.5853
   478.64         85.7797
   478.78         86.0149
   478.92         86.2627
   479.06         86.4861
   479.20         86.6463
   479.34         86.7157
   479.48         86.6831
   479.62         86.5485
   479.76         86.3195
   479.90         86.0132
   480.04         85.6612
   480.18         85.3067
   480.32         84.9919
   480.46         84.7483
   480.60         84.5967
   480.74         84.5485
   480.88         84.5936
   481.02         84.6961
   481.16         84.8120
   481.30         84.9061
   481.44         84.9551
   481.58         84.9432
   481.72         84.8646
   481.86         84.7293
   482.00         84.5595
   482.14         84.3760
   482.28         84.1916
   482.42         84.0188
   482.56         83.8696
   482.70         83.7525
   482.84         83.6709
   482.98         83.6180
   483.12         83.5808
   483.26         83.5418
   483.40         83.4696
   483.54         83.3175
   483.68         83.0430
   483.82         82.6255
   483.96         82.0559
   484.10         81.3179
   484.24         80.3830
   484.38         79.2209
   484.52         77.8050
   484.66         76.1074
   484.80         74.1072
   484.94         71.8138
   485.08         69.2824
   485.22         66.6148
   485.36         63.9534
   485.50         61.4639
   485.64         59.3045
   485.78         57.6046
   485.92         56.4518
   486.06         55.8868
   486.20         55.9104
   486.34         56.4906
   486.48         57.5609
   486.62         59.0197
   486.76         60.7387
   486.90         62.5816
   487.04         64.4183
   487.18         66.1350
   487.32         67.6480
   487.46         68.9210
   487.60         69.9643
   487.74         70.8134
   487.88         71.5125
   488.02         72.1070
   488.16         72.6348
   488.30         73.1247
   488.44         73.6028
   488.58         74.0935
   488.72         74.6151
   488.86         75.1805
   489.00         75.7974
   489.14         76.4631
   489.28         77.1595
   489.42         77.8559
   489.56         78.5172
   489.70         79.1073
   489.84         79.5936
   489.98         79.9584
   490.12         80.2054
   490.26         80.3548
   490.40         80.4369
   490.54         80.4826
   490.68         80.5057
   490.82         80.4954
   490.96         80.4252
   491.10         80.2639
   491.24         79.9921
   491.38         79.6182
   491.52         79.1793
   491.66         78.7259
   491.80         78.3047
   491.94         77.9483
   492.08         77.6749
   492.22         77.4959
   492.36         77.4161
   492.50         77.4316
   492.64         77.5320
   492.78         77.7010
   492.92         77.9132
   493.06         78.1388
   493.20         78.3527
   493.34         78.5444
   493.48         78.7264
   493.62         78.9283
   493.76         79.1869
   493.90         79.5333
   494.04         79.9764
   494.18         80.4981
   494.32         81.0602
   494.46         81.6050
   494.60         82.0664
   494.74         82.3989
   494.88         82.5925
   495.02         82.6553
   495.16         82.5994
   495.30         82.4423
   495.44         82.2102
   495.58         81.9359
   495.72         81.6519
   495.86         81.3838
   496.00         81.1480
   496.14         80.9526
   496.28         80.7995
   496.42         80.6869
   496.56         80.6051
   496.70         80.5367
   496.84         80.4587
   496.98         80.3379
   497.12         80.1354
   497.26         79.8310
   497.40         79.4377
   497.54         78.9848
   497.68         78.4978
   497.82         77.9960
   497.96         77.5007
   498.10         77.0418
   498.24         76.6558
   498.38         76.3749
   498.52         76.2208
   498.66         76.2010
   498.80         76.3016
   498.94         76.4852
   499.08         76.6998
   499.22         76.8891
   499.36         77.0045
   499.50         77.0189
   499.64         76.9328
   499.78         76.7685
   499.92         76.5564
   500.06         76.3248
   500.20         76.0909
   500.34         75.8590
   500.48         75.6252
   500.62         75.3859
   500.76         75.1456
   500.90         74.9181
   501.04         74.7199
   501.18         74.5700
   501.32         74.4892
   501.46         74.4941
   501.60         74.5951
   501.74         74.7991
   501.88         75.1018
   502.02         75.4842
   502.16         75.9155
   502.30         76.3514
   502.44         76.7422
   502.58         77.0433
   502.72         77.2222
   502.86         77.2614
   503.00         77.1624
   503.14         76.9511
   503.28         76.6735
   503.42         76.3854
   503.56         76.1400
   503.70         75.9740
   503.84         75.9018
   503.98         75.9192
   504.12         76.0106
   504.26         76.1564
   504.40         76.3390
   504.54         76.5466
   504.68         76.7739
   504.82         77.0196
   504.96         77.2825
   505.10         77.5604
   505.24         77.8462
   505.38         78.1258
   505.52         78.3828
   505.66         78.5992
   505.80         78.7536
   505.94         78.8215
   506.08         78.7830
   506.22         78.6289
   506.36         78.3609
   506.50         77.9942
   506.64         77.5563
   506.78         77.0788
   506.92         76.5919
   507.06         76.1255
   507.20         75.7097
   507.34         75.3723
   507.48         75.1338
   507.62         75.0054
   507.76         74.9911
   507.90         75.0895
   508.04         75.2914
   508.18         75.5754
   508.32         75.9080
   508.46         76.2479
   508.60         76.5569
   508.74         76.8060
   508.88         76.9772
   509.02         77.0680
   509.16         77.0887
   509.30         77.0563
   509.44         76.9889
   509.58         76.9016
   509.72         76.8037
   509.86         76.7008
   510.00         76.5986
   510.14         76.5027
   510.28         76.4213
   510.42         76.3662
   510.56         76.3434
   510.70         76.3486
   510.84         76.3703
   510.98         76.3908
   511.12         76.3885
   511.26         76.3475
   511.40         76.2598
   511.54         76.1179
   511.68         75.9142
   511.82         75.6439
   511.96         75.3101
   512.10         74.9261
   512.24         74.5168
   512.38         74.1166
   512.52         73.7614
   512.66         73.4814
   512.80         73.2939
   512.94         73.1971
   513.08         73.1723
   513.22         73.1918
   513.36         73.2289
   513.50         73.2624
   513.64         73.2763
   513.78         73.2643
   513.92         73.2308
   514.06         73.1817
   514.20         73.1208
   514.34         73.0541
   514.48         72.9916
   514.62         72.9438
   514.76         72.9156
   514.90         72.9043
   515.04         72.8997
   515.18         72.8850
   515.32         72.8375
   515.46         72.7243
   515.60         72.5088
   515.74         72.1690
   515.88         71.7038
   516.02         71.1282
   516.16         70.4729
   516.30         69.7861
   516.44         69.1285
   516.58         68.5686
   516.72         68.1747
   516.86         68.0001
   517.00         68.0661
   517.14         68.3555
   517.28         68.8193
   517.42         69.3842
   517.56         69.9626
   517.70         70.4652
   517.84         70.8144
   517.98         70.9549
   518.12         70.8650
   518.26         70.5639
   518.40         70.1057
   518.54         69.5616
   518.68         69.0106
   518.82         68.5337
   518.96         68.1988
   519.10         68.0447
   519.24         68.0744
   519.38         68.2612
   519.52         68.5587
   519.66         68.9150
   519.80         69.2863
   519.94         69.6459
   520.08         69.9781
   520.22         70.2687
   520.36         70.5052
   520.50         70.6800
   520.64         70.7968
   520.78         70.8727
   520.92         70.9308
   521.06         70.9908
   521.20         71.0576
   521.34         71.1174
   521.48         71.1446
   521.62         71.1129
   521.76         71.0117
   521.90         70.8461
   522.04         70.6258
   522.18         70.3614
   522.32         70.0622
   522.46         69.7385
   522.60         69.4034
   522.74         69.0706
   522.88         68.7596
   523.02         68.5012
   523.16         68.3323
   523.30         68.2840
   523.44         68.3652
   523.58         68.5599
   523.72         68.8350
   523.86         69.1537
   524.00         69.4885
   524.14         69.8274
   524.28         70.1653
   524.42         70.4941
   524.56         70.7948
   524.70         71.0454
   524.84         71.2301
   524.98         71.3345
   525.12         71.3439
   525.26         71.2471
   525.40         71.0401
   525.54         70.7238
   525.68         70.2972
   525.82         69.7596
   525.96         69.1204
   526.10         68.4040
   526.24         67.6463
   526.38         66.8927
   526.52         66.1969
   526.66         65.6113
   526.80         65.1773
   526.94         64.9200
   527.08         64.8446
   527.22         64.9356
   527.36         65.1634
   527.50         65.4967
   527.64         65.9129
   527.78         66.3968
   527.92         66.9357
   528.06         67.5160
   528.20         68.1204
   528.34         68.7287
   528.48         69.3195
   528.62         69.8703
   528.76         70.3551
   528.90         70.7497
   529.04         71.0407
   529.18         71.2250
   529.32         71.3020
   529.46         71.2722
   529.60         71.1456
   529.74         70.9470
   529.88         70.7113
   530.02         70.4744
   530.16         70.2613
   530.30         70.0756
   530.44         69.9043
   530.58         69.7378
   530.72         69.5790
   530.86         69.4341
   531.00         69.3059
   531.14         69.1925
   531.28         69.0895
   531.42         68.9884
   531.56         68.8770
   531.70         68.7437
   531.84         68.5832
   531.98         68.3974
   532.12         68.1931
   532.26         67.9796
   532.40         67.7615
   532.54         67.5326
   532.68         67.2852
   532.82         67.0221
   532.96         66.7616
   533.10         66.5329
   533.24         66.3639
   533.38         66.2715
   533.52         66.2605
   533.66         66.3279
   533.80         66.4669
   533.94         66.6683
   534.08         66.9235
   534.22         67.2275
   534.36         67.5786
   534.50         67.9718
   534.64         68.3914
   534.78         68.8077
   534.92         69.1831
   535.06         69.4811
   535.20         69.6749
   535.34         69.7547
   535.48         69.7260
   535.62         69.5989
   535.76         69.3814
   535.90         69.0838
   536.04         68.7286
   536.18         68.3499
   536.32         67.9833
   536.46         67.6573
   536.60         67.3890
   536.74         67.1827
   536.88         67.0337
   537.02         66.9336
   537.16         66.8741
   537.30         66.8452
   537.44         66.8357
   537.58         66.8439
   537.72         66.8776
   537.86         66.9440
   538.00         67.0465
   538.14         67.1840
   538.28         67.3480
   538.42         67.5243
   538.56         67.6998
   538.70         67.8650
   538.84         68.0072
   538.98         68.1059
   539.12         68.1376
   539.26         68.0848
   539.40         67.9427
   539.54         67.7223
   539.68         67.4487
   539.82         67.1528
   539.96         66.8661
   540.10         66.6174
   540.24         66.4281
   540.38         66.3052
   540.52         66.2417
   540.66         66.2243
   540.80         66.2382
   540.94         66.2676
   541.08         66.2951
   541.22         66.3052
   541.36         66.2859
   541.50         66.2286
   541.64         66.1268
   541.78         65.9773
   541.92         65.7857
   542.06         65.5709
   542.20         65.3597
   542.34         65.1796
   542.48         65.0554
   542.62         65.0055
   542.76         65.0389
   542.90         65.1545
   543.04         65.3426
   543.18         65.5830
   543.32         65.8449
   543.46         66.0931
   543.60         66.2999
   543.74         66.4477
   543.88         66.5275
   544.02         66.5399
   544.16         66.4886
   544.30         66.3763
   544.44         66.2128
   544.58         66.0254
   544.72         65.8538
   544.86         65.7342
   545.00         65.6895
   545.14         65.7269
   545.28         65.8396
   545.42         66.0135
   545.56         66.2290
   545.70         66.4619
   545.84         66.6868
   545.98         66.8806
   546.12         67.0305
   546.26         67.1302
   546.40         67.1620
   546.54         67.1015
   546.68         66.9371
   546.82         66.6766
   546.96         66.3456
   547.10         65.9846
   547.24         65.6385
   547.38         65.3420
   547.52         65.1123
   547.66         64.9529
   547.80         64.8618
   547.94         64.8351
   548.08         64.8662
   548.22         64.9456
   548.36         65.0598
   548.50         65.1913
   548.64         65.3222
   548.78         65.4390
   548.92         65.5301
   549.06         65.5884
   549.20         65.6216
   549.34         65.6434
   549.48         65.6589
   549.62         65.6626
   549.76         65.6450
   549.90         65.5953
   550.04         65.5077
   550.18         65.3881
   550.32         65.2566
   550.46         65.1411
   550.60         65.0699
   550.74         65.0648
   550.88         65.1334
   551.02         65.2642
   551.16         65.4297
   551.30         65.5932
   551.44         65.7147
   551.58         65.7579
   551.72         65.6997
   551.86         65.5367
   552.00         65.2814
   552.14         64.9538
   552.28         64.5785
   552.42         64.1861
   552.56         63.8160
   552.70         63.5122
   552.84         63.3108
   552.98         63.2262
   553.12         63.2486
   553.26         63.3545
   553.40         63.5157
   553.54         63.7067
   553.68         63.9121
   553.82         64.1217
   553.96         64.3267
   554.10         64.5210
   554.24         64.7025
   554.38         64.8714
   554.52         65.0268
   554.66         65.1619
   554.80         65.2647
   554.94         65.3283
   555.08         65.3546
   555.22         65.3476
   555.36         65.3071
   555.50         65.2272
   555.64         65.1005
   555.78         64.9260
   555.92         64.7130
   556.06         64.4794
   556.20         64.2472
   556.34         64.0367
   556.48         63.8628
   556.62         63.7383
   556.76         63.6734
   556.90         63.6726
   557.04         63.7357
   557.18         63.8561
   557.32         64.0171
   557.46         64.1932
   557.60         64.3564
   557.74         64.4806
   557.88         64.5474
   558.02         64.5500
   558.16         64.4909
   558.30         64.3817
   558.44         64.2420
   558.58         64.0968
   558.72         63.9687
   558.86         63.8732
   559.00         63.8156
   559.14         63.7921
   559.28         63.7975
   559.42         63.8265
   559.56         63.8765
   559.70         63.9481
   559.84         64.0390
   559.98         64.1426
   560.12         64.2491
   560.26         64.3456
   560.40         64.4195
   560.54         64.4646
   560.68         64.4783
   560.82         64.4562
   560.96         64.3957
   561.10         64.2972
   561.24         64.1646
   561.38         64.0040
   561.52         63.8222
   561.66         63.6308
   561.80         63.4511
   561.94         63.3072
   562.08         63.2110
   562.22         63.1601
   562.36         63.1433
   562.50         63.1470
   562.64         63.1574
   562.78         63.1620
   562.92         63.1530
   563.06         63.1332
   563.20         63.1129
   563.34         63.0994
   563.48         63.0939
   563.62         63.0967
   563.76         63.1088
   563.90         63.1299
   564.04         63.1556
   564.18         63.1783
   564.32         63.1881
   564.46         63.1688
   564.60         63.0963
   564.74         62.9469
   564.88         62.7086
   565.02         62.3832
   565.16         61.9859
   565.30         61.5441
   565.44         61.0907
   565.58         60.6593
   565.72         60.2820
   565.86         59.9863
   566.00         59.7920
   566.14         59.7111
   566.28         59.7475
   566.42         59.8921
   566.56         60.1200
   566.70         60.3972
   566.84         60.6863
   566.98         60.9484
   567.12         61.1484
   567.26         61.2648
   567.40         61.2926
   567.54         61.2368
   567.68         61.1075
   567.82         60.9219
   567.96         60.7045
   568.10         60.4817
   568.24         60.2771
   568.38         60.1089
   568.52         59.9894
   568.66         59.9226
   568.80         59.9017
   568.94         59.9098
   569.08         59.9206
   569.22         59.9056
   569.36         59.8448
   569.50         59.7279
   569.64         59.5551
   569.78         59.3379
   569.92         59.0977
   570.06         58.8586
   570.20         58.6448
   570.34         58.4806
   570.48         58.3890
   570.62         58.3831
   570.76         58.4627
   570.90         58.6156
   571.04         58.8258
   571.18         59.0781
   571.32         59.3533
   571.46         59.6285
   571.60         59.8839
   571.74         60.1082
   571.88         60.2983
   572.02         60.4525
   572.16         60.5669
   572.30         60.6375
   572.44         60.6625
   572.58         60.6441
   572.72         60.5865
   572.86         60.4936
   573.00         60.3704
   573.14         60.2230
   573.28         60.0586
   573.42         59.8863
   573.56         59.7149
   573.70         59.5511
   573.84         59.3997
   573.98         59.2650
   574.12         59.1549
   574.26         59.0804
   574.40         59.0489
   574.54         59.0596
   574.68         59.1072
   574.82         59.1882
   574.96         59.3005
   575.10         59.4392
   575.24         59.5967
   575.38         59.7638
   575.52         59.9312
   575.66         60.0904
   575.80         60.2320
   575.94         60.3427
   576.08         60.4078
   576.22         60.4137
   576.36         60.3510
   576.50         60.2195
   576.64         60.0236
   576.78         59.7646
   576.92         59.4396
   577.06         59.0482
   577.20         58.6022
   577.34         58.1282
   577.48         57.6611
   577.62         57.2364
   577.76         56.8847
   577.90         56.6286
   578.04         56.4802
   578.18         56.4400
   578.32         56.4975
   578.46         56.6310
   578.60         56.8142
   578.74         57.0231
   578.88         57.2372
   579.02         57.4392
   579.16         57.6156
   579.30         57.7553
   579.44         57.8526
   579.58         57.9130
   579.72         57.9534
   579.86         57.9942
   580.00         58.0513
   580.14         58.1303
   580.28         58.2251
   580.42         58.3214
   580.56         58.4054
   580.70         58.4689
   580.84         58.5116
   580.98         58.5396
   581.12         58.5610
   581.26         58.5836
   581.40         58.6142
   581.54         58.6574
   581.68         58.7162
   581.82         58.7906
   581.96         58.8778
   582.10         58.9723
   582.24         59.0661
   582.38         59.1516
   582.52         59.2229
   582.66         59.2746
   582.80         59.3003
   582.94         59.2963
   583.08         59.2676
   583.22         59.2261
   583.36         59.1809
   583.50         59.1355
   583.64         59.0889
   583.78         59.0366
   583.92         58.9734
   584.06         58.8945
   584.20         58.7951
   584.34         58.6685
   584.48         58.5083
   584.62         58.3144
   584.76         58.0936
   584.90         57.8588
   585.04         57.6281
   585.18         57.4223
   585.32         57.2628
   585.46         57.1676
   585.60         57.1463
   585.74         57.1972
   585.88         57.3059
   586.02         57.4514
   586.16         57.6165
   586.30         57.7867
   586.44         57.9468
   586.58         58.0782
   586.72         58.1637
   586.86         58.1933
   587.00         58.1655
   587.14         58.0859
   587.28         57.9666
   587.42         57.8196
   587.56         57.6406
   587.70         57.3988
   587.84         57.0500
   587.98         56.5617
   588.12         55.9202
   588.26         55.1214
   588.40         54.1721
   588.54         53.1059
   588.68         51.9930
   588.82         50.9257
   588.96         49.9937
   589.10         49.2729
   589.24         48.8216
   589.38         48.6777
   589.52         48.8551
   589.66         49.3389
   589.80         50.0821
   589.94         51.0115
   590.08         52.0359
   590.22         53.0567
   590.36         53.9916
   590.50         54.7947
   590.64         55.4535
   590.78         55.9661
   590.92         56.3320
   591.06         56.5668
   591.20         56.7063
   591.34         56.7884
   591.48         56.8339
   591.62         56.8486
   591.76         56.8348
   591.90         56.7987
   592.04         56.7478
   592.18         56.6875
   592.32         56.6223
   592.46         56.5599
   592.60         56.5105
   592.74         56.4828
   592.88         56.4830
   593.02         56.5140
   593.16         56.5730
   593.30         56.6484
   593.44         56.7199
   593.58         56.7647
   593.72         56.7656
   593.86         56.7122
   594.00         56.5991
   594.14         56.4269
   594.28         56.2027
   594.42         55.9395
   594.56         55.6537
   594.70         55.3608
   594.84         55.0785
   594.98         54.8307
   595.12         54.6410
   595.26         54.5208
   595.40         54.4678
   595.54         54.4691
   595.68         54.5068
   595.82         54.5611
   595.96         54.6123
   596.10         54.6452
   596.24         54.6514
   596.38         54.6260
   596.52         54.5653
   596.66         54.4691
   596.80         54.3414
   596.94         54.1891
   597.08         54.0219
   597.22         53.8514
   597.36         53.6907
   597.50         53.5535
   597.64         53.4509
   597.78         53.3853
   597.92         53.3514
   598.06         53.3412
   598.20         53.3474
   598.34         53.3631
   598.48         53.3817
   598.62         53.3963
   598.76         53.4019
   598.90         53.3937
   599.04         53.3690
   599.18         53.3283
   599.32         53.2715
   599.46         53.1948
   599.60         53.0943
   599.74         52.9695
   599.88         52.8245
   600.02         52.6684
   600.16         52.5122
   600.30         52.3651
   600.44         52.2321
   600.58         52.1163
   600.72         52.0207
   600.86         51.9464
   601.00         51.8932
   601.14         51.8622
   601.28         51.8537
   601.42         51.8645
   601.56         51.8927
   601.70         51.9398
   601.84         52.0044
   601.98         52.0801
   602.12         52.1614
   602.26         52.2468
   602.40         52.3313
   602.54         52.4083
   602.68         52.4757
   602.82         52.5297
   602.96         52.5647
   603.10         52.5774
   603.24         52.5660
   603.38         52.5295
   603.52         52.4679
   603.66         52.3857
   603.80         52.2926
   603.94         52.1985
   604.08         52.1107
   604.22         52.0361
   604.36         51.9813
   604.50         51.9489
   604.64         51.9369
   604.78         51.9386
   604.92         51.9452
   605.06         51.9494
   605.20         51.9493
   605.34         51.9436
   605.48         51.9282
   605.62         51.9039
   605.76         51.8726
   605.90         51.8314
   606.04         51.7757
   606.18         51.7038
   606.32         51.6199
   606.46         51.5321
   606.60         51.4471
   606.74         51.3693
   606.88         51.3018
   607.02         51.2433
   607.16         51.1858
   607.30         51.1207
   607.44         51.0477
   607.58         50.9766
   607.72         50.9215
   607.86         50.8963
   608.00         50.9134
   608.14         50.9823
   608.28         51.1034
   608.42         51.2662
   608.56         51.4554
   608.70         51.6527
   608.84         51.8346
   608.98         51.9745
   609.12         52.0481
   609.26         52.0416
   609.40         51.9535
   609.54         51.7917
   609.68         51.5726
   609.82         51.3196
   609.96         51.0601
   610.10         50.8189
   610.24         50.6126
   610.38         50.4511
   610.52         50.3397
   610.66         50.2744
   610.80         50.2442
   610.94         50.2349
   611.08         50.2340
   611.22         50.2347
   611.36         50.2357
   611.50         50.2398
   611.64         50.2550
   611.78         50.2930
   611.92         50.3623
   612.06         50.4595
   612.20         50.5688
   612.34         50.6648
   612.48         50.7217
   612.62         50.7207
   612.76         50.6473
   612.90         50.4927
   613.04         50.2585
   613.18         49.9552
   613.32         49.5984
   613.46         49.2059
   613.60         48.7990
   613.74         48.4037
   613.88         48.0496
   614.02         47.7637
   614.16         47.5600
   614.30         47.4389
   614.44         47.3939
   614.58         47.4142
   614.72         47.4850
   614.86         47.5885
   615.00         47.7090
   615.14         47.8382
   615.28         47.9688
   615.42         48.0901
   615.56         48.1911
   615.70         48.2660
   615.84         48.3110
   615.98         48.3227
   616.12         48.2993
   616.26         48.2451
   616.40         48.1692
   616.54         48.0790
   616.68         47.9738
   616.82         47.8497
   616.96         47.7123
   617.10         47.5777
   617.24         47.4628
   617.38         47.3767
   617.52         47.3234
   617.66         47.3060
   617.80         47.3264
   617.94         47.3827
   618.08         47.4717
   618.22         47.5915
   618.36         47.7400
   618.50         47.9125
   618.64         48.1009
   618.78         48.2960
   618.92         48.4893
   619.06         48.6715
   619.20         48.8306
   619.34         48.9535
   619.48         49.0312
   619.62         49.0582
   619.76         49.0289
   619.90         48.9412
   620.04         48.8022
   620.18         48.6265
   620.32         48.4315
   620.46         48.2314
   620.60         48.0358
   620.74         47.8540
   620.88         47.6977
   621.02         47.5786
   621.16         47.5053
   621.30         47.4812
   621.44         47.5025
   621.58         47.5581
   621.72         47.6317
   621.86         47.7082
   622.00         47.7775
   622.14         47.8339
   622.28         47.8745
   622.42         47.8957
   622.56         47.8920
   622.70         47.8596
   622.84         47.7970
   622.98         47.7067
   623.12         47.5924
   623.26         47.4562
   623.40         47.3052
   623.54         47.1518
   623.68         47.0075
   623.82         46.8770
   623.96         46.7594
   624.10         46.6551
   624.24         46.5687
   624.38         46.5098
   624.52         46.4906
   624.66         46.5203
   624.80         46.6014
   624.94         46.7280
   625.08         46.8855
   625.22         47.0567
   625.36         47.2292
   625.50         47.3916
   625.64         47.5293
   625.78         47.6265
   625.92         47.6719
   626.06         47.6660
   626.20         47.6181
   626.34         47.5323
   626.48         47.4024
   626.62         47.2213
   626.76         46.9879
   626.90         46.7029
   627.04         46.3652
   627.18         45.9740
   627.32         45.5341
   627.46         45.0595
   627.60         44.5715
   627.74         44.0991
   627.88         43.6782
   628.02         43.3434
   628.16         43.1185
   628.30         43.0166
   628.44         43.0428
   628.58         43.1928
   628.72         43.4503
   628.86         43.7857
   629.00         44.1591
   629.14         44.5310
   629.28         44.8726
   629.42         45.1666
   629.56         45.4054
   629.70         45.5882
   629.84         45.7190
   629.98         45.8066
   630.12         45.8576
   630.26         45.8718
   630.40         45.8465
   630.54         45.7822
   630.68         45.6856
   630.82         45.5693
   630.96         45.4499
   631.10         45.3456
   631.24         45.2723
   631.38         45.2412
   631.52         45.2600
   631.66         45.3317
   631.80         45.4521
   631.94         45.6114
   632.08         45.7960
   632.22         45.9875
   632.36         46.1628
   632.50         46.3021
   632.64         46.3955
   632.78         46.4421
   632.92         46.4485
   633.06         46.4283
   633.20         46.3919
   633.34         46.3394
   633.48         46.2648
   633.62         46.1654
   633.76         46.0444
   633.90         45.9080
   634.04         45.7616
   634.18         45.6123
   634.32         45.4719
   634.46         45.3539
   634.60         45.2683
   634.74         45.2187
   634.88         45.2035
   635.02         45.2173
   635.16         45.2515
   635.30         45.2952
   635.44         45.3357
   635.58         45.3584
   635.72         45.3467
   635.86         45.2882
   636.00         45.1842
   636.14         45.0518
   636.28         44.9139
   636.42         44.7905
   636.56         44.6954
   636.70         44.6349
   636.84         44.6135
   636.98         44.6345
   637.12         44.6950
   637.26         44.7869
   637.40         44.9022
   637.54         45.0344
   637.68         45.1774
   637.82         45.3255
   637.96         45.4706
   638.10         45.5992
   638.24         45.6965
   638.38         45.7532
   638.52         45.7672
   638.66         45.7415
   638.80         45.6824
   638.94         45.6019
   639.08         45.5149
   639.22         45.4337
   639.36         45.3654
   639.50         45.3167
   639.64         45.2933
   639.78         45.2964
   639.92         45.3228
   640.06         45.3632
   640.20         45.4008
   640.34         45.4159
   640.48         45.3901
   640.62         45.3099
   640.76         45.1719
   640.90         44.9867
   641.04         44.7728
   641.18         44.5514
   641.32         44.3433
   641.46         44.1656
   641.60         44.0264
   641.74         43.9231
   641.88         43.8465
   642.02         43.7886
   642.16         43.7470
   642.30         43.7178
   642.44         43.6922
   642.58         43.6596
   642.72         43.6103
   642.86         43.5423
   643.00         43.4633
   643.14         43.3859
   643.28         43.3218
   643.42         43.2775
   643.56         43.2563
   643.70         43.2587
   643.84         43.2802
   643.98         43.3127
   644.12         43.3445
   644.26         43.3615
   644.40         43.3535
   644.54         43.3184
   644.68         43.2616
   644.82         43.1897
   644.96         43.1068
   645.10         43.0189
   645.24         42.9360
   645.38         42.8702
   645.52         42.8318
   645.66         42.8263
   645.80         42.8545
   645.94         42.9136
   646.08         42.9994
   646.22         43.1092
   646.36         43.2381
   646.50         43.3737
   646.64         43.4995
   646.78         43.6008
   646.92         43.6695
   647.06         43.7088
   647.20         43.7286
   647.34         43.7370
   647.48         43.7375
   647.62         43.7316
   647.76         43.7200
   647.90         43.6978
   648.04         43.6528
   648.18         43.5716
   648.32         43.4467
   648.46         43.2800
   648.60         43.0833
   648.74         42.8750
   648.88         42.6739
   649.02         42.4961
   649.16         42.3563
   649.30         42.2711
   649.44         42.2574
   649.58         42.3248
   649.72         42.4738
   649.86         42.6962
   650.00         42.9719
   650.14         43.2696
   650.28         43.5543
   650.42         43.7940
   650.56         43.9654
   650.70         44.0610
   650.84         44.0924
   650.98         44.0816
   651.12         44.0507
   651.26         44.0191
   651.40         44.0023
   651.54         44.0108
   651.68         44.0515
   651.82         44.1272
   651.96         44.2356
   652.10         44.3675
   652.24         44.5092
   652.38         44.6465
   652.52         44.7638
   652.66         44.8448
   652.80         44.8801
   652.94         44.8702
   653.08         44.8194
   653.22         44.7321
   653.36         44.6150
   653.50         44.4750
   653.64         44.3144
   653.78         44.1333
   653.92         43.9326
   654.06         43.7100
   654.20         43.4565
   654.34         43.1581
   654.48         42.7954
   654.62         42.3442
   654.76         41.7769
   654.90         41.0664
   655.04         40.1986
   655.18         39.1857
   655.32         38.0718
   655.46         36.9248
   655.60         35.8223
   655.74         34.8422
   655.88         34.0594
   656.02         33.5397
   656.16         33.3273
   656.30         33.4365
   656.44         33.8539
   656.58         34.5418
   656.72         35.4417
   656.86         36.4814
   657.00         37.5826
   657.14         38.6676
   657.28         39.6686
   657.42         40.5365
   657.56         41.2488
   657.70         41.8099
   657.84         42.2402
   657.98         42.5632
   658.12         42.7957
   658.26         42.9493
   658.40         43.0362
   658.54         43.0729
   658.68         43.0765
   658.82         43.0599
   658.96         43.0309
   659.10         42.9949
   659.24         42.9556
   659.38         42.9150
   659.52         42.8749
   659.66         42.8354
   659.80         42.7941
   659.94         42.7472
   660.08         42.6913
   660.22         42.6257
   660.36         42.5543
   660.50         42.4836
   660.64         42.4197
   660.78         42.3668
   660.92         42.3285
   661.06         42.3089
   661.20         42.3082
   661.34         42.3218
   661.48         42.3433
   661.62         42.3689
   661.76         42.3988
   661.90         42.4344
   662.04         42.4757
   662.18         42.5198
   662.32         42.5596
   662.46         42.5880
   662.60         42.6008
   662.74         42.5970
   662.88         42.5791
   663.02         42.5506
   663.16         42.5126
   663.30         42.4652
   663.44         42.4086
   663.58         42.3432
   663.72         42.2690
   663.86         42.1867
   664.00         42.1036
   664.14         42.0306
   664.28         41.9741
   664.42         41.9332
   664.56         41.9039
   664.70         41.8831
   664.84         41.8674
   664.98         41.8524
   665.12         41.8322
   665.26         41.8012
   665.40         41.7563
   665.54         41.6980
   665.68         41.6292
   665.82         41.5544
   665.96         41.4795
   666.10         41.4113
   666.24         41.3551
   666.38         41.3112
   666.52         41.2774
   666.66         41.2515
   666.80         41.2270
   666.94         41.1976
   667.08         41.1610
   667.22         41.1162
   667.36         41.0632
   667.50         41.0033
   667.64         40.9401
   667.78         40.8788
   667.92         40.8271
   668.06         40.7935
   668.20         40.7851
   668.34         40.8048
   668.48         40.8498
   668.62         40.9127
   668.76         40.9844
   668.90         41.0568
   669.04         41.1248
   669.18         41.1869
   669.32         41.2419
   669.46         41.2877
   669.60         41.3244
   669.74         41.3507
   669.88         41.3639
   670.02         41.3630
   670.16         41.3489
   670.30         41.3227
   670.44         41.2872
   670.58         41.2473
   670.72         41.2063
   670.86         41.1640
   671.00         41.1184
   671.14         41.0673
   671.28         41.0108
   671.42         40.9518
   671.56         40.8941
   671.70         40.8402
   671.84         40.7925
   671.98         40.7550
   672.12         40.7326
   672.26         40.7282
   672.40         40.7384
   672.54         40.7550
   672.68         40.7685
   672.82         40.7684
   672.96         40.7436
   673.10         40.6872
   673.24         40.5980
   673.38         40.4789
   673.52         40.3346
   673.66         40.1707
   673.80         39.9961
   673.94         39.8228
   674.08         39.6650
   674.22         39.5363
   674.36         39.4468
   674.50         39.4015
   674.64         39.3975
   674.78         39.4274
   674.92         39.4843
   675.06         39.5633
   675.20         39.6587
   675.34         39.7636
   675.48         39.8716
   675.62         39.9793
   675.76         40.0841
   675.90         40.1811
   676.04         40.2638
   676.18         40.3274
   676.32         40.3733
   676.46         40.4076
   676.60         40.4363
   676.74         40.4627
   676.88         40.4860
   677.02         40.5026
   677.16         40.5089
   677.30         40.5043
   677.44         40.4917
   677.58         40.4733
   677.72         40.4463
   677.86         40.4047
   678.00         40.3454
   678.14         40.2721
   678.28         40.1920
   678.42         40.1123
   678.56         40.0405
   678.70         39.9835
   678.84         39.9454
   678.98         39.9278
   679.12         39.9274
   679.26         39.9364
   679.40         39.9464
   679.54         39.9515
   679.68         39.9475
   679.82         39.9297
   679.96         39.8932
   680.10         39.8354
   680.24         39.7552
   680.38         39.6548
   680.52         39.5435
   680.66         39.4353
   680.80         39.3421
   680.94         39.2716
   681.08         39.2296
   681.22         39.2208
   681.36         39.2473
   681.50         39.3072
   681.64         39.3958
   681.78         39.5051
   681.92         39.6254
   682.06         39.7464
   682.20         39.8551
   682.34         39.9347
   682.48         39.9706
   682.62         39.9571
   682.76         39.8964
   682.90         39.7944
   683.04         39.6584
   683.18         39.4970
   683.32         39.3192
   683.46         39.1352
   683.60         38.9578
   683.74         38.8013
   683.88         38.6782
   684.02         38.5947
   684.16         38.5498
   684.30         38.5368
   684.44         38.5463
   684.58         38.5687
   684.72         38.5976
   684.86         38.6292
   685.00         38.6606
   685.14         38.6872
   685.28         38.6986
   685.42         38.6733
   685.56         38.5750
   685.70         38.3606
   685.84         37.9964
   685.98         37.4674
   686.12         36.7780
   686.26         35.9515
   686.40         35.0307
   686.54         34.0725
   686.68         33.1412
   686.82         32.3037
   686.96         31.6233
   687.10         31.1498
   687.24         30.9116
   687.38         30.9097
   687.52         31.1173
   687.66         31.4840
   687.80         31.9456
   687.94         32.4363
   688.08         32.8991
   688.22         33.2938
   688.36         33.6019
   688.50         33.8238
   688.64         33.9739
   688.78         34.0719
   688.92         34.1412
   689.06         34.2038
   689.20         34.2731
   689.34         34.3560
   689.48         34.4535
   689.62         34.5597
   689.76         34.6663
   689.90         34.7655
   690.04         34.8499
   690.18         34.9156
   690.32         34.9656
   690.46         35.0098
   690.60         35.0582
   690.74         35.1173
   690.88         35.1904
   691.02         35.2774
   691.16         35.3804
   691.30         35.5043
   691.44         35.6498
   691.58         35.8114
   691.72         35.9759
   691.86         36.1277
   692.00         36.2539
   692.14         36.3431
   692.28         36.3880
   692.42         36.3882
   692.56         36.3481
   692.70         36.2731
   692.84         36.1701
   692.98         36.0479
   693.12         35.9146
   693.26         35.7791
   693.40         35.6523
   693.54         35.5447
   693.68         35.4649
   693.82         35.4218
   693.96         35.4206
   694.10         35.4610
   694.24         35.5374
   694.38         35.6415
   694.52         35.7640
   694.66         35.8946
   694.80         36.0238
   694.94         36.1456
   695.08         36.2542
   695.22         36.3420
   695.36         36.4037
   695.50         36.4411
   695.64         36.4635
   695.78         36.4847
   695.92         36.5189
   696.06         36.5769
   696.20         36.6662
   696.34         36.7910
   696.48         36.9476
   696.62         37.1226
   696.76         37.2985
   696.90         37.4576
   697.04         37.5852
   697.18         37.6723
   697.32         37.7164
   697.46         37.7186
   697.60         37.6800
   697.74         37.6035
   697.88         37.4967
   698.02         37.3727
   698.16         37.2480
   698.30         37.1371
   698.44         37.0479
   698.58         36.9798
   698.72         36.9251
   698.86         36.8736
   699.00         36.8126
   699.14         36.7276
   699.28         36.6079
   699.42         36.4498
   699.56         36.2551
   699.70         36.0332
   699.84         35.8016
   699.98         35.5816
   700.12         35.3905
   700.26         35.2416
   700.40         35.1479
   700.54         35.1225
   700.68         35.1754
   700.82         35.3042
   700.96         35.4911
   701.10         35.7092
   701.24         35.9299
   701.38         36.1297
   701.52         36.2913
   701.66         36.4036
   701.80         36.4640
   701.94         36.4806
   702.08         36.4691
   702.22         36.4482
   702.36         36.4341
   702.50         36.4339
   702.64         36.4477
   702.78         36.4719
   702.92         36.5033
   703.06         36.5419
   703.20         36.5862
   703.34         36.6283
   703.48         36.6570
   703.62         36.6654
   703.76         36.6531
   703.90         36.6249
   704.04         36.5895
   704.18         36.5526
   704.32         36.5165
   704.46         36.4836
   704.60         36.4567
   704.74         36.4373
   704.88         36.4249
   705.02         36.4156
   705.16         36.4061
   705.30         36.3990
   705.44         36.3992
   705.58         36.4096
   705.72         36.4308
   705.86         36.4623
   706.00         36.5031
   706.14         36.5548
   706.28         36.6193
   706.42         36.6942
   706.56         36.7722
   706.70         36.8440
   706.84         36.9053
   706.98         36.9600
   707.12         37.0133
   707.26         37.0642
   707.40         37.1068
   707.54         37.1330
   707.68         37.1360
   707.82         37.1146
   707.96         37.0731
   708.10         37.0153
   708.24         36.9439
   708.38         36.8627
   708.52         36.7785
   708.66         36.6991
   708.80         36.6290
   708.94         36.5671
   709.08         36.5091
   709.22         36.4527
   709.36         36.3997
   709.50         36.3529
   709.64         36.3102
   709.78         36.2639
   709.92         36.2060
   710.06         36.1331
   710.20         36.0474
   710.34         35.9537
   710.48         35.8584
   710.62         35.7677
   710.76         35.6878
   710.90         35.6256
   711.04         35.5876
   711.18         35.5786
   711.32         35.6033
   711.46         35.6650
   711.60         35.7616
   711.74         35.8853
   711.88         36.0267
   712.02         36.1786
   712.16         36.3370
   712.30         36.4969
   712.44         36.6521
   712.58         36.7981
   712.72         36.9328
   712.86         37.0551
   713.00         37.1616
   713.14         37.2468
   713.28         37.3023
   713.42         37.3190
   713.56         37.2926
   713.70         37.2267
   713.84         37.1308
   713.98         37.0181
   714.12         36.9017
   714.26         36.7939
   714.40         36.7090
   714.54         36.6617
   714.68         36.6575
   714.82         36.6905
   714.96         36.7458
   715.10         36.8056
   715.24         36.8522
   715.38         36.8680
   715.52         36.8356
   715.66         36.7403
   715.80         36.5716
   715.94         36.3254
   716.08         36.0059
   716.22         35.6257
   716.36         35.2006
   716.50         34.7480
   716.64         34.2894
   716.78         33.8458
   716.92         33.4343
   717.06         33.0669
   717.20         32.7467
   717.34         32.4680
   717.48         32.2276
   717.62         32.0303
   717.76         31.8835
   717.90         31.7863
   718.04         31.7283
   718.18         31.6976
   718.32         31.6879
   718.46         31.6986
   718.60         31.7299
   718.74         31.7797
   718.88         31.8456
   719.02         31.9276
   719.16         32.0242
   719.30         32.1286
   719.44         32.2316
   719.58         32.3285
   719.72         32.4215
   719.86         32.5186
   720.00         32.6330
   720.14         32.7795
   720.28         32.9658
   720.42         33.1853
   720.56         33.4238
   720.70         33.6709
   720.84         33.9204
   720.98         34.1622
   721.12         34.3800
   721.26         34.5603
   721.40         34.6974
   721.54         34.7930
   721.68         34.8538
   721.82         34.8854
   721.96         34.8919
   722.10         34.8746
   722.24         34.8331
   722.38         34.7677
   722.52         34.6799
   722.66         34.5681
   722.80         34.4297
   722.94         34.2659
   723.08         34.0809
   723.22         33.8833
   723.36         33.6887
   723.50         33.5132
   723.64         33.3692
   723.78         33.2662
   723.92         33.2052
   724.06         33.1764
   724.20         33.1684
   724.34         33.1729
   724.48         33.1789
   724.62         33.1745
   724.76         33.1529
   724.90         33.1135
   725.04         33.0573
   725.18         32.9806
   725.32         32.8799
   725.46         32.7658
   725.60         32.6597
   725.74         32.5778
   725.88         32.5286
   726.02         32.5120
   726.16         32.5155
   726.30         32.5169
   726.44         32.4959
   726.58         32.4426
   726.72         32.3632
   726.86         32.2754
   727.00         32.1960
   727.14         32.1374
   727.28         32.1086
   727.42         32.1093
   727.56         32.1285
   727.70         32.1509
   727.84         32.1632
   727.98         32.1590
   728.12         32.1368
   728.26         32.0874
   728.40         31.9960
   728.54         31.8572
   728.68         31.6773
   728.82         31.4706
   728.96         31.2539
   729.10         31.0457
   729.24         30.8643
   729.38         30.7227
   729.52         30.6244
   729.66         30.5588
   729.80         30.5084
   729.94         30.4580
   730.08         30.3998
   730.22         30.3355
   730.36         30.2738
   730.50         30.2252
   730.64         30.1982
   730.78         30.1965
   730.92         30.2181
   731.06         30.2577
   731.20         30.3100
   731.34         30.3695
   731.48         30.4294
   731.62         30.4856
   731.76         30.5397
   731.90         30.5979
   732.04         30.6660
   732.18         30.7452
   732.32         30.8333
   732.46         30.9310
   732.60         31.0385
   732.74         31.1513
   732.88         31.2625
   733.02         31.3632
   733.16         31.4456
   733.30         31.5048
   733.44         31.5380
   733.58         31.5436
   733.72         31.5198
   733.86         31.4645
   734.00         31.3768
   734.14         31.2570
   734.28         31.1084
   734.42         30.9359
   734.56         30.7472
   734.70         30.5533
   734.84         30.3652
   734.98         30.1894
   735.12         30.0297
   735.26         29.8889
   735.40         29.7726
   735.54         29.6861
   735.68         29.6314
   735.82         29.6078
   735.96         29.6116
   736.10         29.6354
   736.24         29.6711
   736.38         29.7117
   736.52         29.7517
   736.66         29.7857
   736.80         29.8101
   736.94         29.8237
   737.08         29.8251
   737.22         29.8102
   737.36         29.7741
   737.50         29.7157
   737.64         29.6401
   737.78         29.5584
   737.92         29.4847
   738.06         29.4312
   738.20         29.4031
   738.34         29.3987
   738.48         29.4140
   738.62         29.4451
   738.76         29.4868
   738.90         29.5329
   739.04         29.5756
   739.18         29.6031
   739.32         29.6019
   739.46         29.5624
   739.60         29.4788
   739.74         29.3481
   739.88         29.1747
   740.02         28.9731
   740.16         28.7616
   740.30         28.5574
   740.44         28.3752
   740.58         28.2274
   740.72         28.1246
   740.86         28.0732
   741.00         28.0741
   741.14         28.1226
   741.28         28.2081
   741.42         28.3163
   741.56         28.4344
   741.70         28.5529
   741.84         28.6612
   741.98         28.7498
   742.12         28.8139
   742.26         28.8528
   742.40         28.8702
   742.54         28.8741
   742.68         28.8721
   742.82         28.8696
   742.96         28.8696
   743.10         28.8721
   743.24         28.8741
   743.38         28.8702
   743.52         28.8528
   743.66         28.8139
   743.80         28.7498
   743.94         28.6612
   744.08         28.5529
   744.22         28.4344
