# File SAO23888
# Wavelength [nm]    Normalized Amplitude
   349.70         3.0352
   349.84         3.3015
   349.98         3.5693
   350.12         3.8220
   350.26         4.0406
   350.40         4.2124
   350.54         4.3399
   350.68         4.4360
   350.82         4.5121
   350.96         4.5689
   351.10         4.5917
   351.24         4.5689
   351.38         4.5121
   351.52         4.4360
   351.66         4.3399
   351.80         4.2124
   351.94         4.0406
   352.08         3.8220
   352.22         3.5693
   352.36         3.3015
   352.50         3.0352
   352.64         2.7879
   352.78         2.5812
   352.92         2.4360
   353.06         2.3678
   353.20         2.3853
   353.34         2.4890
   353.48         2.6721
   353.62         2.9242
   353.76         3.2284
   353.90         3.5589
   354.04         3.8832
   354.18         4.1684
   354.32         4.3928
   354.46         4.5500
   354.60         4.6405
   354.74         4.6669
   354.88         4.6353
   355.02         4.5563
   355.16         4.4439
   355.30         4.3167
   355.44         4.1885
   355.58         4.0570
   355.72         3.9083
   355.86         3.7343
   356.00         3.5387
   356.14         3.3243
   356.28         3.0893
   356.42         2.8372
   356.56         2.5850
   356.70         2.3605
   356.84         2.1876
   356.98         2.0729
   357.12         2.0111
   357.26         1.9978
   357.40         2.0323
   357.54         2.1146
   357.68         2.2357
   357.82         2.3770
   357.96         2.5192
   358.10         2.6475
   358.24         2.7536
   358.38         2.8352
   358.52         2.8973
   358.66         2.9498
   358.80         3.0029
   358.94         3.0624
   359.08         3.1310
   359.22         3.2101
   359.36         3.3019
   359.50         3.4110
   359.64         3.5431
   359.78         3.7042
   359.92         3.8939
   360.06         4.1007
   360.20         4.3049
   360.34         4.4867
   360.48         4.6331
   360.62         4.7410
   360.76         4.8121
   360.90         4.8401
   361.04         4.8126
   361.18         4.7271
   361.32         4.5924
   361.46         4.4200
   361.60         4.2216
   361.74         4.0098
   361.88         3.7967
   362.02         3.5914
   362.16         3.3952
   362.30         3.2030
   362.44         3.0105
   362.58         2.8176
   362.72         2.6324
   362.86         2.4655
   363.00         2.3243
   363.14         2.2138
   363.28         2.1364
   363.42         2.0881
   363.56         2.0628
   363.70         2.0630
   363.84         2.1010
   363.98         2.1853
   364.12         2.3118
   364.26         2.4665
   364.40         2.6323
   364.54         2.7977
   364.68         2.9515
   364.82         3.0837
   364.96         3.1921
   365.10         3.2776
   365.24         3.3388
   365.38         3.3727
   365.52         3.3745
   365.66         3.3402
   365.80         3.2674
   365.94         3.1606
   366.08         3.0356
   366.22         2.9116
   366.36         2.8049
   366.50         2.7299
   366.64         2.6991
   366.78         2.7237
   366.92         2.8093
   367.06         2.9498
   367.20         3.1325
   367.34         3.3438
   367.48         3.5710
   367.62         3.7939
   367.76         3.9838
   367.90         4.1204
   368.04         4.2024
   368.18         4.2430
   368.32         4.2592
   368.46         4.2732
   368.60         4.3139
   368.74         4.4034
   368.88         4.5486
   369.02         4.7461
   369.16         4.9808
   369.30         5.2282
   369.44         5.4595
   369.58         5.6406
   369.72         5.7404
   369.86         5.7394
   370.00         5.6318
   370.14         5.4285
   370.28         5.1560
   370.42         4.8480
   370.56         4.5422
   370.70         4.2732
   370.84         4.0617
   370.98         3.9143
   371.12         3.8281
   371.26         3.7903
   371.40         3.7819
   371.54         3.7875
   371.68         3.7949
   371.82         3.7930
   371.96         3.7782
   372.10         3.7539
   372.24         3.7253
   372.38         3.7012
   372.52         3.6947
   372.66         3.7185
   372.80         3.7720
   372.94         3.8380
   373.08         3.8933
   373.22         3.9236
   373.36         3.9220
   373.50         3.8806
   373.64         3.7921
   373.78         3.6602
   373.92         3.5002
   374.06         3.3303
   374.20         3.1665
   374.34         3.0245
   374.48         2.9222
   374.62         2.8737
   374.76         2.8800
   374.90         2.9342
   375.04         3.0313
   375.18         3.1675
   375.32         3.3319
   375.46         3.5092
   375.60         3.6897
   375.74         3.8715
   375.88         4.0519
   376.02         4.2206
   376.16         4.3679
   376.30         4.4915
   376.44         4.5933
   376.58         4.6717
   376.72         4.7277
   376.86         4.7716
   377.00         4.8180
   377.14         4.8741
   377.28         4.9347
   377.42         4.9893
   377.56         5.0337
   377.70         5.0704
   377.84         5.0990
   377.98         5.1134
   378.12         5.1118
   378.26         5.0991
   378.40         5.0793
   378.54         5.0475
   378.68         4.9934
   378.82         4.9088
   378.96         4.7900
   379.10         4.6401
   379.24         4.4716
   379.38         4.2984
   379.52         4.1298
   379.66         3.9744
   379.80         3.8411
   379.94         3.7378
   380.08         3.6720
   380.22         3.6487
   380.36         3.6675
   380.50         3.7174
   380.64         3.7808
   380.78         3.8434
   380.92         3.8957
   381.06         3.9270
   381.20         3.9241
   381.34         3.8767
   381.48         3.7849
   381.62         3.6617
   381.76         3.5308
   381.90         3.4180
   382.04         3.3413
   382.18         3.3126
   382.32         3.3384
   382.46         3.4131
   382.60         3.5226
   382.74         3.6535
   382.88         3.7968
   383.02         3.9454
   383.16         4.0916
   383.30         4.2267
   383.44         4.3435
   383.58         4.4401
   383.72         4.5186
   383.86         4.5790
   384.00         4.6215
   384.14         4.6538
   384.28         4.6861
   384.42         4.7193
   384.56         4.7444
   384.70         4.7494
   384.84         4.7270
   384.98         4.6783
   385.12         4.6105
   385.26         4.5350
   385.40         4.4623
   385.54         4.3982
   385.68         4.3449
   385.82         4.3043
   385.96         4.2755
   386.10         4.2588
   386.24         4.2594
   386.38         4.2792
   386.52         4.3137
   386.66         4.3571
   386.80         4.4027
   386.94         4.4394
   387.08         4.4584
   387.22         4.4598
   387.36         4.4494
   387.50         4.4323
   387.64         4.4127
   387.78         4.3943
   387.92         4.3820
   388.06         4.3796
   388.20         4.3857
   388.34         4.3942
   388.48         4.4024
   388.62         4.4131
   388.76         4.4342
   388.90         4.4750
   389.04         4.5413
   389.18         4.6315
   389.32         4.7385
   389.46         4.8586
   389.60         4.9952
   389.74         5.1503
   389.88         5.3155
   390.02         5.4756
   390.16         5.6171
   390.30         5.7309
   390.44         5.8105
   390.58         5.8492
   390.72         5.8384
   390.86         5.7712
   391.00         5.6511
   391.14         5.4936
   391.28         5.3165
   391.42         5.1326
   391.56         4.9495
   391.70         4.7666
   391.84         4.5772
   391.98         4.3785
   392.12         4.1726
   392.26         3.9607
   392.40         3.7408
   392.54         3.5156
   392.68         3.2979
   392.82         3.1053
   392.96         2.9503
   393.10         2.8399
   393.24         2.7810
   393.38         2.7808
   393.52         2.8451
   393.66         2.9754
   393.80         3.1665
   393.94         3.4094
   394.08         3.6983
   394.22         4.0315
   394.36         4.4057
   394.50         4.8121
   394.64         5.2346
   394.78         5.6483
   394.92         6.0233
   395.06         6.3281
   395.20         6.5343
   395.34         6.6220
   395.48         6.5819
   395.62         6.4153
   395.76         6.1358
   395.90         5.7693
   396.04         5.3501
   396.18         4.9155
   396.32         4.5050
   396.46         4.1615
   396.60         3.9267
   396.74         3.8269
   396.88         3.8618
   397.02         4.0113
   397.16         4.2495
   397.30         4.5526
   397.44         4.8989
   397.58         5.2680
   397.72         5.6415
   397.86         6.0071
   398.00         6.3590
   398.14         6.6921
   398.28         6.9998
   398.42         7.2773
   398.56         7.5267
   398.70         7.7587
   398.84         7.9860
   398.98         8.2184
   399.12         8.4607
   399.26         8.7113
   399.40         8.9647
   399.54         9.2180
   399.68         9.4718
   399.82         9.7274
   399.96         9.9804
   400.10         10.2214
   400.24         10.4438
   400.38         10.6486
   400.52         10.8423
   400.66         11.0310
   400.80         11.2167
   400.94         11.3974
   401.08         11.5705
   401.22         11.7368
   401.36         11.8990
   401.50         12.0582
   401.64         12.2131
   401.78         12.3576
   401.92         12.4789
   402.06         12.5602
   402.20         12.5889
   402.34         12.5618
   402.48         12.4888
   402.62         12.3874
   402.76         12.2768
   402.90         12.1740
   403.04         12.0879
   403.18         12.0143
   403.32         11.9402
   403.46         11.8512
   403.60         11.7442
   403.74         11.6337
   403.88         11.5410
   404.02         11.4821
   404.16         11.4588
   404.30         11.4581
   404.44         11.4626
   404.58         11.4598
   404.72         11.4468
   404.86         11.4269
   405.00         11.4016
   405.14         11.3656
   405.28         11.3075
   405.42         11.2169
   405.56         11.0925
   405.70         10.9445
   405.84         10.7913
   405.98         10.6560
   406.12         10.5612
   406.26         10.5254
   406.40         10.5510
   406.54         10.6183
   406.68         10.6977
   406.82         10.7641
   406.96         10.8065
   407.10         10.8257
   407.24         10.8301
   407.38         10.8352
   407.52         10.8627
   407.66         10.9373
   407.80         11.0822
   407.94         11.3128
   408.08         11.6321
   408.22         12.0287
   408.36         12.4764
   408.50         12.9386
   408.64         13.3754
   408.78         13.7493
   408.92         14.0290
   409.06         14.1961
   409.20         14.2523
   409.34         14.2191
   409.48         14.1300
   409.62         14.0200
   409.76         13.9171
   409.90         13.8423
   410.04         13.8096
   410.18         13.8218
   410.32         13.8694
   410.46         13.9337
   410.60         13.9934
   410.74         14.0288
   410.88         14.0225
   411.02         13.9631
   411.16         13.8515
   411.30         13.7005
   411.44         13.5280
   411.58         13.3541
   411.72         13.1981
   411.86         13.0731
   412.00         12.9813
   412.14         12.9138
   412.28         12.8557
   412.42         12.7944
   412.56         12.7250
   412.70         12.6489
   412.84         12.5688
   412.98         12.4866
   413.12         12.4025
   413.26         12.3159
   413.40         12.2279
   413.54         12.1438
   413.68         12.0716
   413.82         12.0178
   413.96         11.9815
   414.10         11.9535
   414.24         11.9248
   414.38         11.8922
   414.52         11.8620
   414.66         11.8482
   414.80         11.8661
   414.94         11.9281
   415.08         12.0414
   415.22         12.2046
   415.36         12.4048
   415.50         12.6198
   415.64         12.8240
   415.78         12.9952
   415.92         13.1176
   416.06         13.1798
   416.20         13.1725
   416.34         13.0894
   416.48         12.9324
   416.62         12.7137
   416.76         12.4576
   416.90         12.1978
   417.04         11.9701
   417.18         11.8071
   417.32         11.7311
   417.46         11.7507
   417.60         11.8620
   417.74         12.0536
   417.88         12.3060
   418.02         12.5946
   418.16         12.8940
   418.30         13.1792
   418.44         13.4255
   418.58         13.6120
   418.72         13.7237
   418.86         13.7521
   419.00         13.6969
   419.14         13.5690
   419.28         13.3882
   419.42         13.1796
   419.56         12.9729
   419.70         12.8015
   419.84         12.6969
   419.98         12.6804
   420.12         12.7581
   420.26         12.9219
   420.40         13.1540
   420.54         13.4353
   420.68         13.7545
   420.82         14.1033
   420.96         14.4687
   421.10         14.8324
   421.24         15.1680
   421.38         15.4377
   421.52         15.6026
   421.66         15.6387
   421.80         15.5446
   421.94         15.3388
   422.08         15.0501
   422.22         14.7117
   422.36         14.3556
   422.50         14.0090
   422.64         13.6968
   422.78         13.4457
   422.92         13.2874
   423.06         13.2622
   423.20         13.4112
   423.34         13.7531
   423.48         14.2687
   423.62         14.9053
   423.76         15.5937
   423.90         16.2622
   424.04         16.8505
   424.18         17.3199
   424.32         17.6519
   424.46         17.8422
   424.60         17.8927
   424.74         17.8069
   424.88         17.5996
   425.02         17.3075
   425.16         16.9872
   425.30         16.7051
   425.44         16.5239
   425.58         16.4884
   425.72         16.6109
   425.86         16.8645
   426.00         17.1919
   426.14         17.5255
   426.28         17.8078
   426.42         18.0047
   426.56         18.1078
   426.70         18.1250
   426.84         18.0729
   426.98         17.9741
   427.12         17.8573
   427.26         17.7514
   427.40         17.6786
   427.54         17.6505
   427.68         17.6632
   427.82         17.6951
   427.96         17.7137
   428.10         17.6894
   428.24         17.6006
   428.38         17.4373
   428.52         17.2055
   428.66         16.9237
   428.80         16.6148
   428.94         16.3045
   429.08         16.0194
   429.22         15.7785
   429.36         15.5834
   429.50         15.4230
   429.64         15.2855
   429.78         15.1645
   429.92         15.0596
   430.06         14.9769
   430.20         14.9318
   430.34         14.9581
   430.48         15.1085
   430.62         15.4406
   430.76         15.9916
   430.90         16.7611
   431.04         17.7123
   431.18         18.7809
   431.32         19.8850
   431.46         20.9446
   431.60         21.9025
   431.74         22.7265
   431.88         23.4018
   432.02         23.9307
   432.16         24.3385
   432.30         24.6686
   432.44         24.9592
   432.58         25.2266
   432.72         25.4638
   432.86         25.6523
   433.00         25.7794
   433.14         25.8397
   433.28         25.8262
   433.42         25.7299
   433.56         25.5510
   433.70         25.3068
   433.84         25.0267
   433.98         24.7459
   434.12         24.5118
   434.26         24.3826
   434.40         24.4046
   434.54         24.5987
   434.68         24.9563
   434.82         25.4438
   434.96         26.0143
   435.10         26.6200
   435.24         27.2306
   435.38         27.8369
   435.52         28.4379
   435.66         29.0302
   435.80         29.5989
   435.94         30.1152
   436.08         30.5385
   436.22         30.8256
   436.36         30.9444
   436.50         30.8838
   436.64         30.6617
   436.78         30.3183
   436.92         29.8886
   437.06         29.3835
   437.20         28.7973
   437.34         28.1305
   437.48         27.4061
   437.62         26.6636
   437.76         25.9408
   437.90         25.2666
   438.04         24.6609
   438.18         24.1404
   438.32         23.7271
   438.46         23.4501
   438.60         23.3342
   438.74         23.3884
   438.88         23.6095
   439.02         23.9846
   439.16         24.4787
   439.30         25.0235
   439.44         25.5284
   439.58         25.9105
   439.72         26.1264
   439.86         26.1858
   440.00         26.1363
   440.14         26.0327
   440.28         25.9167
   440.42         25.8153
   440.56         25.7513
   440.70         25.7457
   440.84         25.8108
   440.98         25.9462
   441.12         26.1393
   441.26         26.3673
   441.40         26.6020
   441.54         26.8139
   441.68         26.9756
   441.82         27.0663
   441.96         27.0820
   442.10         27.0406
   442.24         26.9665
   442.38         26.8803
   442.52         26.8003
   442.66         26.7387
   442.80         26.6985
   442.94         26.6782
   443.08         26.6791
   443.22         26.7122
   443.36         26.7966
   443.50         26.9544
   443.64         27.2030
   443.78         27.5521
   443.92         27.9973
   444.06         28.5132
   444.20         29.0537
   444.34         29.5648
   444.48         29.9961
   444.62         30.3010
   444.76         30.4371
   444.90         30.3779
   445.04         30.1281
   445.18         29.7222
   445.32         29.2070
   445.46         28.6298
   445.60         28.0406
   445.74         27.4979
   445.88         27.0660
   446.02         26.8066
   446.16         26.7665
   446.30         26.9724
   446.44         27.4326
   446.58         28.1335
   446.72         29.0330
   446.86         30.0632
   447.00         31.1499
   447.14         32.2315
   447.28         33.2697
   447.42         34.2484
   447.56         35.1569
   447.70         35.9763
   447.84         36.6836
   447.98         37.2578
   448.12         37.6782
   448.26         37.9278
   448.40         38.0037
   448.54         37.9297
   448.68         37.7574
   448.82         37.5499
   448.96         37.3703
   449.10         37.2789
   449.24         37.3238
   449.38         37.5326
   449.52         37.9201
   449.66         38.4948
   449.80         39.2502
   449.94         40.1491
   450.08         41.1163
   450.22         42.0527
   450.36         42.8682
   450.50         43.5016
   450.64         43.9185
   450.78         44.1097
   450.92         44.0914
   451.06         43.8990
   451.20         43.5777
   451.34         43.1686
   451.48         42.6939
   451.62         42.1589
   451.76         41.5595
   451.90         40.8857
   452.04         40.1302
   452.18         39.2973
   452.32         38.4068
   452.46         37.4989
   452.60         36.6340
   452.74         35.8774
   452.88         35.2868
   453.02         34.9115
   453.16         34.7860
   453.30         34.9185
   453.44         35.2885
   453.58         35.8478
   453.72         36.5284
   453.86         37.2588
   454.00         37.9658
   454.14         38.5745
   454.28         39.0293
   454.42         39.3157
   454.56         39.4612
   454.70         39.5171
   454.84         39.5373
   454.98         39.5689
   455.12         39.6460
   455.26         39.7844
   455.40         39.9853
   455.54         40.2546
   455.68         40.6060
   455.82         41.0388
   455.96         41.5301
   456.10         42.0535
   456.24         42.5867
   456.38         43.1051
   456.52         43.5787
   456.66         43.9731
   456.80         44.2627
   456.94         44.4453
   457.08         44.5355
   457.22         44.5470
   457.36         44.4869
   457.50         44.3680
   457.64         44.2182
   457.78         44.0755
   457.92         43.9774
   458.06         43.9472
   458.20         43.9882
   458.34         44.0868
   458.48         44.2211
   458.62         44.3737
   458.76         44.5317
   458.90         44.6744
   459.04         44.7727
   459.18         44.8003
   459.32         44.7468
   459.46         44.6394
   459.60         44.5498
   459.74         44.5674
   459.88         44.7649
   460.02         45.1839
   460.16         45.8390
   460.30         46.7194
   460.44         47.7897
   460.58         49.0029
   460.72         50.3104
   460.86         51.6652
   461.00         53.0191
   461.14         54.3168
   461.28         55.4933
   461.42         56.4794
   461.56         57.2136
   461.70         57.6624
   461.84         57.8356
   461.98         57.7778
   462.12         57.5439
   462.26         57.1724
   462.40         56.6735
   462.54         56.0424
   462.68         55.2814
   462.82         54.4181
   462.96         53.5031
   463.10         52.5921
   463.24         51.7270
   463.38         50.9262
   463.52         50.1937
   463.66         49.5358
   463.80         48.9653
   463.94         48.4953
   464.08         48.1363
   464.22         47.8955
   464.36         47.7834
   464.50         47.8191
   464.64         48.0257
   464.78         48.4225
   464.92         49.0179
   465.06         49.8016
   465.20         50.7355
   465.34         51.7515
   465.48         52.7554
   465.62         53.6353
   465.76         54.2805
   465.90         54.6101
   466.04         54.5953
   466.18         54.2636
   466.32         53.6894
   466.46         52.9728
   466.60         52.2173
   466.74         51.5126
   466.88         50.9252
   467.02         50.5100
   467.16         50.3129
   467.30         50.3419
   467.44         50.5510
   467.58         50.8577
   467.72         51.1764
   467.86         51.4406
   468.00         51.6167
   468.14         51.7144
   468.28         51.7863
   468.42         51.9081
   468.56         52.1406
   468.70         52.5080
   468.84         53.0063
   468.98         53.6099
   469.12         54.2709
   469.26         54.9221
   469.40         55.4876
   469.54         55.9041
   469.68         56.1446
   469.82         56.2201
   469.96         56.1665
   470.10         56.0296
   470.24         55.8548
   470.38         55.6875
   470.52         55.5793
   470.66         55.5894
   470.80         55.7714
   470.94         56.1488
   471.08         56.7090
   471.22         57.4152
   471.36         58.2189
   471.50         59.0512
   471.64         59.8160
   471.78         60.4160
   471.92         60.7813
   472.06         60.8823
   472.20         60.7307
   472.34         60.3718
   472.48         59.8708
   472.62         59.2946
   472.76         58.6986
   472.90         58.1334
   473.04         57.6575
   473.18         57.3344
   473.32         57.2120
   473.46         57.3039
   473.60         57.5907
   473.74         58.0382
   473.88         58.6052
   474.02         59.2335
   474.16         59.8556
   474.30         60.4204
   474.44         60.9083
   474.58         61.3163
   474.72         61.6374
   474.86         61.8538
   475.00         61.9430
   475.14         61.8848
   475.28         61.6604
   475.42         61.2605
   475.56         60.7027
   475.70         60.0391
   475.84         59.3397
   475.98         58.6733
   476.12         58.1008
   476.26         57.6770
   476.40         57.4498
   476.54         57.4462
   476.68         57.6644
   476.82         58.0769
   476.96         58.6344
   477.10         59.2698
   477.24         59.9093
   477.38         60.4898
   477.52         60.9636
   477.66         61.2954
   477.80         61.4674
   477.94         61.4899
   478.08         61.4139
   478.22         61.3187
   478.36         61.2767
   478.50         61.3305
   478.64         61.4906
   478.78         61.7471
   478.92         62.0867
   479.06         62.5002
   479.20         62.9659
   479.34         63.4383
   479.48         63.8621
   479.62         64.1914
   479.76         64.4039
   479.90         64.5021
   480.04         64.5010
   480.18         64.4160
   480.32         64.2688
   480.46         64.1009
   480.60         63.9746
   480.74         63.9540
   480.88         64.0749
   481.02         64.3342
   481.16         64.7044
   481.30         65.1540
   481.44         65.6581
   481.58         66.1899
   481.72         66.7105
   481.86         67.1622
   482.00         67.4803
   482.14         67.6221
   482.28         67.5842
   482.42         67.3971
   482.56         67.1020
   482.70         66.7366
   482.84         66.3401
   482.98         65.9595
   483.12         65.6450
   483.26         65.4388
   483.40         65.3635
   483.54         65.4156
   483.68         65.5688
   483.82         65.7879
   483.96         66.0403
   484.10         66.2918
   484.24         66.5037
   484.38         66.6389
   484.52         66.6682
   484.66         66.5709
   484.80         66.3269
   484.94         65.9135
   485.08         65.3124
   485.22         64.5214
   485.36         63.5720
   485.50         62.5318
   485.64         61.4868
   485.78         60.5180
   485.92         59.6838
   486.06         59.0120
   486.20         58.5042
   486.34         58.1536
   486.48         57.9646
   486.62         57.9512
   486.76         58.1170
   486.90         58.4430
   487.04         58.8890
   487.18         59.4016
   487.32         59.9164
   487.46         60.3679
   487.60         60.7214
   487.74         60.9798
   487.88         61.1639
   488.02         61.3042
   488.16         61.4466
   488.30         61.6541
   488.44         62.0001
   488.58         62.5500
   488.72         63.3442
   488.86         64.3911
   489.00         65.6718
   489.14         67.1411
   489.28         68.7227
   489.42         70.3164
   489.56         71.8179
   489.70         73.1328
   489.84         74.1778
   489.98         74.8927
   490.12         75.2598
   490.26         75.3093
   490.40         75.1185
   490.54         74.7877
   490.68         74.3979
   490.82         73.9877
   490.96         73.5616
   491.10         73.1040
   491.24         72.5910
   491.38         72.0088
   491.52         71.3828
   491.66         70.7862
   491.80         70.3109
   491.94         70.0351
   492.08         70.0009
   492.22         70.2008
   492.36         70.5879
   492.50         71.0962
   492.64         71.6569
   492.78         72.2048
   492.92         72.6878
   493.06         73.0697
   493.20         73.3194
   493.34         73.4208
   493.48         73.4113
   493.62         73.3868
   493.76         73.4656
   493.90         73.7530
   494.04         74.3161
   494.18         75.1696
   494.32         76.2575
   494.46         77.4473
   494.60         78.5568
   494.74         79.4141
   494.88         79.9075
   495.02         79.9884
   495.16         79.6571
   495.30         78.9517
   495.44         77.9484
   495.58         76.7561
   495.72         75.4924
   495.86         74.2699
   496.00         73.1974
   496.14         72.3761
   496.28         71.8770
   496.42         71.7237
   496.56         71.8875
   496.70         72.2906
   496.84         72.8186
   496.98         73.3338
   497.12         73.7059
   497.26         73.8502
   497.40         73.7438
   497.54         73.3989
   497.68         72.8378
   497.82         72.1011
   497.96         71.2585
   498.10         70.4057
   498.24         69.6516
   498.38         69.0922
   498.52         68.7858
   498.66         68.7389
   498.80         68.9030
   498.94         69.1900
   499.08         69.4971
   499.22         69.7243
   499.36         69.7859
   499.50         69.6309
   499.64         69.2628
   499.78         68.7389
   499.92         68.1418
   500.06         67.5445
   500.20         66.9936
   500.34         66.5141
   500.48         66.1209
   500.62         65.8220
   500.76         65.6145
   500.90         65.4859
   501.04         65.4158
   501.18         65.3835
   501.32         65.3849
   501.46         65.4375
   501.60         65.5721
   501.74         65.8253
   501.88         66.2360
   502.02         66.8421
   502.16         67.6709
   502.30         68.7048
   502.44         69.8613
   502.58         71.0115
   502.72         72.0074
   502.86         72.7174
   503.00         73.0629
   503.14         73.0422
   503.28         72.7246
   503.42         72.2190
   503.56         71.6449
   503.70         71.1079
   503.84         70.6896
   503.98         70.4554
   504.12         70.4672
   504.26         70.7864
   504.40         71.4564
   504.54         72.4821
   504.68         73.8168
   504.82         75.3700
   504.96         77.0182
   505.10         78.6254
   505.24         80.0647
   505.38         81.2360
   505.52         82.0875
   505.66         82.6159
   505.80         82.8423
   505.94         82.7818
   506.08         82.4389
   506.22         81.8288
   506.36         80.9936
   506.50         80.0044
   506.64         78.9408
   506.78         77.8675
   506.92         76.8260
   507.06         75.8417
   507.20         74.9387
   507.34         74.1458
   507.48         73.4921
   507.62         72.9975
   507.76         72.6784
   507.90         72.5643
   508.04         72.6989
   508.18         73.1217
   508.32         73.8418
   508.46         74.8173
   508.60         75.9548
   508.74         77.1316
   508.88         78.2229
   509.02         79.1211
   509.16         79.7451
   509.30         80.0470
   509.44         80.0223
   509.58         79.7084
   509.72         79.1609
   509.86         78.4398
   510.00         77.6133
   510.14         76.7598
   510.28         75.9646
   510.42         75.3142
   510.56         74.8852
   510.70         74.7268
   510.84         74.8425
   510.98         75.1819
   511.12         75.6494
   511.26         76.1385
   511.40         76.5604
   511.54         76.8442
   511.68         76.9317
   511.82         76.7854
   511.96         76.4055
   512.10         75.8387
   512.24         75.1755
   512.38         74.5335
   512.52         74.0298
   512.66         73.7545
   512.80         73.7543
   512.94         74.0229
   513.08         74.4996
   513.22         75.0786
   513.36         75.6314
   513.50         76.0334
   513.64         76.1859
   513.78         76.0310
   513.92         75.5592
   514.06         74.8022
   514.20         73.8328
   514.34         72.7708
   514.48         71.7737
   514.62         71.0032
   514.76         70.5869
   514.90         70.5969
   515.04         71.0380
   515.18         71.8395
   515.32         72.8562
   515.46         73.8810
   515.60         74.6848
   515.74         75.0691
   515.88         74.8967
   516.02         74.0957
   516.16         72.6626
   516.30         70.6764
   516.44         68.3040
   516.58         65.7789
   516.72         63.3643
   516.86         61.3062
   517.00         59.7824
   517.14         58.8786
   517.28         58.5993
   517.42         58.8944
   517.56         59.6794
   517.70         60.8371
   517.84         62.2157
   517.98         63.6463
   518.12         64.9812
   518.26         66.1341
   518.40         67.0851
   518.54         67.8582
   518.68         68.5045
   518.82         69.0920
   518.96         69.6848
   519.10         70.2995
   519.24         70.8832
   519.38         71.3360
   519.52         71.5475
   519.66         71.4380
   519.80         70.9990
   519.94         70.3015
   520.08         69.4665
   520.22         68.6257
   520.36         67.8897
   520.50         67.3458
   520.64         67.0765
   520.78         67.1674
   520.92         67.6953
   521.06         68.6824
   521.20         70.0516
   521.34         71.6338
   521.48         73.2185
   521.62         74.6166
   521.76         75.7027
   521.90         76.4357
   522.04         76.8513
   522.18         77.0386
   522.32         77.1299
   522.46         77.2862
   522.60         77.6538
   522.74         78.3226
   522.88         79.3159
   523.02         80.6088
   523.16         82.1393
   523.30         83.7980
   523.44         85.4183
   523.58         86.7900
   523.72         87.6969
   523.86         87.9805
   524.00         87.5921
   524.14         86.5978
   524.28         85.1454
   524.42         83.4233
   524.56         81.6333
   524.70         79.9716
   524.84         78.6113
   524.98         77.6789
   525.12         77.2186
   525.26         77.1790
   525.40         77.4426
   525.54         77.8638
   525.68         78.2840
   525.82         78.5355
   525.96         78.4811
   526.10         78.0672
   526.24         77.3437
   526.38         76.4512
   526.52         75.5966
   526.66         75.0136
   526.80         74.9039
   526.94         75.3876
   527.08         76.4906
   527.22         78.1583
   527.36         80.2731
   527.50         82.6780
   527.64         85.2000
   527.78         87.6781
   527.92         89.9916
   528.06         92.0645
   528.20         93.8414
   528.34         95.2647
   528.48         96.2783
   528.62         96.8468
   528.76         96.9704
   528.90         96.6807
   529.04         96.0432
   529.18         95.1678
   529.32         94.1895
   529.46         93.2389
   529.60         92.4422
   529.74         91.9331
   529.88         91.8368
   530.02         92.2342
   530.16         93.1332
   530.30         94.4633
   530.44         96.0940
   530.58         97.8568
   530.72         99.5665
   530.86         101.0460
   531.00         102.1555
   531.14         102.8141
   531.28         103.0063
   531.42         102.7635
   531.56         102.1248
   531.70         101.1286
   531.84         99.8348
   531.98         98.3316
   532.12         96.7291
   532.26         95.1593
   532.40         93.7624
   532.54         92.6531
   532.68         91.8961
   532.82         91.5031
   532.96         91.4509
   533.10         91.7003
   533.24         92.2019
   533.38         92.8943
   533.52         93.7030
   533.66         94.5448
   533.80         95.3434
   533.94         96.0564
   534.08         96.6924
   534.22         97.3128
   534.36         98.0239
   534.50         98.9479
   534.64         100.1777
   534.78         101.7353
   534.92         103.5572
   535.06         105.5075
   535.20         107.4126
   535.34         109.1036
   535.48         110.4514
   535.62         111.3708
   535.76         111.8030
   535.90         111.7120
   536.04         111.1086
   536.18         110.0848
   536.32         108.8045
   536.46         107.4640
   536.60         106.2599
   536.74         105.3547
   536.88         104.8447
   537.02         104.7474
   537.16         105.0096
   537.30         105.5237
   537.44         106.1487
   537.58         106.7364
   537.72         107.1595
   537.86         107.3184
   538.00         107.1441
   538.14         106.6001
   538.28         105.6769
   538.42         104.3961
   538.56         102.8327
   538.70         101.1264
   538.84         99.4488
   538.98         97.9450
   539.12         96.7015
   539.26         95.7398
   539.40         95.0216
   539.54         94.4775
   539.68         94.0344
   539.82         93.6400
   539.96         93.2845
   540.10         93.0011
   540.24         92.8529
   540.38         92.9170
   540.52         93.2645
   540.66         93.9440
   540.80         94.9669
   540.94         96.3083
   541.08         97.9248
   541.22         99.7608
   541.36         101.7383
   541.50         103.7417
   541.64         105.6130
   541.78         107.1715
   541.92         108.2572
   542.06         108.7764
   542.20         108.7124
   542.34         108.1068
   542.48         107.0633
   542.62         105.7519
   542.76         104.3824
   542.90         103.1638
   543.04         102.2646
   543.18         101.7847
   543.32         101.7433
   543.46         102.0825
   543.60         102.7002
   543.74         103.4823
   543.88         104.3122
   544.02         105.0706
   544.16         105.6299
   544.30         105.8624
   544.44         105.6815
   544.58         105.0801
   544.72         104.1287
   544.86         102.9496
   545.00         101.6966
   545.14         100.5355
   545.28         99.6160
   545.42         99.0345
   545.56         98.8141
   545.70         98.9119
   545.84         99.2438
   545.98         99.7100
   546.12         100.2147
   546.26         100.6813
   546.40         101.0395
   546.54         101.2188
   546.68         101.1658
   546.82         100.8617
   546.96         100.3256
   547.10         99.6196
   547.24         98.8434
   547.38         98.1041
   547.52         97.4936
   547.66         97.0806
   547.80         96.9120
   547.94         97.0171
   548.08         97.4010
   548.22         98.0340
   548.36         98.8517
   548.50         99.7732
   548.64         100.7190
   548.78         101.6156
   548.92         102.4030
   549.06         103.0446
   549.20         103.5334
   549.34         103.8717
   549.48         104.0500
   549.62         104.0589
   549.76         103.9159
   549.90         103.6559
   550.04         103.2972
   550.18         102.8429
   550.32         102.3050
   550.46         101.7291
   550.60         101.1973
   550.74         100.8071
   550.88         100.6415
   551.02         100.7579
   551.16         101.1898
   551.30         101.9358
   551.44         102.9468
   551.58         104.1354
   551.72         105.4004
   551.86         106.6444
   552.00         107.7764
   552.14         108.7198
   552.28         109.4203
   552.42         109.8468
   552.56         109.9949
   552.70         109.8999
   552.84         109.6507
   552.98         109.3687
   553.12         109.1709
   553.26         109.1387
   553.40         109.3063
   553.54         109.6717
   553.68         110.2169
   553.82         110.9157
   553.96         111.7288
   554.10         112.6052
   554.24         113.4962
   554.38         114.3641
   554.52         115.1787
   554.66         115.9085
   554.80         116.5189
   554.94         116.9815
   555.08         117.2815
   555.22         117.4151
   555.36         117.3839
   555.50         117.1878
   555.64         116.8289
   555.78         116.3231
   555.92         115.7092
   556.06         115.0488
   556.20         114.4119
   556.34         113.8598
   556.48         113.4334
   556.62         113.1563
   556.76         113.0432
   556.90         113.1017
   557.04         113.3236
   557.18         113.6764
   557.32         114.0919
   557.46         114.4703
   557.60         114.6968
   557.74         114.6700
   557.88         114.3311
   558.02         113.6704
   558.16         112.7226
   558.30         111.5675
   558.44         110.3209
   558.58         109.1076
   558.72         108.0369
   558.86         107.1844
   559.00         106.5883
   559.14         106.2581
   559.28         106.1920
   559.42         106.3921
   559.56         106.8570
   559.70         107.5660
   559.84         108.4747
   559.98         109.5249
   560.12         110.6566
   560.26         111.8046
   560.40         112.9002
   560.54         113.8818
   560.68         114.6938
   560.82         115.2899
   560.96         115.6393
   561.10         115.7152
   561.24         115.4830
   561.38         114.9188
   561.52         114.0421
   561.66         112.9334
   561.80         111.7270
   561.94         110.5864
   562.08         109.6667
   562.22         109.0696
   562.36         108.8218
   562.50         108.8858
   562.64         109.1890
   562.78         109.6409
   562.92         110.1448
   563.06         110.6255
   563.20         111.0423
   563.34         111.3720
   563.48         111.5948
   563.62         111.6967
   563.76         111.6780
   563.90         111.5690
   564.04         111.4378
   564.18         111.3776
   564.32         111.4696
   564.46         111.7417
   564.60         112.1563
   564.74         112.6254
   564.88         113.0408
   565.02         113.3035
   565.16         113.3521
   565.30         113.1845
   565.44         112.8368
   565.58         112.3495
   565.72         111.7633
   565.86         111.1291
   566.00         110.5109
   566.14         109.9915
   566.28         109.6652
   566.42         109.6184
   566.56         109.9006
   566.70         110.5046
   566.84         111.3715
   566.98         112.4031
   567.12         113.4817
   567.26         114.5058
   567.40         115.4064
   567.54         116.1381
   567.68         116.6725
   567.82         117.0081
   567.96         117.1790
   568.10         117.2416
   568.24         117.2620
   568.38         117.3085
   568.52         117.4348
   568.66         117.6624
   568.80         117.9705
   568.94         118.2903
   569.08         118.5193
   569.22         118.5489
   569.36         118.2913
   569.50         117.6908
   569.64         116.7239
   569.78         115.4056
   569.92         113.7963
   570.06         112.0027
   570.20         110.1792
   570.34         108.5168
   570.48         107.2029
   570.62         106.3788
   570.76         106.1205
   570.90         106.4402
   571.04         107.3007
   571.18         108.6309
   571.32         110.3266
   571.46         112.2478
   571.60         114.2366
   571.74         116.1470
   571.88         117.8573
   572.02         119.2701
   572.16         120.3232
   572.30         121.0072
   572.44         121.3626
   572.58         121.4609
   572.72         121.3911
   572.86         121.2399
   573.00         121.0703
   573.14         120.9162
   573.28         120.8011
   573.42         120.7502
   573.56         120.7703
   573.70         120.8369
   573.84         120.9135
   573.98         120.9671
   574.12         120.9722
   574.26         120.9225
   574.40         120.8445
   574.54         120.7876
   574.68         120.7979
   574.82         120.8966
   574.96         121.0704
   575.10         121.2903
   575.24         121.5421
   575.38         121.8354
   575.52         122.1869
   575.66         122.6076
   575.80         123.0962
   575.94         123.6385
   576.08         124.2059
   576.22         124.7521
   576.36         125.2306
   576.50         125.6048
   576.64         125.8285
   576.78         125.8251
   576.92         125.5011
   577.06         124.7837
   577.20         123.6305
   577.34         122.0341
   577.48         120.0496
   577.62         117.8142
   577.76         115.5278
   577.90         113.4039
   578.04         111.6264
   578.18         110.3400
   578.32         109.6424
   578.46         109.5628
   578.60         110.0637
   578.74         111.0730
   578.88         112.5111
   579.02         114.2849
   579.16         116.2679
   579.30         118.3031
   579.44         120.2329
   579.58         121.9492
   579.72         123.4184
   579.86         124.6571
   580.00         125.7044
   580.14         126.5988
   580.28         127.3575
   580.42         127.9799
   580.56         128.4732
   580.70         128.8667
   580.84         129.2018
   580.98         129.5099
   581.12         129.8101
   581.26         130.1306
   581.40         130.5157
   581.54         130.9971
   581.68         131.5686
   581.82         132.2039
   581.96         132.8809
   582.10         133.5778
   582.24         134.2616
   582.38         134.8869
   582.52         135.4016
   582.66         135.7540
   582.80         135.9073
   582.94         135.8621
   583.08         135.6620
   583.22         135.3705
   583.36         135.0378
   583.50         134.6809
   583.64         134.2959
   583.78         133.8737
   583.92         133.3966
   584.06         132.8329
   584.20         132.1434
   584.34         131.2979
   584.48         130.2747
   584.62         129.0621
   584.76         127.6795
   584.90         126.1947
   585.04         124.7147
   585.18         123.3543
   585.32         122.2117
   585.46         121.3574
   585.60         120.8308
   585.74         120.6414
   585.88         120.7651
   586.02         121.1464
   586.16         121.7168
   586.30         122.4131
   586.44         123.1677
   586.58         123.8947
   586.72         124.5008
   586.86         124.9109
   587.00         125.0873
   587.14         125.0272
   587.28         124.7449
   587.42         124.2436
   587.56         123.4691
   587.70         122.2818
   587.84         120.5185
   587.98         118.0995
   588.12         115.0430
   588.26         111.4190
   588.40         107.3363
   588.54         102.9713
   588.68         98.5863
   588.82         94.4981
   588.96         91.0282
   589.10         88.4572
   589.24         86.9923
   589.38         86.7530
   589.52         87.7696
   589.66         89.9768
   589.80         93.1972
   589.94         97.1384
   590.08         101.4301
   590.22         105.6840
   590.36         109.5716
   590.50         112.8921
   590.64         115.5570
   590.78         117.5208
   590.92         118.7806
   591.06         119.4233
   591.20         119.6214
   591.34         119.5689
   591.48         119.4247
   591.62         119.2984
   591.76         119.2594
   591.90         119.3494
   592.04         119.5868
   592.18         119.9571
   592.32         120.4114
   592.46         120.8891
   592.60         121.3331
   592.74         121.6928
   592.88         121.9272
   593.02         122.0224
   593.16         121.9990
   593.30         121.8995
   593.44         121.7761
   593.58         121.6719
   593.72         121.6235
   593.86         121.6600
   594.00         121.7822
   594.14         121.9574
   594.28         122.1356
   594.42         122.2712
   594.56         122.3313
   594.70         122.3032
   594.84         122.2069
   594.98         122.1014
   595.12         122.0687
   595.26         122.1739
   595.40         122.4430
   595.54         122.8737
   595.68         123.4634
   595.82         124.2089
   595.96         125.0893
   596.10         126.0579
   596.24         127.0416
   596.38         127.9542
   596.52         128.7064
   596.66         129.2257
   596.80         129.4840
   596.94         129.4946
   597.08         129.2883
   597.22         128.9095
   597.36         128.4221
   597.50         127.8928
   597.64         127.3723
   597.78         126.9025
   597.92         126.5274
   598.06         126.2941
   598.20         126.2502
   598.34         126.4307
   598.48         126.8296
   598.62         127.3921
   598.76         128.0356
   598.90         128.6712
   599.04         129.2182
   599.18         129.6226
   599.32         129.8606
   599.46         129.9106
   599.60         129.7423
   599.74         129.3476
   599.88         128.7652
   600.02         128.0663
   600.16         127.3215
   600.30         126.5884
   600.44         125.9153
   600.58         125.3381
   600.72         124.8737
   600.86         124.5237
   601.00         124.2854
   601.14         124.1626
   601.28         124.1754
   601.42         124.3528
   601.56         124.7195
   601.70         125.2937
   601.84         126.0766
   601.98         127.0474
   602.12         128.1787
   602.26         129.4523
   602.40         130.8459
   602.54         132.3074
   602.68         133.7610
   602.82         135.1295
   602.96         136.3525
   603.10         137.4041
   603.24         138.2886
   603.38         139.0286
   603.52         139.6535
   603.66         140.1990
   603.80         140.7086
   603.94         141.2186
   604.08         141.7434
   604.22         142.2718
   604.36         142.7621
   604.50         143.1526
   604.64         143.3994
   604.78         143.4926
   604.92         143.4268
   605.06         143.1813
   605.20         142.7290
   605.34         142.0648
   605.48         141.2453
   605.62         140.3878
   605.76         139.6286
   605.90         139.0835
   606.04         138.8375
   606.18         138.9391
   606.32         139.3882
   606.46         140.1363
   606.60         141.0923
   606.74         142.1379
   606.88         143.1401
   607.02         143.9720
   607.16         144.5416
   607.30         144.7973
   607.44         144.7158
   607.58         144.2946
   607.72         143.5638
   607.86         142.6019
   608.00         141.5358
   608.14         140.5124
   608.28         139.6484
   608.42         139.0126
   608.56         138.6416
   608.70         138.5445
   608.84         138.6838
   608.98         138.9708
   609.12         139.3013
   609.26         139.5960
   609.40         139.8076
   609.54         139.9174
   609.68         139.9449
   609.82         139.9375
   609.96         139.9406
   610.10         139.9902
   610.24         140.1175
   610.38         140.3481
   610.52         140.6905
   610.66         141.1236
   610.80         141.5897
   610.94         142.0051
   611.08         142.2874
   611.22         142.3686
   611.36         142.1890
   611.50         141.6953
   611.64         140.8724
   611.78         139.7877
   611.92         138.5882
   612.06         137.4312
   612.20         136.4094
   612.34         135.5252
   612.48         134.7162
   612.62         133.9141
   612.76         133.0900
   612.90         132.2427
   613.04         131.3727
   613.18         130.5041
   613.32         129.7001
   613.46         129.0475
   613.60         128.6353
   613.74         128.5234
   613.88         128.7156
   614.02         129.1777
   614.16         129.8695
   614.30         130.7523
   614.44         131.7682
   614.58         132.8046
   614.72         133.6832
   614.86         134.1932
   615.00         134.1588
   615.14         133.4989
   615.28         132.2448
   615.42         130.5078
   615.56         128.4266
   615.70         126.1534
   615.84         123.8517
   615.98         121.6720
   616.12         119.7292
   616.26         118.1122
   616.40         116.9047
   616.54         116.1807
   616.68         115.9865
   616.82         116.3151
   616.96         117.0986
   617.10         118.2197
   617.24         119.5318
   617.38         120.8874
   617.52         122.1508
   617.66         123.2054
   617.80         123.9599
   617.94         124.3466
   618.08         124.3194
   618.22         123.8683
   618.36         123.0455
   618.50         121.9671
   618.64         120.7798
   618.78         119.6146
   618.92         118.5880
   619.06         117.8138
   619.20         117.3775
   619.34         117.3212
   619.48         117.6475
   619.62         118.3211
   619.76         119.2660
   619.90         120.3569
   620.04         121.4231
   620.18         122.2771
   620.32         122.7586
   620.46         122.7724
   620.60         122.2990
   620.74         121.3832
   620.88         120.1082
   621.02         118.5719
   621.16         116.8729
   621.30         115.1096
   621.44         113.3986
   621.58         111.8665
   621.72         110.6029
   621.86         109.6322
   622.00         108.9348
   622.14         108.4935
   622.28         108.3129
   622.42         108.3985
   622.56         108.7109
   622.70         109.1688
   622.84         109.6915
   622.98         110.2120
   623.12         110.6697
   623.26         111.0055
   623.40         111.1915
   623.54         111.2568
   623.68         111.2624
   623.82         111.2587
   623.96         111.2595
   624.10         111.2396
   624.24         111.1532
   624.38         110.9563
   624.52         110.6196
   624.66         110.1470
   624.80         109.5906
   624.94         109.0271
   625.08         108.5104
   625.22         108.0549
   625.36         107.6743
   625.50         107.4152
   625.64         107.3412
   625.78         107.5037
   625.92         107.9300
   626.06         108.6250
   626.20         109.5523
   626.34         110.6138
   626.48         111.6710
   626.62         112.5851
   626.76         113.2512
   626.90         113.6131
   627.04         113.6542
   627.18         113.4025
   627.32         112.9496
   627.46         112.4445
   627.60         112.0514
   627.74         111.8945
   627.88         112.0364
   628.02         112.4949
   628.16         113.2593
   628.30         114.2829
   628.44         115.4743
   628.58         116.7258
   628.72         117.9385
   628.86         119.0175
   629.00         119.8748
   629.14         120.4509
   629.28         120.7402
   629.42         120.8030
   629.56         120.7532
   629.70         120.7225
   629.84         120.8168
   629.98         121.1015
   630.12         121.6007
   630.26         122.2859
   630.40         123.0820
   630.54         123.8905
   630.68         124.6247
   630.82         125.2320
   630.96         125.6905
   631.10         126.0156
   631.24         126.2618
   631.38         126.4949
   631.52         126.7738
   631.66         127.1583
   631.80         127.7105
   631.94         128.4852
   632.08         129.5033
   632.22         130.7164
   632.36         132.0008
   632.50         133.2098
   632.64         134.2453
   632.78         135.0832
   632.92         135.7435
   633.06         136.2460
   633.20         136.5916
   633.34         136.7865
   633.48         136.8619
   633.62         136.8685
   633.76         136.8648
   633.90         136.8939
   634.04         136.9683
   634.18         137.0677
   634.32         137.1423
   634.46         137.1203
   634.60         136.9076
   634.74         136.4051
   634.88         135.5496
   635.02         134.3543
   635.16         132.9243
   635.30         131.4211
   635.44         130.0177
   635.58         128.8719
   635.72         128.1219
   635.86         127.8817
   636.00         128.2326
   636.14         129.2072
   636.28         130.7626
   636.42         132.7654
   636.56         135.0018
   636.70         137.2211
   636.84         139.1946
   636.98         140.7554
   637.12         141.8115
   637.26         142.3496
   637.40         142.4416
   637.54         142.2222
   637.68         141.8421
   637.82         141.4346
   637.96         141.0812
   638.10         140.8065
   638.24         140.6097
   638.38         140.4812
   638.52         140.4013
   638.66         140.3298
   638.80         140.2134
   638.94         140.0214
   639.08         139.7745
   639.22         139.5414
   639.36         139.4192
   639.50         139.5017
   639.64         139.8488
   639.78         140.4760
   639.92         141.3502
   640.06         142.3926
   640.20         143.4949
   640.34         144.5419
   640.48         145.4291
   640.62         146.0678
   640.76         146.4036
   640.90         146.4372
   641.04         146.2120
   641.18         145.7934
   641.32         145.2672
   641.46         144.7575
   641.60         144.4011
   641.74         144.2719
   641.88         144.3528
   642.02         144.5745
   642.16         144.8673
   642.30         145.1758
   642.44         145.4550
   642.58         145.6746
   642.72         145.8330
   642.86         145.9593
   643.00         146.0950
   643.14         146.2786
   643.28         146.5424
   643.42         146.9012
   643.56         147.3381
   643.70         147.7939
   643.84         148.1636
   643.98         148.3391
   644.12         148.2509
   644.26         147.8678
   644.40         147.1998
   644.54         146.3215
   644.68         145.3700
   644.82         144.4916
   644.96         143.7918
   645.10         143.3269
   645.24         143.1334
   645.38         143.2439
   645.52         143.6676
   645.66         144.3713
   645.80         145.2729
   645.94         146.2515
   646.08         147.1673
   646.22         147.9013
   646.36         148.3971
   646.50         148.6702
   646.64         148.7898
   646.78         148.8209
   646.92         148.7792
   647.06         148.6454
   647.20         148.4006
   647.34         148.0444
   647.48         147.5909
   647.62         147.0681
   647.76         146.5197
   647.90         145.9892
   648.04         145.4686
   648.18         144.8657
   648.32         144.0299
   648.46         142.8137
   648.60         141.1350
   648.74         139.0144
   648.88         136.5789
   649.02         134.0373
   649.16         131.6332
   649.30         129.6008
   649.44         128.1317
   649.58         127.3610
   649.72         127.3746
   649.86         128.2198
   650.00         129.8804
   650.14         132.2361
   650.28         135.0685
   650.42         138.1047
   650.56         141.0618
   650.70         143.6952
   650.84         145.8553
   650.98         147.5054
   651.12         148.7099
   651.26         149.5991
   651.40         150.3118
   651.54         150.9501
   651.68         151.5703
   651.82         152.1929
   651.96         152.8101
   652.10         153.3962
   652.24         153.9279
   652.38         154.4005
   652.52         154.8259
   652.66         155.2106
   652.80         155.5528
   652.94         155.8569
   653.08         156.1309
   653.22         156.3732
   653.36         156.5715
   653.50         156.7157
   653.64         156.7978
   653.78         156.8029
   653.92         156.6996
   654.06         156.4393
   654.20         155.9746
   654.34         155.2780
   654.48         154.3430
   654.62         153.1718
   654.76         151.7530
   654.90         150.0393
   655.04         147.9635
   655.18         145.5048
   655.32         142.7476
   655.46         139.8709
   655.60         137.1026
   655.74         134.6791
   655.88         132.8109
   656.02         131.6504
   656.16         131.2692
   656.30         131.6529
   656.44         132.7198
   656.58         134.3556
   656.72         136.4202
   656.86         138.7515
   657.00         141.1893
   657.14         143.5817
   657.28         145.7789
   657.42         147.6531
   657.56         149.1544
   657.70         150.3488
   657.84         151.3772
   657.98         152.3464
   658.12         153.2594
   658.26         154.0416
   658.40         154.6024
   658.54         154.8778
   658.68         154.8564
   658.82         154.5952
   658.96         154.2076
   659.10         153.8191
   659.24         153.5236
   659.38         153.3610
   659.52         153.3261
   659.66         153.3794
   659.80         153.4614
   659.94         153.5183
   660.08         153.5098
   660.22         153.4115
   660.36         153.2242
   660.50         152.9722
   660.64         152.7109
   660.78         152.5388
   660.92         152.5667
   661.06         152.8650
   661.20         153.4370
   661.34         154.2352
   661.48         155.1913
   661.62         156.2182
   661.76         157.2066
   661.90         158.0372
   662.04         158.6056
   662.18         158.8533
   662.32         158.7874
   662.46         158.4805
   662.60         158.0361
   662.74         157.5435
   662.88         157.0832
   663.02         156.7221
   663.16         156.4803
   663.30         156.3319
   663.44         156.2237
   663.58         156.0868
   663.72         155.8591
   663.86         155.5111
   664.00         155.0551
   664.14         154.5230
   664.28         153.9323
   664.42         153.2959
   664.56         152.6396
   664.70         152.0004
   664.84         151.4170
   664.98         150.9093
   665.12         150.4613
   665.26         150.0247
   665.40         149.5463
   665.54         148.9978
   665.68         148.3812
   665.82         147.7290
   665.96         147.1073
   666.10         146.5974
   666.24         146.2683
   666.38         146.1526
   666.52         146.2393
   666.66         146.4885
   666.80         146.8470
   666.94         147.2679
   667.08         147.7226
   667.22         148.1829
   667.36         148.6158
   667.50         148.9967
   667.64         149.3123
   667.78         149.5612
   667.92         149.7668
   668.06         149.9708
   668.20         150.2046
   668.34         150.4747
   668.48         150.7592
   668.62         151.0176
   668.76         151.2092
   668.90         151.3052
   669.04         151.2942
   669.18         151.1935
   669.32         151.0521
   669.46         150.9325
   669.60         150.8858
   669.74         150.9279
   669.88         151.0343
   670.02         151.1623
   670.16         151.2654
   670.30         151.2862
   670.44         151.1583
   670.58         150.8283
   670.72         150.2705
   670.86         149.5006
   671.00         148.5904
   671.14         147.6551
   671.28         146.8144
   671.42         146.1653
   671.56         145.7790
   671.70         145.6982
   671.84         145.9310
   671.98         146.4514
   672.12         147.1974
   672.26         148.0778
   672.40         148.9851
   672.54         149.8038
   672.68         150.4163
   672.82         150.7255
   672.96         150.6779
   673.10         150.2734
   673.24         149.5675
   673.38         148.6554
   673.52         147.6453
   673.66         146.6289
   673.80         145.6637
   673.94         144.7872
   674.08         144.0441
   674.22         143.4871
   674.36         143.1560
   674.50         143.0757
   674.64         143.2590
   674.78         143.7017
   674.92         144.3810
   675.06         145.2521
   675.20         146.2537
   675.34         147.3222
   675.48         148.3991
   675.62         149.4247
   675.76         150.3352
   675.90         151.0782
   676.04         151.6243
   676.18         151.9695
   676.32         152.1382
   676.46         152.1956
   676.60         152.2432
   676.74         152.3842
   676.88         152.6854
   677.02         153.1566
   677.16         153.7546
   677.30         154.3938
   677.44         154.9690
   677.58         155.3830
   677.72         155.5593
   677.86         155.4524
   678.00         155.0469
   678.14         154.3593
   678.28         153.4483
   678.42         152.4156
   678.56         151.3910
   678.70         150.5101
   678.84         149.8909
   678.98         149.6126
   679.12         149.7135
   679.26         150.1838
   679.40         150.9581
   679.54         151.9281
   679.68         152.9759
   679.82         154.0048
   679.96         154.9419
   680.10         155.7318
   680.24         156.3294
   680.38         156.7050
   680.52         156.8659
   680.66         156.8504
   680.80         156.7147
   680.94         156.5348
   681.08         156.3963
   681.22         156.3689
   681.36         156.4927
   681.50         156.7689
   681.64         157.1612
   681.78         157.6163
   681.92         158.0740
   682.06         158.4771
   682.20         158.7864
   682.34         158.9866
   682.48         159.0812
   682.62         159.0716
   682.76         158.9523
   682.90         158.7202
   683.04         158.3865
   683.18         157.9802
   683.32         157.5303
   683.46         157.0611
   683.60         156.6055
   683.74         156.2002
   683.88         155.8757
   684.02         155.6509
   684.16         155.5247
   684.30         155.4795
   684.44         155.4909
   684.58         155.5230
   684.72         155.5269
   684.86         155.4450
   685.00         155.2333
   685.14         154.8858
   685.28         154.4168
   685.42         153.8280
   685.56         153.0803
   685.70         152.0905
   685.84         150.7635
   685.98         149.0206
   686.12         146.8242
   686.26         144.2023
   686.40         141.2508
   686.54         138.1237
   686.68         135.0178
   686.82         132.1495
   686.96         129.7338
   687.10         127.9703
   687.24         127.0202
   687.38         126.9685
   687.52         127.8082
   687.66         129.4441
   687.80         131.6919
   687.94         134.2880
   688.08         136.9335
   688.22         139.3667
   688.36         141.4212
   688.50         143.0333
   688.64         144.2218
   688.78         145.0569
   688.92         145.6506
   689.06         146.1434
   689.20         146.6523
   689.34         147.2402
   689.48         147.9231
   689.62         148.6825
   689.76         149.4844
   689.90         150.2853
   690.04         151.0232
   690.18         151.6369
   690.32         152.0951
   690.46         152.4094
   690.60         152.6273
   690.74         152.8132
   690.88         153.0352
   691.02         153.3414
   691.16         153.7378
   691.30         154.1943
   691.44         154.6641
   691.58         155.1071
   691.72         155.4779
   691.86         155.7122
   692.00         155.7573
   692.14         155.5885
   692.28         155.2097
   692.42         154.6557
   692.56         153.9824
   692.70         153.2546
   692.84         152.5469
   692.98         151.9347
   693.12         151.4613
   693.26         151.1128
   693.40         150.8318
   693.54         150.5450
   693.68         150.1850
   693.82         149.7169
   693.96         149.1470
   694.10         148.5126
   694.24         147.8674
   694.38         147.2756
   694.52         146.8090
   694.66         146.5348
   694.80         146.5088
   694.94         146.7812
   695.08         147.3893
   695.22         148.3432
   695.36         149.6235
   695.50         151.1825
   695.64         152.9455
   695.78         154.8179
   695.92         156.7081
   696.06         158.5424
   696.20         160.2441
   696.34         161.7179
   696.48         162.8492
   696.62         163.5240
   696.76         163.6842
   696.90         163.3646
   697.04         162.6765
   697.18         161.7639
   697.32         160.7681
   697.46         159.8130
   697.60         158.9869
   697.74         158.3357
   697.88         157.8804
   698.02         157.6282
   698.16         157.5690
   698.30         157.6756
   698.44         157.9062
   698.58         158.1998
   698.72         158.4697
   698.86         158.6243
   699.00         158.6012
   699.14         158.3765
   699.28         157.9695
   699.42         157.4413
   699.56         156.8738
   699.70         156.3470
   699.84         155.9152
   699.98         155.6021
   700.12         155.4057
   700.26         155.2977
   700.40         155.2490
   700.54         155.2688
   700.68         155.3963
   700.82         155.6689
   700.96         156.0910
   701.10         156.6193
   701.24         157.1824
   701.38         157.7215
   701.52         158.2115
   701.66         158.6561
   701.80         159.0840
   701.94         159.5442
   702.08         160.0941
   702.22         160.7883
   702.36         161.6448
   702.50         162.6049
   702.64         163.5654
   702.78         164.4555
   702.92         165.2723
   703.06         166.0676
   703.20         166.8940
   703.34         167.7614
   703.48         168.6408
   703.62         169.4906
   703.76         170.2727
   703.90         170.9428
   704.04         171.4351
   704.18         171.6862
   704.32         171.6655
   704.46         171.3712
   704.60         170.8031
   704.74         169.9582
   704.88         168.8529
   705.02         167.5251
   705.16         166.0294
   705.30         164.4429
   705.44         162.8477
   705.58         161.3023
   705.72         159.8504
   705.86         158.5458
   706.00         157.4633
   706.14         156.6759
   706.28         156.2141
   706.42         156.0598
   706.56         156.1808
   706.70         156.5709
   706.84         157.2457
   706.98         158.1853
   707.12         159.2878
   707.26         160.3852
   707.40         161.2873
   707.54         161.8210
   707.68         161.8572
   707.82         161.3232
   707.96         160.2136
   708.10         158.6073
   708.24         156.6653
   708.38         154.5852
   708.52         152.5494
   708.66         150.6960
   708.80         149.1080
   708.94         147.8207
   709.08         146.8525
   709.22         146.2153
   709.36         145.8875
   709.50         145.7982
   709.64         145.8437
   709.78         145.9134
   709.92         145.9281
   710.06         145.8718
   710.20         145.7947
   710.34         145.7867
   710.48         145.9198
   710.62         146.2158
   710.76         146.6735
   710.90         147.2887
   711.04         148.0326
   711.18         148.8336
   711.32         149.5795
   711.46         150.1512
   711.60         150.4580
   711.74         150.4366
   711.88         150.0355
   712.02         149.2327
   712.16         148.0751
   712.30         146.6740
   712.44         145.1719
   712.58         143.7222
   712.72         142.4754
   712.86         141.5455
   713.00         140.9839
   713.14         140.7911
   713.28         140.9421
   713.42         141.3943
   713.56         142.0659
   713.70         142.8360
   713.84         143.5923
   713.98         144.2608
   714.12         144.8120
   714.26         145.2528
   714.40         145.6212
   714.54         145.9787
   714.68         146.3899
   714.82         146.9032
   714.96         147.5331
   715.10         148.2545
   715.24         149.0193
   715.38         149.7817
   715.52         150.4866
   715.66         151.0600
   715.80         151.4298
   715.94         151.5367
   716.08         151.3354
   716.22         150.8049
   716.36         149.9622
   716.50         148.8562
   716.64         147.5523
   716.78         146.1170
   716.92         144.6282
   717.06         143.1790
   717.20         141.8387
   717.34         140.6286
   717.48         139.5360
   717.62         138.5490
   717.76         137.6645
   717.90         136.8715
   718.04         136.1535
   718.18         135.4995
   718.32         134.9217
   718.46         134.4470
   718.60         134.0973
   718.74         133.8791
   718.88         133.7895
   719.02         133.8451
   719.16         134.0675
   719.30         134.4492
   719.44         134.9522
   719.58         135.5406
   719.72         136.1979
   719.86         136.9291
   720.00         137.7676
   720.14         138.7637
   720.28         139.9664
   720.42         141.3883
   720.56         143.0015
   720.70         144.7887
   720.84         146.7437
   720.98         148.8100
   721.12         150.8703
   721.26         152.8118
   721.40         154.5516
   721.54         156.0326
   721.68         157.2307
   721.82         158.1419
   721.96         158.7818
   722.10         159.1864
   722.24         159.3933
   722.38         159.4381
   722.52         159.3559
   722.66         159.1591
   722.80         158.8306
   722.94         158.3612
   723.08         157.7607
   723.22         157.0442
   723.36         156.2455
   723.50         155.4296
   723.64         154.6689
   723.78         154.0311
   723.92         153.5547
   724.06         153.2104
   724.20         152.9462
   724.34         152.7482
   724.48         152.6147
   724.62         152.5189
   724.76         152.4225
   724.90         152.3036
   725.04         152.1735
   725.18         152.0532
   725.32         151.9499
   725.46         151.8907
   725.60         151.9440
   725.74         152.1757
   725.88         152.6235
   726.02         153.2925
   726.16         154.1231
   726.30         154.9706
   726.44         155.6517
   726.58         156.0247
   726.72         156.0392
   726.86         155.7325
   727.00         155.1701
   727.14         154.4106
   727.28         153.5339
   727.42         152.6414
   727.56         151.8253
   727.70         151.1453
   727.84         150.6094
   727.98         150.2025
   728.12         149.9199
   728.26         149.7533
   728.40         149.6860
   728.54         149.7104
   728.68         149.8243
   728.82         150.0303
   728.96         150.3339
   729.10         150.7315
   729.24         151.2196
   729.38         151.7995
   729.52         152.4516
   729.66         153.1231
   729.80         153.7469
   729.94         154.2525
   730.08         154.5778
   730.22         154.6891
   730.36         154.5874
   730.50         154.3066
   730.64         153.9174
   730.78         153.5128
   730.92         153.1719
   731.06         152.9288
   731.20         152.7706
   731.34         152.6657
   731.48         152.5974
   731.62         152.5675
   731.76         152.5914
   731.90         152.6894
   732.04         152.8655
   732.18         153.1035
   732.32         153.3949
   732.46         153.7679
   732.60         154.2695
   732.74         154.9305
   732.88         155.7476
   733.02         156.6758
   733.16         157.6232
   733.30         158.4895
   733.44         159.2152
   733.58         159.7760
   733.72         160.1526
   733.86         160.3234
   734.00         160.2831
   734.14         160.0473
   734.28         159.6250
   734.42         159.0092
   734.56         158.2028
   734.70         157.2539
   734.84         156.2538
   734.98         155.2895
   735.12         154.4082
   735.26         153.6184
   735.40         152.9173
   735.54         152.3176
   735.68         151.8438
   735.82         151.5256
   735.96         151.4154
   736.10         151.5726
   736.24         152.0151
   736.38         152.7089
   736.52         153.6001
   736.66         154.6383
   736.80         155.7602
   736.94         156.8742
   737.08         157.8877
   737.22         158.7348
   737.36         159.3663
   737.50         159.7300
   737.64         159.7752
   737.78         159.4848
   737.92         158.8999
   738.06         158.1095
   738.20         157.2205
   738.34         156.3349
   738.48         155.5391
   738.62         154.9037
   738.76         154.4825
   738.90         154.3181
   739.04         154.4367
   739.18         154.8246
   739.32         155.4157
   739.46         156.1043
   739.60         156.7573
   739.74         157.2434
   739.88         157.4663
   740.02         157.3644
   740.16         156.9103
   740.30         156.1320
   740.44         155.1233
   740.58         154.0165
   740.72         152.9454
   740.86         152.0210
   741.00         151.3170
   741.14         150.8698
   741.28         150.6830
   741.42         150.7313
   741.56         150.9738
   741.70         151.3458
   741.84         151.7531
   741.98         152.1057
   742.12         152.3466
   742.26         152.4454
   742.40         152.4136
   742.54         152.3043
   742.68         152.1789
   742.82         152.0952
   742.96         152.0952
   743.10         152.1789
   743.24         152.3043
   743.38         152.4136
   743.52         152.4454
   743.66         152.3466
   743.80         152.1057
   743.94         151.7531
   744.08         151.3458
   744.22         150.9738
