# File SAO37370
# Wavelength [nm]    Normalized Amplitude
   349.70         19.0551
   349.84         19.1429
   349.98         19.2270
   350.12         19.3046
   350.26         19.3725
   350.40         19.4267
   350.54         19.4659
   350.68         19.4925
   350.82         19.5100
   350.96         19.5200
   351.10         19.5232
   351.24         19.5200
   351.38         19.5100
   351.52         19.4925
   351.66         19.4659
   351.80         19.4267
   351.94         19.3725
   352.08         19.3046
   352.22         19.2270
   352.36         19.1429
   352.50         19.0551
   352.64         18.9689
   352.78         18.8929
   352.92         18.8370
   353.06         18.8115
   353.20         18.8250
   353.34         18.8812
   353.48         18.9752
   353.62         19.0971
   353.76         19.2362
   353.90         19.3841
   354.04         19.5331
   354.18         19.6737
   354.32         19.7936
   354.46         19.8801
   354.60         19.9246
   354.74         19.9235
   354.88         19.8778
   355.02         19.7940
   355.16         19.6837
   355.30         19.5575
   355.44         19.4204
   355.58         19.2720
   355.72         19.1101
   355.86         18.9336
   356.00         18.7416
   356.14         18.5358
   356.28         18.3216
   356.42         18.1065
   356.56         17.8974
   356.70         17.7003
   356.84         17.5208
   356.98         17.3636
   357.12         17.2318
   357.26         17.1257
   357.40         17.0406
   357.54         16.9670
   357.68         16.8938
   357.82         16.8117
   357.96         16.7162
   358.10         16.6117
   358.24         16.5113
   358.38         16.4322
   358.52         16.3903
   358.66         16.3978
   358.80         16.4620
   358.94         16.5840
   359.08         16.7583
   359.22         16.9732
   359.36         17.2126
   359.50         17.4568
   359.64         17.6861
   359.78         17.8845
   359.92         18.0403
   360.06         18.1453
   360.20         18.1970
   360.34         18.2000
   360.48         18.1641
   360.62         18.1003
   360.76         18.0171
   360.90         17.9208
   361.04         17.8171
   361.18         17.7120
   361.32         17.6131
   361.46         17.5286
   361.60         17.4687
   361.74         17.4437
   361.88         17.4597
   362.02         17.5147
   362.16         17.5995
   362.30         17.7020
   362.44         17.8096
   362.58         17.9098
   362.72         17.9930
   362.86         18.0550
   363.00         18.0949
   363.14         18.1141
   363.28         18.1153
   363.42         18.1021
   363.56         18.0788
   363.70         18.0493
   363.84         18.0169
   363.98         17.9853
   364.12         17.9596
   364.26         17.9440
   364.40         17.9402
   364.54         17.9473
   364.68         17.9661
   364.82         18.0019
   364.96         18.0605
   365.10         18.1442
   365.24         18.2516
   365.38         18.3762
   365.52         18.5087
   365.66         18.6383
   365.80         18.7542
   365.94         18.8469
   366.08         18.9107
   366.22         18.9454
   366.36         18.9547
   366.50         18.9452
   366.64         18.9264
   366.78         18.9064
   366.92         18.8907
   367.06         18.8818
   367.20         18.8794
   367.34         18.8805
   367.48         18.8790
   367.62         18.8662
   367.76         18.8376
   367.90         18.7950
   368.04         18.7453
   368.18         18.6992
   368.32         18.6675
   368.46         18.6588
   368.60         18.6810
   368.74         18.7411
   368.88         18.8430
   369.02         18.9857
   369.16         19.1619
   369.30         19.3553
   369.44         19.5424
   369.58         19.6974
   369.72         19.7997
   369.86         19.8358
   370.00         19.7993
   370.14         19.6918
   370.28         19.5278
   370.42         19.3362
   370.56         19.1549
   370.70         19.0185
   370.84         18.9463
   370.98         18.9388
   371.12         18.9854
   371.26         19.0729
   371.40         19.1906
   371.54         19.3290
   371.68         19.4781
   371.82         19.6278
   371.96         19.7691
   372.10         19.8928
   372.24         19.9884
   372.38         20.0449
   372.52         20.0543
   372.66         20.0173
   372.80         19.9485
   372.94         19.8728
   373.08         19.8162
   373.22         19.7960
   373.36         19.8149
   373.50         19.8637
   373.64         19.9281
   373.78         19.9927
   373.92         20.0400
   374.06         20.0549
   374.20         20.0302
   374.34         19.9693
   374.48         19.8818
   374.62         19.7792
   374.76         19.6744
   374.90         19.5876
   375.04         19.5483
   375.18         19.5900
   375.32         19.7394
   375.46         20.0039
   375.60         20.3631
   375.74         20.7693
   375.88         21.1570
   376.02         21.4608
   376.16         21.6328
   376.30         21.6553
   376.44         21.5443
   376.58         21.3501
   376.72         21.1468
   376.86         21.0129
   377.00         21.0139
   377.14         21.1917
   377.28         21.5611
   377.42         22.1115
   377.56         22.8120
   377.70         23.6148
   377.84         24.4561
   377.98         25.2604
   378.12         25.9480
   378.26         26.4439
   378.40         26.6900
   378.54         26.6545
   378.68         26.3402
   378.82         25.7868
   378.96         25.0642
   379.10         24.2616
   379.24         23.4751
   379.38         22.7935
   379.52         22.2892
   379.66         22.0145
   379.80         21.9990
   379.94         22.2470
   380.08         22.7389
   380.22         23.4350
   380.36         24.2789
   380.50         25.2034
   380.64         26.1380
   380.78         27.0153
   380.92         27.7788
   381.06         28.3904
   381.20         28.8313
   381.34         29.1006
   381.48         29.2096
   381.62         29.1722
   381.76         28.9983
   381.90         28.6915
   382.04         28.2500
   382.18         27.6695
   382.32         26.9502
   382.46         26.1014
   382.60         25.1465
   382.74         24.1278
   382.88         23.1068
   383.02         22.1589
   383.16         21.3616
   383.30         20.7825
   383.44         20.4722
   383.58         20.4600
   383.72         20.7501
   383.86         21.3224
   384.00         22.1387
   384.14         23.1459
   384.28         24.2771
   384.42         25.4573
   384.56         26.6122
   384.70         27.6759
   384.84         28.6002
   384.98         29.3632
   385.12         29.9683
   385.26         30.4362
   385.40         30.7942
   385.54         31.0701
   385.68         31.2865
   385.82         31.4574
   385.96         31.5880
   386.10         31.6790
   386.24         31.7287
   386.38         31.7337
   386.52         31.6888
   386.66         31.5866
   386.80         31.4175
   386.94         31.1732
   387.08         30.8469
   387.22         30.4303
   387.36         29.9123
   387.50         29.2818
   387.64         28.5323
   387.78         27.6659
   387.92         26.6983
   388.06         25.6629
   388.20         24.6096
   388.34         23.6002
   388.48         22.7007
   388.62         21.9730
   388.76         21.4693
   388.90         21.2262
   389.04         21.2571
   389.18         21.5503
   389.32         22.0722
   389.46         22.7739
   389.60         23.5974
   389.74         24.4819
   389.88         25.3704
   390.02         26.2174
   390.16         26.9935
   390.30         27.6865
   390.44         28.2980
   390.58         28.8359
   390.72         29.3081
   390.86         29.7195
   391.00         30.0724
   391.14         30.3654
   391.28         30.5917
   391.42         30.7397
   391.56         30.7919
   391.70         30.7245
   391.84         30.5079
   391.98         30.1093
   392.12         29.5010
   392.26         28.6720
   392.40         27.6369
   392.54         26.4409
   392.68         25.1586
   392.82         23.8859
   392.96         22.7262
   393.10         21.7764
   393.24         21.1166
   393.38         20.8017
   393.52         20.8544
   393.66         21.2602
   393.80         21.9680
   393.94         22.8966
   394.08         23.9479
   394.22         25.0201
   394.36         26.0184
   394.50         26.8661
   394.64         27.5143
   394.78         27.9468
   394.92         28.1735
   395.06         28.2171
   395.20         28.0987
   395.34         27.8263
   395.48         27.3925
   395.62         26.7806
   395.76         25.9784
   395.90         24.9928
   396.04         23.8567
   396.18         22.6287
   396.32         21.3891
   396.46         20.2313
   396.60         19.2495
   396.74         18.5270
   396.88         18.1255
   397.02         18.0781
   397.16         18.3870
   397.30         19.0242
   397.44         19.9342
   397.58         21.0417
   397.72         22.2613
   397.86         23.5094
   398.00         24.7134
   398.14         25.8202
   398.28         26.7995
   398.42         27.6437
   398.56         28.3620
   398.70         28.9721
   398.84         29.4943
   398.98         29.9472
   399.12         30.3444
   399.26         30.6920
   399.40         30.9905
   399.54         31.2400
   399.68         31.4439
   399.82         31.6094
   399.96         31.7463
   400.10         31.8649
   400.24         31.9746
   400.38         32.0822
   400.52         32.1922
   400.66         32.3068
   400.80         32.4259
   400.94         32.5478
   401.08         32.6699
   401.22         32.7892
   401.36         32.9043
   401.50         33.0149
   401.64         33.1182
   401.78         33.2054
   401.92         33.2631
   402.06         33.2808
   402.20         33.2537
   402.34         33.1844
   402.48         33.0812
   402.62         32.9561
   402.76         32.8216
   402.90         32.6901
   403.04         32.5736
   403.18         32.4809
   403.32         32.4148
   403.46         32.3734
   403.60         32.3546
   403.74         32.3569
   403.88         32.3784
   404.02         32.4149
   404.16         32.4585
   404.30         32.4981
   404.44         32.5219
   404.58         32.5222
   404.72         32.4994
   404.86         32.4597
   405.00         32.4120
   405.14         32.3610
   405.28         32.3057
   405.42         32.2424
   405.56         32.1679
   405.70         32.0814
   405.84         31.9838
   405.98         31.8789
   406.12         31.7740
   406.26         31.6756
   406.40         31.5835
   406.54         31.4889
   406.68         31.3798
   406.82         31.2485
   406.96         31.0939
   407.10         30.9194
   407.24         30.7314
   407.38         30.5389
   407.52         30.3501
   407.66         30.1702
   407.80         30.0008
   407.94         29.8410
   408.08         29.6860
   408.22         29.5258
   408.36         29.3452
   408.50         29.1235
   408.64         28.8354
   408.78         28.4524
   408.92         27.9467
   409.06         27.2989
   409.20         26.5088
   409.34         25.6042
   409.48         24.6375
   409.62         23.6747
   409.76         22.7848
   409.90         22.0337
   410.04         21.4785
   410.18         21.1615
   410.32         21.1060
   410.46         21.3155
   410.60         21.7713
   410.74         22.4340
   410.88         23.2492
   411.02         24.1534
   411.16         25.0801
   411.30         25.9675
   411.44         26.7673
   411.58         27.4496
   411.72         28.0051
   411.86         28.4411
   412.00         28.7736
   412.14         29.0194
   412.28         29.1957
   412.42         29.3217
   412.56         29.4189
   412.70         29.5095
   412.84         29.6146
   412.98         29.7488
   413.12         29.9166
   413.26         30.1132
   413.40         30.3291
   413.54         30.5547
   413.68         30.7804
   413.82         30.9963
   413.96         31.1926
   414.10         31.3598
   414.24         31.4885
   414.38         31.5713
   414.52         31.6035
   414.66         31.5860
   414.80         31.5266
   414.94         31.4396
   415.08         31.3419
   415.22         31.2495
   415.36         31.1748
   415.50         31.1231
   415.64         31.0924
   415.78         31.0781
   415.92         31.0756
   416.06         31.0771
   416.20         31.0706
   416.34         31.0425
   416.48         30.9808
   416.62         30.8777
   416.76         30.7324
   416.90         30.5516
   417.04         30.3483
   417.18         30.1395
   417.32         29.9447
   417.46         29.7831
   417.60         29.6688
   417.74         29.6081
   417.88         29.6010
   418.02         29.6420
   418.16         29.7219
   418.30         29.8296
   418.44         29.9525
   418.58         30.0743
   418.72         30.1785
   418.86         30.2551
   419.00         30.3018
   419.14         30.3211
   419.28         30.3186
   419.42         30.3022
   419.56         30.2808
   419.70         30.2624
   419.84         30.2551
   419.98         30.2680
   420.12         30.3065
   420.26         30.3686
   420.40         30.4475
   420.54         30.5351
   420.68         30.6231
   420.82         30.7028
   420.96         30.7659
   421.10         30.8040
   421.24         30.8093
   421.38         30.7755
   421.52         30.6989
   421.66         30.5821
   421.80         30.4348
   421.94         30.2734
   422.08         30.1138
   422.22         29.9673
   422.36         29.8415
   422.50         29.7413
   422.64         29.6681
   422.78         29.6202
   422.92         29.5957
   423.06         29.5949
   423.20         29.6180
   423.34         29.6623
   423.48         29.7204
   423.62         29.7808
   423.76         29.8314
   423.90         29.8631
   424.04         29.8729
   424.18         29.8670
   424.32         29.8568
   424.46         29.8527
   424.60         29.8574
   424.74         29.8656
   424.88         29.8700
   425.02         29.8682
   425.16         29.8624
   425.30         29.8582
   425.44         29.8614
   425.58         29.8768
   425.72         29.9049
   425.86         29.9409
   426.00         29.9760
   426.14         30.0006
   426.28         30.0083
   426.42         29.9986
   426.56         29.9749
   426.70         29.9433
   426.84         29.9097
   426.98         29.8786
   427.12         29.8526
   427.26         29.8332
   427.40         29.8225
   427.54         29.8219
   427.68         29.8296
   427.82         29.8374
   427.96         29.8331
   428.10         29.8059
   428.24         29.7487
   428.38         29.6572
   428.52         29.5311
   428.66         29.3727
   428.80         29.1864
   428.94         28.9787
   429.08         28.7577
   429.22         28.5315
   429.36         28.3076
   429.50         28.0915
   429.64         27.8875
   429.78         27.7005
   429.92         27.5369
   430.06         27.4020
   430.20         27.2969
   430.34         27.2211
   430.48         27.1759
   430.62         27.1639
   430.76         27.1848
   430.90         27.2316
   431.04         27.2914
   431.18         27.3471
   431.32         27.3790
   431.46         27.3705
   431.60         27.3137
   431.74         27.2087
   431.88         27.0593
   432.02         26.8690
   432.16         26.6408
   432.30         26.3766
   432.44         26.0743
   432.58         25.7236
   432.72         25.3058
   432.86         24.8000
   433.00         24.1958
   433.14         23.4997
   433.28         22.7363
   433.42         21.9453
   433.56         21.1763
   433.70         20.4830
   433.84         19.9152
   433.98         19.5154
   434.12         19.3162
   434.26         19.3378
   434.40         19.5834
   434.54         20.0364
   434.68         20.6620
   434.82         21.4133
   434.96         22.2365
   435.10         23.0770
   435.24         23.8875
   435.38         24.6353
   435.52         25.3035
   435.66         25.8887
   435.80         26.3943
   435.94         26.8246
   436.08         27.1831
   436.22         27.4706
   436.36         27.6866
   436.50         27.8343
   436.64         27.9258
   436.78         27.9791
   436.92         28.0123
   437.06         28.0372
   437.20         28.0567
   437.34         28.0686
   437.48         28.0711
   437.62         28.0643
   437.76         28.0489
   437.90         28.0269
   438.04         27.9998
   438.18         27.9689
   438.32         27.9354
   438.46         27.9040
   438.60         27.8811
   438.74         27.8716
   438.88         27.8758
   439.02         27.8932
   439.16         27.9247
   439.30         27.9693
   439.44         28.0213
   439.58         28.0718
   439.72         28.1135
   439.86         28.1455
   440.00         28.1727
   440.14         28.2008
   440.28         28.2313
   440.42         28.2601
   440.56         28.2822
   440.70         28.2950
   440.84         28.2999
   440.98         28.2998
   441.12         28.2972
   441.26         28.2933
   441.40         28.2884
   441.54         28.2846
   441.68         28.2871
   441.82         28.3002
   441.96         28.3241
   442.10         28.3544
   442.24         28.3838
   442.38         28.4047
   442.52         28.4129
   442.66         28.4071
   442.80         28.3873
   442.94         28.3547
   443.08         28.3110
   443.22         28.2595
   443.36         28.2052
   443.50         28.1529
   443.64         28.1058
   443.78         28.0664
   443.92         28.0379
   444.06         28.0221
   444.20         28.0169
   444.34         28.0144
   444.48         28.0041
   444.62         27.9772
   444.76         27.9294
   444.90         27.8612
   445.04         27.7776
   445.18         27.6863
   445.32         27.5946
   445.46         27.5061
   445.60         27.4215
   445.74         27.3422
   445.88         27.2736
   446.02         27.2240
   446.16         27.2009
   446.30         27.2078
   446.44         27.2437
   446.58         27.3037
   446.72         27.3779
   446.86         27.4513
   447.00         27.5086
   447.14         27.5403
   447.28         27.5463
   447.42         27.5316
   447.56         27.5023
   447.70         27.4636
   447.84         27.4198
   447.98         27.3751
   448.12         27.3338
   448.26         27.3015
   448.40         27.2857
   448.54         27.2947
   448.68         27.3334
   448.82         27.4002
   448.96         27.4882
   449.10         27.5887
   449.24         27.6939
   449.38         27.7969
   449.52         27.8927
   449.66         27.9807
   449.80         28.0648
   449.94         28.1483
   450.08         28.2300
   450.22         28.3032
   450.36         28.3609
   450.50         28.3982
   450.64         28.4125
   450.78         28.4016
   450.92         28.3640
   451.06         28.3006
   451.20         28.2136
   451.34         28.1039
   451.48         27.9722
   451.62         27.8221
   451.76         27.6597
   451.90         27.4908
   452.04         27.3187
   452.18         27.1455
   452.32         26.9760
   452.46         26.8195
   452.60         26.6872
   452.74         26.5871
   452.88         26.5235
   453.02         26.4987
   453.16         26.5136
   453.30         26.5659
   453.44         26.6495
   453.58         26.7538
   453.72         26.8634
   453.86         26.9609
   454.00         27.0308
   454.14         27.0622
   454.28         27.0489
   454.42         26.9897
   454.56         26.8908
   454.70         26.7657
   454.84         26.6342
   454.98         26.5169
   455.12         26.4298
   455.26         26.3811
   455.40         26.3729
   455.54         26.4045
   455.68         26.4730
   455.82         26.5713
   455.96         26.6864
   456.10         26.8029
   456.24         26.9076
   456.38         26.9923
   456.52         27.0550
   456.66         27.0969
   456.80         27.1193
   456.94         27.1236
   457.08         27.1115
   457.22         27.0840
   457.36         27.0401
   457.50         26.9774
   457.64         26.8939
   457.78         26.7915
   457.92         26.6759
   458.06         26.5559
   458.20         26.4413
   458.34         26.3416
   458.48         26.2642
   458.62         26.2139
   458.76         26.1938
   458.90         26.2052
   459.04         26.2456
   459.18         26.3088
   459.32         26.3850
   459.46         26.4638
   459.60         26.5376
   459.74         26.6028
   459.88         26.6581
   460.02         26.7038
   460.16         26.7406
   460.30         26.7682
   460.44         26.7849
   460.58         26.7888
   460.72         26.7792
   460.86         26.7568
   461.00         26.7227
   461.14         26.6776
   461.28         26.6232
   461.42         26.5627
   461.56         26.5010
   461.70         26.4435
   461.84         26.3952
   461.98         26.3610
   462.12         26.3445
   462.26         26.3458
   462.40         26.3597
   462.54         26.3796
   462.68         26.3994
   462.82         26.4142
   462.96         26.4206
   463.10         26.4171
   463.24         26.4035
   463.38         26.3799
   463.52         26.3461
   463.66         26.3028
   463.80         26.2523
   463.94         26.1989
   464.08         26.1479
   464.22         26.1037
   464.36         26.0690
   464.50         26.0453
   464.64         26.0344
   464.78         26.0380
   464.92         26.0574
   465.06         26.0932
   465.20         26.1443
   465.34         26.2045
   465.48         26.2624
   465.62         26.3052
   465.76         26.3232
   465.90         26.3119
   466.04         26.2713
   466.18         26.2064
   466.32         26.1271
   466.46         26.0462
   466.60         25.9745
   466.74         25.9182
   466.88         25.8801
   467.02         25.8623
   467.16         25.8675
   467.30         25.8961
   467.44         25.9444
   467.58         26.0038
   467.72         26.0639
   467.86         26.1146
   468.00         26.1479
   468.14         26.1608
   468.28         26.1574
   468.42         26.1458
   468.56         26.1327
   468.70         26.1202
   468.84         26.1061
   468.98         26.0861
   469.12         26.0541
   469.26         26.0043
   469.40         25.9340
   469.54         25.8448
   469.68         25.7427
   469.82         25.6348
   469.96         25.5277
   470.10         25.4280
   470.24         25.3414
   470.38         25.2729
   470.52         25.2260
   470.66         25.2027
   470.80         25.2019
   470.94         25.2207
   471.08         25.2561
   471.22         25.3041
   471.36         25.3591
   471.50         25.4153
   471.64         25.4671
   471.78         25.5098
   471.92         25.5404
   472.06         25.5570
   472.20         25.5587
   472.34         25.5458
   472.48         25.5184
   472.62         25.4784
   472.76         25.4293
   472.90         25.3755
   473.04         25.3215
   473.18         25.2716
   473.32         25.2302
   473.46         25.2004
   473.60         25.1834
   473.74         25.1770
   473.88         25.1764
   474.02         25.1758
   474.16         25.1706
   474.30         25.1586
   474.44         25.1413
   474.58         25.1227
   474.72         25.1073
   474.86         25.0972
   475.00         25.0914
   475.14         25.0861
   475.28         25.0764
   475.42         25.0577
   475.56         25.0268
   475.70         24.9821
   475.84         24.9242
   475.98         24.8559
   476.12         24.7814
   476.26         24.7070
   476.40         24.6413
   476.54         24.5929
   476.68         24.5674
   476.82         24.5661
   476.96         24.5872
   477.10         24.6262
   477.24         24.6755
   477.38         24.7255
   477.52         24.7667
   477.66         24.7909
   477.80         24.7943
   477.94         24.7783
   478.08         24.7492
   478.22         24.7153
   478.36         24.6836
   478.50         24.6595
   478.64         24.6473
   478.78         24.6496
   478.92         24.6652
   479.06         24.6895
   479.20         24.7160
   479.34         24.7390
   479.48         24.7538
   479.62         24.7570
   479.76         24.7462
   479.90         24.7208
   480.04         24.6811
   480.18         24.6287
   480.32         24.5662
   480.46         24.4977
   480.60         24.4284
   480.74         24.3641
   480.88         24.3088
   481.02         24.2635
   481.16         24.2267
   481.30         24.1959
   481.44         24.1685
   481.58         24.1417
   481.72         24.1143
   481.86         24.0858
   482.00         24.0554
   482.14         24.0214
   482.28         23.9821
   482.42         23.9360
   482.56         23.8817
   482.70         23.8185
   482.84         23.7475
   482.98         23.6703
   483.12         23.5867
   483.26         23.4944
   483.40         23.3898
   483.54         23.2685
   483.68         23.1263
   483.82         22.9607
   483.96         22.7715
   484.10         22.5584
   484.24         22.3193
   484.38         22.0495
   484.52         21.7420
   484.66         21.3877
   484.80         20.9755
   484.94         20.4941
   485.08         19.9376
   485.22         19.3118
   485.36         18.6374
   485.50         17.9466
   485.64         17.2783
   485.78         16.6738
   485.92         16.1739
   486.06         15.8127
   486.20         15.6125
   486.34         15.5827
   486.48         15.7193
   486.62         16.0060
   486.76         16.4165
   486.90         16.9180
   487.04         17.4728
   487.18         18.0430
   487.32         18.5934
   487.46         19.0959
   487.60         19.5341
   487.74         19.9043
   487.88         20.2127
   488.02         20.4704
   488.16         20.6899
   488.30         20.8836
   488.44         21.0622
   488.58         21.2329
   488.72         21.3998
   488.86         21.5662
   489.00         21.7361
   489.14         21.9108
   489.28         22.0881
   489.42         22.2628
   489.56         22.4280
   489.70         22.5751
   489.84         22.6947
   489.98         22.7788
   490.12         22.8239
   490.26         22.8333
   490.40         22.8156
   490.54         22.7813
   490.68         22.7374
   490.82         22.6862
   490.96         22.6264
   491.10         22.5553
   491.24         22.4723
   491.38         22.3814
   491.52         22.2910
   491.66         22.2117
   491.80         22.1534
   491.94         22.1246
   492.08         22.1300
   492.22         22.1688
   492.36         22.2363
   492.50         22.3264
   492.64         22.4320
   492.78         22.5441
   492.92         22.6530
   493.06         22.7507
   493.20         22.8294
   493.34         22.8836
   493.48         22.9143
   493.62         22.9271
   493.76         22.9302
   493.90         22.9322
   494.04         22.9388
   494.18         22.9524
   494.32         22.9716
   494.46         22.9908
   494.60         23.0013
   494.74         22.9960
   494.88         22.9748
   495.02         22.9425
   495.16         22.9044
   495.30         22.8623
   495.44         22.8178
   495.58         22.7757
   495.72         22.7415
   495.86         22.7166
   496.00         22.6992
   496.14         22.6870
   496.28         22.6774
   496.42         22.6690
   496.56         22.6599
   496.70         22.6476
   496.84         22.6283
   496.98         22.5967
   497.12         22.5475
   497.26         22.4789
   497.40         22.3930
   497.54         22.2938
   497.68         22.1851
   497.82         22.0713
   497.96         21.9584
   498.10         21.8551
   498.24         21.7706
   498.38         21.7122
   498.52         21.6833
   498.66         21.6842
   498.80         21.7119
   498.94         21.7617
   499.08         21.8257
   499.22         21.8931
   499.36         21.9514
   499.50         21.9896
   499.64         22.0006
   499.78         21.9822
   499.92         21.9355
   500.06         21.8625
   500.20         21.7667
   500.34         21.6531
   500.48         21.5273
   500.62         21.3933
   500.76         21.2546
   500.90         21.1162
   501.04         20.9863
   501.18         20.8742
   501.32         20.7885
   501.46         20.7352
   501.60         20.7176
   501.74         20.7362
   501.88         20.7883
   502.02         20.8697
   502.16         20.9761
   502.30         21.1017
   502.44         21.2386
   502.58         21.3761
   502.72         21.5028
   502.86         21.6084
   503.00         21.6850
   503.14         21.7291
   503.28         21.7431
   503.42         21.7331
   503.56         21.7071
   503.70         21.6733
   503.84         21.6375
   503.98         21.6023
   504.12         21.5688
   504.26         21.5385
   504.40         21.5141
   504.54         21.4987
   504.68         21.4942
   504.82         21.5020
   504.96         21.5221
   505.10         21.5526
   505.24         21.5894
   505.38         21.6275
   505.52         21.6630
   505.66         21.6944
   505.80         21.7212
   505.94         21.7400
   506.08         21.7439
   506.22         21.7274
   506.36         21.6900
   506.50         21.6350
   506.64         21.5663
   506.78         21.4877
   506.92         21.4032
   507.06         21.3166
   507.20         21.2322
   507.34         21.1549
   507.48         21.0896
   507.62         21.0397
   507.76         21.0070
   507.90         20.9922
   508.04         20.9955
   508.18         21.0157
   508.32         21.0483
   508.46         21.0857
   508.60         21.1192
   508.74         21.1429
   508.88         21.1553
   509.02         21.1576
   509.16         21.1526
   509.30         21.1418
   509.44         21.1254
   509.58         21.1040
   509.72         21.0795
   509.86         21.0561
   510.00         21.0399
   510.14         21.0353
   510.28         21.0439
   510.42         21.0649
   510.56         21.0957
   510.70         21.1320
   510.84         21.1689
   510.98         21.2021
   511.12         21.2276
   511.26         21.2415
   511.40         21.2407
   511.54         21.2225
   511.68         21.1853
   511.82         21.1278
   511.96         21.0504
   512.10         20.9563
   512.24         20.8531
   512.38         20.7504
   512.52         20.6568
   512.66         20.5771
   512.80         20.5132
   512.94         20.4642
   513.08         20.4281
   513.22         20.4019
   513.36         20.3835
   513.50         20.3705
   513.64         20.3609
   513.78         20.3540
   513.92         20.3511
   514.06         20.3540
   514.20         20.3628
   514.34         20.3770
   514.48         20.3969
   514.62         20.4227
   514.76         20.4530
   514.90         20.4848
   515.04         20.5127
   515.18         20.5304
   515.32         20.5309
   515.46         20.5071
   515.60         20.4520
   515.74         20.3616
   515.88         20.2367
   516.02         20.0812
   516.16         19.9025
   516.30         19.7132
   516.44         19.5300
   516.58         19.3690
   516.72         19.2423
   516.86         19.1580
   517.00         19.1198
   517.14         19.1237
   517.28         19.1589
   517.42         19.2117
   517.56         19.2685
   517.70         19.3172
   517.84         19.3480
   517.98         19.3545
   518.12         19.3350
   518.26         19.2943
   518.40         19.2414
   518.54         19.1873
   518.68         19.1427
   518.82         19.1174
   518.96         19.1191
   519.10         19.1502
   519.24         19.2051
   519.38         19.2735
   519.52         19.3450
   519.66         19.4106
   519.80         19.4655
   519.94         19.5101
   520.08         19.5475
   520.22         19.5799
   520.36         19.6073
   520.50         19.6303
   520.64         19.6507
   520.78         19.6706
   520.92         19.6916
   521.06         19.7149
   521.20         19.7393
   521.34         19.7602
   521.48         19.7703
   521.62         19.7631
   521.76         19.7346
   521.90         19.6851
   522.04         19.6180
   522.18         19.5385
   522.32         19.4528
   522.46         19.3687
   522.60         19.2935
   522.74         19.2326
   522.88         19.1892
   523.02         19.1639
   523.16         19.1554
   523.30         19.1617
   523.44         19.1797
   523.58         19.2060
   523.72         19.2362
   523.86         19.2646
   524.00         19.2854
   524.14         19.2963
   524.28         19.2985
   524.42         19.2942
   524.56         19.2846
   524.70         19.2693
   524.84         19.2484
   524.98         19.2234
   525.12         19.1946
   525.26         19.1590
   525.40         19.1121
   525.54         19.0503
   525.68         18.9721
   525.82         18.8791
   525.96         18.7745
   526.10         18.6622
   526.24         18.5458
   526.38         18.4289
   526.52         18.3169
   526.66         18.2174
   526.80         18.1382
   526.94         18.0851
   527.08         18.0599
   527.22         18.0602
   527.36         18.0815
   527.50         18.1197
   527.64         18.1724
   527.78         18.2377
   527.92         18.3143
   528.06         18.4012
   528.20         18.4954
   528.34         18.5915
   528.48         18.6829
   528.62         18.7638
   528.76         18.8294
   528.90         18.8769
   529.04         18.9065
   529.18         18.9215
   529.32         18.9253
   529.46         18.9197
   529.60         18.9068
   529.74         18.8900
   529.88         18.8745
   530.02         18.8666
   530.16         18.8711
   530.30         18.8868
   530.44         18.9072
   530.58         18.9231
   530.72         18.9259
   530.86         18.9107
   531.00         18.8768
   531.14         18.8269
   531.28         18.7650
   531.42         18.6953
   531.56         18.6209
   531.70         18.5434
   531.84         18.4641
   531.98         18.3853
   532.12         18.3106
   532.26         18.2453
   532.40         18.1934
   532.54         18.1550
   532.68         18.1267
   532.82         18.1031
   532.96         18.0802
   533.10         18.0579
   533.24         18.0385
   533.38         18.0246
   533.52         18.0186
   533.66         18.0228
   533.80         18.0380
   533.94         18.0649
   534.08         18.1031
   534.22         18.1526
   534.36         18.2139
   534.50         18.2877
   534.64         18.3725
   534.78         18.4645
   534.92         18.5569
   535.06         18.6400
   535.20         18.7029
   535.34         18.7389
   535.48         18.7461
   535.62         18.7253
   535.76         18.6781
   535.90         18.6061
   536.04         18.5129
   536.18         18.4068
   536.32         18.2984
   536.46         18.1983
   536.60         18.1157
   536.74         18.0558
   536.88         18.0204
   537.02         18.0085
   537.16         18.0176
   537.30         18.0438
   537.44         18.0821
   537.58         18.1269
   537.72         18.1734
   537.86         18.2181
   538.00         18.2586
   538.14         18.2924
   538.28         18.3163
   538.42         18.3276
   538.56         18.3251
   538.70         18.3095
   538.84         18.2821
   538.98         18.2432
   539.12         18.1926
   539.26         18.1298
   539.40         18.0550
   539.54         17.9728
   539.68         17.8910
   539.82         17.8178
   539.96         17.7595
   540.10         17.7205
   540.24         17.7034
   540.38         17.7076
   540.52         17.7306
   540.66         17.7697
   540.80         17.8216
   540.94         17.8808
   541.08         17.9403
   541.22         17.9929
   541.36         18.0332
   541.50         18.0575
   541.64         18.0640
   541.78         18.0524
   541.92         18.0227
   542.06         17.9775
   542.20         17.9220
   542.34         17.8613
   542.48         17.8005
   542.62         17.7461
   542.76         17.7041
   542.90         17.6782
   543.04         17.6698
   543.18         17.6779
   543.32         17.6975
   543.46         17.7200
   543.60         17.7372
   543.74         17.7440
   543.88         17.7389
   544.02         17.7229
   544.16         17.6978
   544.30         17.6648
   544.44         17.6251
   544.58         17.5815
   544.72         17.5391
   544.86         17.5019
   545.00         17.4714
   545.14         17.4476
   545.28         17.4302
   545.42         17.4186
   545.56         17.4122
   545.70         17.4100
   545.84         17.4103
   545.98         17.4109
   546.12         17.4108
   546.26         17.4096
   546.40         17.4057
   546.54         17.3958
   546.68         17.3778
   546.82         17.3517
   546.96         17.3192
   547.10         17.2831
   547.24         17.2472
   547.38         17.2157
   547.52         17.1922
   547.66         17.1799
   547.80         17.1811
   547.94         17.1962
   548.08         17.2232
   548.22         17.2584
   548.36         17.2968
   548.50         17.3324
   548.64         17.3606
   548.78         17.3792
   548.92         17.3882
   549.06         17.3886
   549.20         17.3827
   549.34         17.3741
   549.48         17.3653
   549.62         17.3565
   549.76         17.3462
   549.90         17.3330
   550.04         17.3157
   550.18         17.2941
   550.32         17.2688
   550.46         17.2417
   550.60         17.2159
   550.74         17.1949
   550.88         17.1819
   551.02         17.1777
   551.16         17.1820
   551.30         17.1931
   551.44         17.2075
   551.58         17.2191
   551.72         17.2208
   551.86         17.2085
   552.00         17.1820
   552.14         17.1432
   552.28         17.0947
   552.42         17.0398
   552.56         16.9826
   552.70         16.9298
   552.84         16.8892
   552.98         16.8669
   553.12         16.8664
   553.26         16.8883
   553.40         16.9316
   553.54         16.9933
   553.68         17.0691
   553.82         17.1533
   553.96         17.2387
   554.10         17.3184
   554.24         17.3862
   554.38         17.4381
   554.52         17.4725
   554.66         17.4887
   554.80         17.4856
   554.94         17.4628
   555.08         17.4215
   555.22         17.3648
   555.36         17.2963
   555.50         17.2194
   555.64         17.1362
   555.78         17.0495
   555.92         16.9625
   556.06         16.8785
   556.20         16.8000
   556.34         16.7297
   556.48         16.6700
   556.62         16.6222
   556.76         16.5868
   556.90         16.5637
   557.04         16.5519
   557.18         16.5494
   557.32         16.5522
   557.46         16.5540
   557.60         16.5478
   557.74         16.5282
   557.88         16.4931
   558.02         16.4436
   558.16         16.3828
   558.30         16.3155
   558.44         16.2476
   558.58         16.1846
   558.72         16.1307
   558.86         16.0891
   559.00         16.0608
   559.14         16.0443
   559.28         16.0373
   559.42         16.0383
   559.56         16.0463
   559.70         16.0610
   559.84         16.0814
   559.98         16.1054
   560.12         16.1314
   560.26         16.1579
   560.40         16.1825
   560.54         16.2021
   560.68         16.2142
   560.82         16.2172
   560.96         16.2111
   561.10         16.1974
   561.24         16.1781
   561.38         16.1561
   561.52         16.1341
   561.66         16.1149
   561.80         16.1018
   561.94         16.0984
   562.08         16.1071
   562.22         16.1279
   562.36         16.1586
   562.50         16.1944
   562.64         16.2293
   562.78         16.2578
   562.92         16.2758
   563.06         16.2819
   563.20         16.2790
   563.34         16.2727
   563.48         16.2678
   563.62         16.2673
   563.76         16.2714
   563.90         16.2781
   564.04         16.2837
   564.18         16.2851
   564.32         16.2796
   564.46         16.2651
   564.60         16.2391
   564.74         16.1988
   564.88         16.1430
   565.02         16.0729
   565.16         15.9916
   565.30         15.9043
   565.44         15.8176
   565.58         15.7385
   565.72         15.6726
   565.86         15.6236
   566.00         15.5931
   566.14         15.5801
   566.28         15.5819
   566.42         15.5950
   566.56         15.6160
   566.70         15.6419
   566.84         15.6698
   566.98         15.6969
   567.12         15.7203
   567.26         15.7374
   567.40         15.7465
   567.54         15.7468
   567.68         15.7370
   567.82         15.7158
   567.96         15.6838
   568.10         15.6453
   568.24         15.6066
   568.38         15.5731
   568.52         15.5492
   568.66         15.5367
   568.80         15.5347
   568.94         15.5402
   569.08         15.5488
   569.22         15.5558
   569.36         15.5565
   569.50         15.5466
   569.64         15.5234
   569.78         15.4855
   569.92         15.4335
   570.06         15.3709
   570.20         15.3042
   570.34         15.2420
   570.48         15.1929
   570.62         15.1631
   570.76         15.1549
   570.90         15.1660
   571.04         15.1916
   571.18         15.2266
   571.32         15.2671
   571.46         15.3105
   571.60         15.3565
   571.74         15.4060
   571.88         15.4601
   572.02         15.5174
   572.16         15.5751
   572.30         15.6299
   572.44         15.6787
   572.58         15.7200
   572.72         15.7529
   572.86         15.7765
   573.00         15.7896
   573.14         15.7917
   573.28         15.7832
   573.42         15.7651
   573.56         15.7386
   573.70         15.7054
   573.84         15.6671
   573.98         15.6250
   574.12         15.5796
   574.26         15.5318
   574.40         15.4829
   574.54         15.4339
   574.68         15.3873
   574.82         15.3472
   574.96         15.3178
   575.10         15.3006
   575.24         15.2946
   575.38         15.2980
   575.52         15.3091
   575.66         15.3263
   575.80         15.3467
   575.94         15.3662
   576.08         15.3810
   576.22         15.3897
   576.36         15.3939
   576.50         15.3963
   576.64         15.3997
   576.78         15.4056
   576.92         15.4144
   577.06         15.4244
   577.20         15.4328
   577.34         15.4368
   577.48         15.4351
   577.62         15.4265
   577.76         15.4109
   577.90         15.3900
   578.04         15.3662
   578.18         15.3408
   578.32         15.3135
   578.46         15.2834
   578.60         15.2509
   578.74         15.2180
   578.88         15.1865
   579.02         15.1582
   579.16         15.1337
   579.30         15.1124
   579.44         15.0931
   579.58         15.0752
   579.72         15.0597
   579.86         15.0482
   580.00         15.0423
   580.14         15.0423
   580.28         15.0461
   580.42         15.0518
   580.56         15.0585
   580.70         15.0672
   580.84         15.0790
   580.98         15.0939
   581.12         15.1117
   581.26         15.1328
   581.40         15.1570
   581.54         15.1825
   581.68         15.2063
   581.82         15.2253
   581.96         15.2370
   582.10         15.2400
   582.24         15.2345
   582.38         15.2215
   582.52         15.2026
   582.66         15.1805
   582.80         15.1579
   582.94         15.1369
   583.08         15.1201
   583.22         15.1093
   583.36         15.1044
   583.50         15.1040
   583.64         15.1075
   583.78         15.1147
   583.92         15.1233
   584.06         15.1284
   584.20         15.1243
   584.34         15.1060
   584.48         15.0715
   584.62         15.0212
   584.76         14.9577
   584.90         14.8861
   585.04         14.8131
   585.18         14.7453
   585.32         14.6891
   585.46         14.6488
   585.60         14.6268
   585.74         14.6242
   585.88         14.6402
   586.02         14.6715
   586.16         14.7141
   586.30         14.7632
   586.44         14.8125
   586.58         14.8549
   586.72         14.8854
   586.86         14.9016
   587.00         14.9032
   587.14         14.8920
   587.28         14.8705
   587.42         14.8400
   587.56         14.8004
   587.70         14.7498
   587.84         14.6853
   587.98         14.6057
   588.12         14.5109
   588.26         14.4022
   588.40         14.2819
   588.54         14.1542
   588.68         14.0266
   588.82         13.9084
   588.96         13.8077
   589.10         13.7305
   589.24         13.6809
   589.38         13.6620
   589.52         13.6740
   589.66         13.7146
   589.80         13.7797
   589.94         13.8636
   590.08         13.9587
   590.22         14.0556
   590.36         14.1455
   590.50         14.2220
   590.64         14.2825
   590.78         14.3268
   590.92         14.3559
   591.06         14.3724
   591.20         14.3796
   591.34         14.3807
   591.48         14.3776
   591.62         14.3721
   591.76         14.3666
   591.90         14.3631
   592.04         14.3626
   592.18         14.3647
   592.32         14.3689
   592.46         14.3760
   592.60         14.3860
   592.74         14.3964
   592.88         14.4043
   593.02         14.4084
   593.16         14.4083
   593.30         14.4026
   593.44         14.3891
   593.58         14.3656
   593.72         14.3318
   593.86         14.2900
   594.00         14.2437
   594.14         14.1960
   594.28         14.1494
   594.42         14.1057
   594.56         14.0664
   594.70         14.0336
   594.84         14.0104
   594.98         14.0009
   595.12         14.0094
   595.26         14.0368
   595.40         14.0802
   595.54         14.1346
   595.68         14.1934
   595.82         14.2494
   595.96         14.2966
   596.10         14.3318
   596.24         14.3543
   596.38         14.3645
   596.52         14.3620
   596.66         14.3462
   596.80         14.3182
   596.94         14.2812
   597.08         14.2388
   597.22         14.1944
   597.36         14.1511
   597.50         14.1110
   597.64         14.0750
   597.78         14.0425
   597.92         14.0112
   598.06         13.9783
   598.20         13.9424
   598.34         13.9045
   598.48         13.8670
   598.62         13.8331
   598.76         13.8050
   598.90         13.7833
   599.04         13.7668
   599.18         13.7537
   599.32         13.7420
   599.46         13.7295
   599.60         13.7131
   599.74         13.6897
   599.88         13.6579
   600.02         13.6181
   600.16         13.5712
   600.30         13.5189
   600.44         13.4642
   600.58         13.4109
   600.72         13.3625
   600.86         13.3214
   601.00         13.2896
   601.14         13.2685
   601.28         13.2596
   601.42         13.2629
   601.56         13.2765
   601.70         13.2969
   601.84         13.3199
   601.98         13.3422
   602.12         13.3631
   602.26         13.3842
   602.40         13.4073
   602.54         13.4333
   602.68         13.4624
   602.82         13.4930
   602.96         13.5233
   603.10         13.5526
   603.24         13.5786
   603.38         13.5974
   603.52         13.6060
   603.66         13.6037
   603.80         13.5911
   603.94         13.5698
   604.08         13.5408
   604.22         13.5065
   604.36         13.4705
   604.50         13.4371
   604.64         13.4099
   604.78         13.3914
   604.92         13.3812
   605.06         13.3765
   605.20         13.3741
   605.34         13.3716
   605.48         13.3666
   605.62         13.3578
   605.76         13.3454
   605.90         13.3301
   606.04         13.3133
   606.18         13.2972
   606.32         13.2827
   606.46         13.2709
   606.60         13.2627
   606.74         13.2582
   606.88         13.2565
   607.02         13.2557
   607.16         13.2536
   607.30         13.2483
   607.44         13.2393
   607.58         13.2261
   607.72         13.2091
   607.86         13.1901
   608.00         13.1716
   608.14         13.1571
   608.28         13.1509
   608.42         13.1569
   608.56         13.1763
   608.70         13.2070
   608.84         13.2438
   608.98         13.2786
   609.12         13.3023
   609.26         13.3071
   609.40         13.2886
   609.54         13.2468
   609.68         13.1862
   609.82         13.1141
   609.96         13.0383
   610.10         12.9660
   610.24         12.9043
   610.38         12.8611
   610.52         12.8419
   610.66         12.8481
   610.80         12.8777
   610.94         12.9257
   611.08         12.9841
   611.22         13.0436
   611.36         13.0963
   611.50         13.1354
   611.64         13.1571
   611.78         13.1616
   611.92         13.1531
   612.06         13.1368
   612.20         13.1169
   612.34         13.0959
   612.48         13.0741
   612.62         13.0492
   612.76         13.0193
   612.90         12.9841
   613.04         12.9435
   613.18         12.8974
   613.32         12.8458
   613.46         12.7893
   613.60         12.7295
   613.74         12.6692
   613.88         12.6122
   614.02         12.5626
   614.16         12.5244
   614.30         12.5012
   614.44         12.4951
   614.58         12.5059
   614.72         12.5307
   614.86         12.5647
   615.00         12.6015
   615.14         12.6347
   615.28         12.6607
   615.42         12.6791
   615.56         12.6905
   615.70         12.6967
   615.84         12.6991
   615.98         12.6992
   616.12         12.6991
   616.26         12.7021
   616.40         12.7110
   616.54         12.7276
   616.68         12.7518
   616.82         12.7808
   616.96         12.8102
   617.10         12.8356
   617.24         12.8541
   617.38         12.8643
   617.52         12.8664
   617.66         12.8615
   617.80         12.8524
   617.94         12.8419
   618.08         12.8307
   618.22         12.8185
   618.36         12.8057
   618.50         12.7926
   618.64         12.7789
   618.78         12.7637
   618.92         12.7468
   619.06         12.7294
   619.20         12.7132
   619.34         12.6991
   619.48         12.6885
   619.62         12.6831
   619.76         12.6843
   619.90         12.6915
   620.04         12.7023
   620.18         12.7125
   620.32         12.7181
   620.46         12.7158
   620.60         12.7032
   620.74         12.6798
   620.88         12.6474
   621.02         12.6095
   621.16         12.5690
   621.30         12.5302
   621.44         12.4980
   621.58         12.4767
   621.72         12.4691
   621.86         12.4741
   622.00         12.4877
   622.14         12.5061
   622.28         12.5262
   622.42         12.5454
   622.56         12.5610
   622.70         12.5699
   622.84         12.5704
   622.98         12.5627
   623.12         12.5486
   623.26         12.5303
   623.40         12.5093
   623.54         12.4873
   623.68         12.4658
   623.82         12.4463
   623.96         12.4284
   624.10         12.4105
   624.24         12.3916
   624.38         12.3721
   624.52         12.3528
   624.66         12.3358
   624.80         12.3251
   624.94         12.3241
   625.08         12.3342
   625.22         12.3534
   625.36         12.3776
   625.50         12.4031
   625.64         12.4277
   625.78         12.4489
   625.92         12.4638
   626.06         12.4704
   626.20         12.4685
   626.34         12.4576
   626.48         12.4367
   626.62         12.4060
   626.76         12.3689
   626.90         12.3292
   627.04         12.2890
   627.18         12.2488
   627.32         12.2091
   627.46         12.1721
   627.60         12.1396
   627.74         12.1118
   627.88         12.0896
   628.02         12.0755
   628.16         12.0725
   628.30         12.0821
   628.44         12.1032
   628.58         12.1332
   628.72         12.1687
   628.86         12.2039
   629.00         12.2320
   629.14         12.2469
   629.28         12.2458
   629.42         12.2277
   629.56         12.1935
   629.70         12.1469
   629.84         12.0937
   629.98         12.0408
   630.12         11.9934
   630.26         11.9544
   630.40         11.9248
   630.54         11.9062
   630.68         11.8994
   630.82         11.9033
   630.96         11.9156
   631.10         11.9333
   631.24         11.9540
   631.38         11.9758
   631.52         11.9974
   631.66         12.0190
   631.80         12.0411
   631.94         12.0638
   632.08         12.0855
   632.22         12.1042
   632.36         12.1169
   632.50         12.1194
   632.64         12.1085
   632.78         12.0842
   632.92         12.0495
   633.06         12.0103
   633.20         11.9742
   633.34         11.9472
   633.48         11.9315
   633.62         11.9278
   633.76         11.9374
   633.90         11.9616
   634.04         11.9999
   634.18         12.0491
   634.32         12.1037
   634.46         12.1572
   634.60         12.2038
   634.74         12.2385
   634.88         12.2576
   635.02         12.2594
   635.16         12.2449
   635.30         12.2179
   635.44         12.1838
   635.58         12.1481
   635.72         12.1152
   635.86         12.0867
   636.00         12.0610
   636.14         12.0369
   636.28         12.0158
   636.42         12.0007
   636.56         11.9936
   636.70         11.9947
   636.84         12.0027
   636.98         12.0154
   637.12         12.0304
   637.26         12.0449
   637.40         12.0568
   637.54         12.0644
   637.68         12.0671
   637.82         12.0642
   637.96         12.0562
   638.10         12.0440
   638.24         12.0290
   638.38         12.0131
   638.52         11.9978
   638.66         11.9849
   638.80         11.9771
   638.94         11.9778
   639.08         11.9884
   639.22         12.0072
   639.36         12.0303
   639.50         12.0532
   639.64         12.0720
   639.78         12.0842
   639.92         12.0886
   640.06         12.0850
   640.20         12.0742
   640.34         12.0575
   640.48         12.0368
   640.62         12.0136
   640.76         11.9888
   640.90         11.9630
   641.04         11.9376
   641.18         11.9143
   641.32         11.8953
   641.46         11.8839
   641.60         11.8837
   641.74         11.8952
   641.88         11.9162
   642.02         11.9438
   642.16         11.9755
   642.30         12.0081
   642.44         12.0380
   642.58         12.0621
   642.72         12.0779
   642.86         12.0829
   643.00         12.0760
   643.14         12.0572
   643.28         12.0277
   643.42         11.9891
   643.56         11.9443
   643.70         11.8972
   643.84         11.8507
   643.98         11.8072
   644.12         11.7693
   644.26         11.7385
   644.40         11.7131
   644.54         11.6905
   644.68         11.6690
   644.82         11.6484
   644.96         11.6288
   645.10         11.6108
   645.24         11.5952
   645.38         11.5837
   645.52         11.5785
   645.66         11.5822
   645.80         11.5961
   645.94         11.6188
   646.08         11.6471
   646.22         11.6784
   646.36         11.7094
   646.50         11.7367
   646.64         11.7575
   646.78         11.7704
   646.92         11.7746
   647.06         11.7708
   647.20         11.7618
   647.34         11.7522
   647.48         11.7461
   647.62         11.7462
   647.76         11.7537
   647.90         11.7678
   648.04         11.7860
   648.18         11.8039
   648.32         11.8159
   648.46         11.8168
   648.60         11.8036
   648.74         11.7763
   648.88         11.7376
   649.02         11.6914
   649.16         11.6420
   649.30         11.5951
   649.44         11.5563
   649.58         11.5292
   649.72         11.5151
   649.86         11.5139
   650.00         11.5242
   650.14         11.5432
   650.28         11.5669
   650.42         11.5909
   650.56         11.6119
   650.70         11.6279
   650.84         11.6386
   650.98         11.6448
   651.12         11.6489
   651.26         11.6536
   651.40         11.6612
   651.54         11.6726
   651.68         11.6877
   651.82         11.7060
   651.96         11.7268
   652.10         11.7487
   652.24         11.7696
   652.38         11.7868
   652.52         11.7984
   652.66         11.8026
   652.80         11.7977
   652.94         11.7842
   653.08         11.7635
   653.22         11.7366
   653.36         11.7040
   653.50         11.6664
   653.64         11.6242
   653.78         11.5778
   653.92         11.5262
   654.06         11.4668
   654.20         11.3971
   654.34         11.3152
   654.48         11.2198
   654.62         11.1092
   654.76         10.9806
   654.90         10.8284
   655.04         10.6456
   655.18         10.4270
   655.32         10.1725
   655.46         9.8901
   655.60         9.5949
   655.74         9.3063
   655.88         9.0451
   656.02         8.8319
   656.16         8.6841
   656.30         8.6138
   656.44         8.6257
   656.58         8.7180
   656.72         8.8830
   656.86         9.1072
   657.00         9.3722
   657.14         9.6562
   657.28         9.9376
   657.42         10.1972
   657.56         10.4199
   657.70         10.5982
   657.84         10.7332
   657.98         10.8323
   658.12         10.9035
   658.26         10.9539
   658.40         10.9889
   658.54         11.0130
   658.68         11.0299
   658.82         11.0426
   658.96         11.0543
   659.10         11.0682
   659.24         11.0881
   659.38         11.1163
   659.52         11.1534
   659.66         11.1981
   659.80         11.2474
   659.94         11.2966
   660.08         11.3405
   660.22         11.3751
   660.36         11.3984
   660.50         11.4098
   660.64         11.4090
   660.78         11.3975
   660.92         11.3792
   661.06         11.3593
   661.20         11.3424
   661.34         11.3324
   661.48         11.3325
   661.62         11.3444
   661.76         11.3673
   661.90         11.3973
   662.04         11.4291
   662.18         11.4573
   662.32         11.4770
   662.46         11.4853
   662.60         11.4817
   662.74         11.4680
   662.88         11.4470
   663.02         11.4214
   663.16         11.3937
   663.30         11.3667
   663.44         11.3431
   663.58         11.3244
   663.72         11.3112
   663.86         11.3027
   664.00         11.2978
   664.14         11.2944
   664.28         11.2901
   664.42         11.2833
   664.56         11.2740
   664.70         11.2628
   664.84         11.2500
   664.98         11.2349
   665.12         11.2160
   665.26         11.1911
   665.40         11.1582
   665.54         11.1165
   665.68         11.0681
   665.82         11.0170
   665.96         10.9681
   666.10         10.9268
   666.24         10.8981
   666.38         10.8860
   666.52         10.8918
   666.66         10.9149
   666.80         10.9520
   666.94         10.9986
   667.08         11.0491
   667.22         11.0969
   667.36         11.1356
   667.50         11.1611
   667.64         11.1705
   667.78         11.1632
   667.92         11.1413
   668.06         11.1108
   668.20         11.0790
   668.34         11.0526
   668.48         11.0351
   668.62         11.0275
   668.76         11.0288
   668.90         11.0376
   669.04         11.0514
   669.18         11.0674
   669.32         11.0832
   669.46         11.0961
   669.60         11.1039
   669.74         11.1056
   669.88         11.1017
   670.02         11.0936
   670.16         11.0819
   670.30         11.0666
   670.44         11.0482
   670.58         11.0281
   670.72         11.0073
   670.86         10.9860
   671.00         10.9643
   671.14         10.9420
   671.28         10.9194
   671.42         10.8978
   671.56         10.8790
   671.70         10.8638
   671.84         10.8535
   671.98         10.8496
   672.12         10.8530
   672.26         10.8635
   672.40         10.8788
   672.54         10.8947
   672.68         10.9068
   672.82         10.9123
   672.96         10.9108
   673.10         10.9030
   673.24         10.8890
   673.38         10.8687
   673.52         10.8425
   673.66         10.8110
   673.80         10.7751
   673.94         10.7369
   674.08         10.6997
   674.22         10.6659
   674.36         10.6366
   674.50         10.6123
   674.64         10.5923
   674.78         10.5745
   674.92         10.5574
   675.06         10.5410
   675.20         10.5275
   675.34         10.5198
   675.48         10.5208
   675.62         10.5310
   675.76         10.5489
   675.90         10.5725
   676.04         10.6001
   676.18         10.6310
   676.32         10.6640
   676.46         10.6981
   676.60         10.7316
   676.74         10.7626
   676.88         10.7887
   677.02         10.8076
   677.16         10.8178
   677.30         10.8180
   677.44         10.8084
   677.58         10.7895
   677.72         10.7623
   677.86         10.7283
   678.00         10.6898
   678.14         10.6495
   678.28         10.6097
   678.42         10.5727
   678.56         10.5417
   678.70         10.5201
   678.84         10.5107
   678.98         10.5152
   679.12         10.5336
   679.26         10.5648
   679.40         10.6059
   679.54         10.6528
   679.68         10.7009
   679.82         10.7462
   679.96         10.7859
   680.10         10.8188
   680.24         10.8447
   680.38         10.8634
   680.52         10.8752
   680.66         10.8800
   680.80         10.8778
   680.94         10.8689
   681.08         10.8537
   681.22         10.8326
   681.36         10.8062
   681.50         10.7745
   681.64         10.7373
   681.78         10.6954
   681.92         10.6503
   682.06         10.6043
   682.20         10.5598
   682.34         10.5197
   682.48         10.4874
   682.62         10.4667
   682.76         10.4592
   682.90         10.4627
   683.04         10.4729
   683.18         10.4864
   683.32         10.5004
   683.46         10.5131
   683.60         10.5232
   683.74         10.5293
   683.88         10.5310
   684.02         10.5288
   684.16         10.5225
   684.30         10.5118
   684.44         10.4969
   684.58         10.4786
   684.72         10.4582
   684.86         10.4370
   685.00         10.4179
   685.14         10.4035
   685.28         10.3943
   685.42         10.3856
   685.56         10.3684
   685.70         10.3329
   685.84         10.2702
   685.98         10.1745
   686.12         10.0431
   686.26         9.8769
   686.40         9.6809
   686.54         9.4644
   686.68         9.2400
   686.82         9.0228
   686.96         8.8290
   687.10         8.6749
   687.24         8.5731
   687.38         8.5297
   687.52         8.5441
   687.66         8.6101
   687.80         8.7156
   687.94         8.8434
   688.08         8.9751
   688.22         9.0957
   688.36         9.1963
   688.50         9.2740
   688.64         9.3294
   688.78         9.3658
   688.92         9.3875
   689.06         9.3997
   689.20         9.4075
   689.34         9.4156
   689.48         9.4267
   689.62         9.4410
   689.76         9.4574
   689.90         9.4742
   690.04         9.4898
   690.18         9.5033
   690.32         9.5155
   690.46         9.5275
   690.60         9.5413
   690.74         9.5598
   690.88         9.5857
   691.02         9.6197
   691.16         9.6611
   691.30         9.7079
   691.44         9.7576
   691.58         9.8062
   691.72         9.8494
   691.86         9.8834
   692.00         9.9059
   692.14         9.9163
   692.28         9.9163
   692.42         9.9096
   692.56         9.9002
   692.70         9.8913
   692.84         9.8853
   692.98         9.8844
   693.12         9.8896
   693.26         9.8999
   693.40         9.9124
   693.54         9.9236
   693.68         9.9304
   693.82         9.9319
   693.96         9.9289
   694.10         9.9219
   694.24         9.9113
   694.38         9.8976
   694.52         9.8833
   694.66         9.8706
   694.80         9.8612
   694.94         9.8555
   695.08         9.8541
   695.22         9.8569
   695.36         9.8641
   695.50         9.8765
   695.64         9.8957
   695.78         9.9233
   695.92         9.9609
   696.06         10.0096
   696.20         10.0695
   696.34         10.1385
   696.48         10.2121
   696.62         10.2839
   696.76         10.3473
   696.90         10.3968
   697.04         10.4289
   697.18         10.4418
   697.32         10.4350
   697.46         10.4084
   697.60         10.3642
   697.74         10.3056
   697.88         10.2372
   698.02         10.1651
   698.16         10.0964
   698.30         10.0373
   698.44         9.9928
   698.58         9.9643
   698.72         9.9495
   698.86         9.9444
   699.00         9.9454
   699.14         9.9491
   699.28         9.9528
   699.42         9.9537
   699.56         9.9492
   699.70         9.9380
   699.84         9.9206
   699.98         9.8985
   700.12         9.8741
   700.26         9.8510
   700.40         9.8338
   700.54         9.8275
   700.68         9.8348
   700.82         9.8542
   700.96         9.8814
   701.10         9.9113
   701.24         9.9401
   701.38         9.9665
   701.52         9.9911
   701.66         10.0150
   701.80         10.0393
   701.94         10.0648
   702.08         10.0917
   702.22         10.1197
   702.36         10.1479
   702.50         10.1748
   702.64         10.1988
   702.78         10.2180
   702.92         10.2314
   703.06         10.2387
   703.20         10.2387
   703.34         10.2293
   703.48         10.2095
   703.62         10.1816
   703.76         10.1502
   703.90         10.1205
   704.04         10.0962
   704.18         10.0793
   704.32         10.0702
   704.46         10.0686
   704.60         10.0724
   704.74         10.0786
   704.88         10.0846
   705.02         10.0889
   705.16         10.0914
   705.30         10.0931
   705.44         10.0954
   705.58         10.1007
   705.72         10.1108
   705.86         10.1261
   706.00         10.1453
   706.14         10.1671
   706.28         10.1904
   706.42         10.2140
   706.56         10.2359
   706.70         10.2532
   706.84         10.2620
   706.98         10.2595
   707.12         10.2452
   707.26         10.2208
   707.40         10.1900
   707.54         10.1578
   707.68         10.1272
   707.82         10.0999
   707.96         10.0760
   708.10         10.0553
   708.24         10.0363
   708.38         10.0167
   708.52         9.9940
   708.66         9.9671
   708.80         9.9365
   708.94         9.9039
   709.08         9.8712
   709.22         9.8402
   709.36         9.8131
   709.50         9.7925
   709.64         9.7813
   709.78         9.7812
   709.92         9.7916
   710.06         9.8100
   710.20         9.8327
   710.34         9.8562
   710.48         9.8790
   710.62         9.9005
   710.76         9.9216
   710.90         9.9439
   711.04         9.9689
   711.18         9.9982
   711.32         10.0324
   711.46         10.0704
   711.60         10.1105
   711.74         10.1511
   711.88         10.1894
   712.02         10.2219
   712.16         10.2457
   712.30         10.2582
   712.44         10.2582
   712.58         10.2463
   712.72         10.2259
   712.86         10.2010
   713.00         10.1747
   713.14         10.1484
   713.28         10.1230
   713.42         10.1007
   713.56         10.0833
   713.70         10.0714
   713.84         10.0641
   713.98         10.0604
   714.12         10.0597
   714.26         10.0630
   714.40         10.0713
   714.54         10.0835
   714.68         10.0965
   714.82         10.1074
   714.96         10.1132
   715.10         10.1114
   715.24         10.0994
   715.38         10.0746
   715.52         10.0345
   715.66         9.9794
   715.80         9.9135
   715.94         9.8426
   716.08         9.7715
   716.22         9.7034
   716.36         9.6407
   716.50         9.5846
   716.64         9.5368
   716.78         9.4987
   716.92         9.4700
   717.06         9.4471
   717.20         9.4237
   717.34         9.3936
   717.48         9.3537
   717.62         9.3046
   717.76         9.2496
   717.90         9.1926
   718.04         9.1376
   718.18         9.0899
   718.32         9.0539
   718.46         9.0306
   718.60         9.0189
   718.74         9.0182
   718.88         9.0281
   719.02         9.0473
   719.16         9.0730
   719.30         9.1010
   719.44         9.1274
   719.58         9.1492
   719.72         9.1654
   719.86         9.1791
   720.00         9.1973
   720.14         9.2285
   720.28         9.2788
   720.42         9.3497
   720.56         9.4385
   720.70         9.5415
   720.84         9.6523
   720.98         9.7616
   721.12         9.8602
   721.26         9.9419
   721.40         10.0015
   721.54         10.0347
   721.68         10.0396
   721.82         10.0178
   721.96         9.9737
   722.10         9.9121
   722.24         9.8377
   722.38         9.7561
   722.52         9.6746
   722.66         9.6007
   722.80         9.5401
   722.94         9.4972
   723.08         9.4752
   723.22         9.4744
   723.36         9.4921
   723.50         9.5237
   723.64         9.5635
   723.78         9.6061
   723.92         9.6456
   724.06         9.6750
   724.20         9.6882
   724.34         9.6811
   724.48         9.6517
   724.62         9.6002
   724.76         9.5307
   724.90         9.4524
   725.04         9.3759
   725.18         9.3106
   725.32         9.2621
   725.46         9.2341
   725.60         9.2296
   725.74         9.2499
   725.88         9.2931
   726.02         9.3547
   726.16         9.4280
   726.30         9.5042
   726.44         9.5740
   726.58         9.6290
   726.72         9.6642
   726.86         9.6783
   727.00         9.6720
   727.14         9.6469
   727.28         9.6064
   727.42         9.5548
   727.56         9.4962
   727.70         9.4348
   727.84         9.3753
   727.98         9.3222
   728.12         9.2793
   728.26         9.2483
   728.40         9.2282
   728.54         9.2177
   728.68         9.2166
   728.82         9.2250
   728.96         9.2419
   729.10         9.2646
   729.24         9.2901
   729.38         9.3156
   729.52         9.3381
   729.66         9.3532
   729.80         9.3576
   729.94         9.3504
   730.08         9.3318
   730.22         9.3038
   730.36         9.2708
   730.50         9.2372
   730.64         9.2062
   730.78         9.1798
   730.92         9.1602
   731.06         9.1497
   731.20         9.1500
   731.34         9.1599
   731.48         9.1763
   731.62         9.1963
   731.76         9.2195
   731.90         9.2471
   732.04         9.2796
   732.18         9.3155
   732.32         9.3521
   732.46         9.3869
   732.60         9.4179
   732.74         9.4438
   732.88         9.4633
   733.02         9.4740
   733.16         9.4722
   733.30         9.4563
   733.44         9.4272
   733.58         9.3877
   733.72         9.3406
   733.86         9.2894
   734.00         9.2385
   734.14         9.1934
   734.28         9.1592
   734.42         9.1384
   734.56         9.1305
   734.70         9.1332
   734.84         9.1445
   734.98         9.1633
   735.12         9.1875
   735.26         9.2138
   735.40         9.2381
   735.54         9.2573
   735.68         9.2703
   735.82         9.2778
   735.96         9.2809
   736.10         9.2800
   736.24         9.2752
   736.38         9.2683
   736.52         9.2619
   736.66         9.2585
   736.80         9.2581
   736.94         9.2589
   737.08         9.2592
   737.22         9.2584
   737.36         9.2571
   737.50         9.2565
   737.64         9.2574
   737.78         9.2602
   737.92         9.2643
   738.06         9.2689
   738.20         9.2729
   738.34         9.2746
   738.48         9.2720
   738.62         9.2632
   738.76         9.2475
   738.90         9.2254
   739.04         9.1979
   739.18         9.1655
   739.32         9.1277
   739.46         9.0837
   739.60         9.0335
   739.74         8.9778
   739.88         8.9187
   740.02         8.8581
   740.16         8.7983
   740.30         8.7424
   740.44         8.6945
   740.58         8.6589
   740.72         8.6386
   740.86         8.6358
   741.00         8.6521
   741.14         8.6879
   741.28         8.7411
   741.42         8.8074
   741.56         8.8811
   741.70         8.9559
   741.84         9.0257
   741.98         9.0856
   742.12         9.1332
   742.26         9.1680
   742.40         9.1909
   742.54         9.2040
   742.68         9.2097
   742.82         9.2112
   742.96         9.2112
   743.10         9.2097
   743.24         9.2040
   743.38         9.1909
   743.52         9.1680
   743.66         9.1332
   743.80         9.0856
   743.94         9.0257
   744.08         8.9559
   744.22         8.8811
