# File SAO55164
# Wavelength [nm]    Normalized Amplitude
   349.70         2.0280
   349.84         2.0230
   349.98         2.0217
   350.12         2.0232
   350.26         2.0265
   350.40         2.0314
   350.54         2.0380
   350.68         2.0457
   350.82         2.0533
   350.96         2.0591
   351.10         2.0614
   351.24         2.0591
   351.38         2.0533
   351.52         2.0457
   351.66         2.0380
   351.80         2.0314
   351.94         2.0265
   352.08         2.0232
   352.22         2.0217
   352.36         2.0230
   352.50         2.0280
   352.64         2.0370
   352.78         2.0496
   352.92         2.0654
   353.06         2.0836
   353.20         2.1018
   353.34         2.1163
   353.48         2.1246
   353.62         2.1261
   353.76         2.1212
   353.90         2.1108
   354.04         2.0961
   354.18         2.0780
   354.32         2.0575
   354.46         2.0356
   354.60         2.0125
   354.74         1.9882
   354.88         1.9622
   355.02         1.9342
   355.16         1.9037
   355.30         1.8711
   355.44         1.8371
   355.58         1.8017
   355.72         1.7646
   355.86         1.7255
   356.00         1.6860
   356.14         1.6490
   356.28         1.6183
   356.42         1.5951
   356.56         1.5787
   356.70         1.5670
   356.84         1.5576
   356.98         1.5468
   357.12         1.5310
   357.26         1.5074
   357.40         1.4752
   357.54         1.4350
   357.68         1.3887
   357.82         1.3400
   357.96         1.2944
   358.10         1.2583
   358.24         1.2388
   358.38         1.2440
   358.52         1.2804
   358.66         1.3506
   358.80         1.4527
   358.94         1.5807
   359.08         1.7238
   359.22         1.8698
   359.36         2.0071
   359.50         2.1257
   359.64         2.2172
   359.78         2.2762
   359.92         2.3015
   360.06         2.2961
   360.20         2.2656
   360.34         2.2187
   360.48         2.1653
   360.62         2.1134
   360.76         2.0690
   360.90         2.0366
   361.04         2.0185
   361.18         2.0149
   361.32         2.0259
   361.46         2.0520
   361.60         2.0925
   361.74         2.1443
   361.88         2.2025
   362.02         2.2619
   362.16         2.3177
   362.30         2.3670
   362.44         2.4092
   362.58         2.4456
   362.72         2.4777
   362.86         2.5069
   363.00         2.5347
   363.14         2.5609
   363.28         2.5847
   363.42         2.6053
   363.56         2.6218
   363.70         2.6334
   363.84         2.6399
   363.98         2.6425
   364.12         2.6427
   364.26         2.6419
   364.40         2.6421
   364.54         2.6466
   364.68         2.6609
   364.82         2.6908
   364.96         2.7404
   365.10         2.8109
   365.24         2.8994
   365.38         2.9995
   365.52         3.1024
   365.66         3.1978
   365.80         3.2758
   365.94         3.3299
   366.08         3.3580
   366.22         3.3625
   366.36         3.3491
   366.50         3.3246
   366.64         3.2950
   366.78         3.2645
   366.92         3.2352
   367.06         3.2081
   367.20         3.1833
   367.34         3.1599
   367.48         3.1352
   367.62         3.1071
   367.76         3.0746
   367.90         3.0385
   368.04         3.0013
   368.18         2.9666
   368.32         2.9383
   368.46         2.9202
   368.60         2.9165
   368.74         2.9309
   368.88         2.9656
   369.02         3.0193
   369.16         3.0869
   369.30         3.1596
   369.44         3.2272
   369.58         3.2798
   369.72         3.3100
   369.86         3.3142
   370.00         3.2933
   370.14         3.2533
   370.28         3.2036
   370.42         3.1528
   370.56         3.1067
   370.70         3.0666
   370.84         3.0302
   370.98         2.9942
   371.12         2.9564
   371.26         2.9168
   371.40         2.8749
   371.54         2.8293
   371.68         2.7773
   371.82         2.7180
   371.96         2.6519
   372.10         2.5814
   372.24         2.5091
   372.38         2.4377
   372.52         2.3699
   372.66         2.3076
   372.80         2.2522
   372.94         2.2032
   373.08         2.1582
   373.22         2.1140
   373.36         2.0684
   373.50         2.0217
   373.64         1.9764
   373.78         1.9362
   373.92         1.9049
   374.06         1.8862
   374.20         1.8825
   374.34         1.8956
   374.48         1.9249
   374.62         1.9666
   374.76         2.0160
   374.90         2.0687
   375.04         2.1230
   375.18         2.1785
   375.32         2.2339
   375.46         2.2863
   375.60         2.3317
   375.74         2.3675
   375.88         2.3937
   376.02         2.4140
   376.16         2.4352
   376.30         2.4641
   376.44         2.5060
   376.58         2.5639
   376.72         2.6376
   376.86         2.7240
   377.00         2.8175
   377.14         2.9114
   377.28         2.9988
   377.42         3.0738
   377.56         3.1306
   377.70         3.1638
   377.84         3.1700
   377.98         3.1483
   378.12         3.1006
   378.26         3.0311
   378.40         2.9455
   378.54         2.8498
   378.68         2.7498
   378.82         2.6508
   378.96         2.5579
   379.10         2.4770
   379.24         2.4142
   379.38         2.3748
   379.52         2.3606
   379.66         2.3697
   379.80         2.3975
   379.94         2.4376
   380.08         2.4827
   380.22         2.5251
   380.36         2.5588
   380.50         2.5789
   380.64         2.5808
   380.78         2.5608
   380.92         2.5166
   381.06         2.4485
   381.20         2.3587
   381.34         2.2512
   381.48         2.1312
   381.62         2.0047
   381.76         1.8784
   381.90         1.7585
   382.04         1.6498
   382.18         1.5558
   382.32         1.4801
   382.46         1.4250
   382.60         1.3910
   382.74         1.3759
   382.88         1.3761
   383.02         1.3883
   383.16         1.4107
   383.30         1.4412
   383.44         1.4777
   383.58         1.5177
   383.72         1.5587
   383.86         1.5985
   384.00         1.6352
   384.14         1.6680
   384.28         1.6959
   384.42         1.7173
   384.56         1.7299
   384.70         1.7316
   384.84         1.7216
   384.98         1.7007
   385.12         1.6715
   385.26         1.6373
   385.40         1.6018
   385.54         1.5690
   385.68         1.5424
   385.82         1.5239
   385.96         1.5134
   386.10         1.5110
   386.24         1.5178
   386.38         1.5344
   386.52         1.5598
   386.66         1.5909
   386.80         1.6239
   386.94         1.6552
   387.08         1.6831
   387.22         1.7083
   387.36         1.7333
   387.50         1.7607
   387.64         1.7934
   387.78         1.8346
   387.92         1.8883
   388.06         1.9578
   388.20         2.0457
   388.34         2.1526
   388.48         2.2774
   388.62         2.4172
   388.76         2.5667
   388.90         2.7184
   389.04         2.8628
   389.18         2.9912
   389.32         3.0970
   389.46         3.1773
   389.60         3.2321
   389.74         3.2648
   389.88         3.2810
   390.02         3.2871
   390.16         3.2898
   390.30         3.2954
   390.44         3.3081
   390.58         3.3286
   390.72         3.3528
   390.86         3.3736
   391.00         3.3833
   391.14         3.3760
   391.28         3.3471
   391.42         3.2939
   391.56         3.2152
   391.70         3.1113
   391.84         2.9833
   391.98         2.8331
   392.12         2.6643
   392.26         2.4823
   392.40         2.2938
   392.54         2.1069
   392.68         1.9301
   392.82         1.7718
   392.96         1.6396
   393.10         1.5400
   393.24         1.4777
   393.38         1.4570
   393.52         1.4808
   393.66         1.5502
   393.80         1.6630
   393.94         1.8136
   394.08         1.9935
   394.22         2.1923
   394.36         2.3990
   394.50         2.6032
   394.64         2.7957
   394.78         2.9687
   394.92         3.1150
   395.06         3.2273
   395.20         3.2991
   395.34         3.3243
   395.48         3.2989
   395.62         3.2214
   395.76         3.0946
   395.90         2.9264
   396.04         2.7298
   396.18         2.5213
   396.32         2.3196
   396.46         2.1443
   396.60         2.0139
   396.74         1.9432
   396.88         1.9417
   397.02         2.0120
   397.16         2.1508
   397.30         2.3486
   397.44         2.5918
   397.58         2.8641
   397.72         3.1490
   397.86         3.4318
   398.00         3.7009
   398.14         3.9480
   398.28         4.1677
   398.42         4.3575
   398.56         4.5170
   398.70         4.6490
   398.84         4.7579
   398.98         4.8486
   399.12         4.9257
   399.26         4.9914
   399.40         5.0460
   399.54         5.0894
   399.68         5.1232
   399.82         5.1506
   399.96         5.1754
   400.10         5.2011
   400.24         5.2307
   400.38         5.2665
   400.52         5.3099
   400.66         5.3610
   400.80         5.4184
   400.94         5.4791
   401.08         5.5403
   401.22         5.5998
   401.36         5.6566
   401.50         5.7097
   401.64         5.7575
   401.78         5.7960
   401.92         5.8200
   402.06         5.8258
   402.20         5.8133
   402.34         5.7855
   402.48         5.7473
   402.62         5.7053
   402.76         5.6660
   402.90         5.6340
   403.04         5.6106
   403.18         5.5932
   403.32         5.5764
   403.46         5.5553
   403.60         5.5274
   403.74         5.4939
   403.88         5.4578
   404.02         5.4219
   404.16         5.3878
   404.30         5.3546
   404.44         5.3206
   404.58         5.2860
   404.72         5.2538
   404.86         5.2272
   405.00         5.2067
   405.14         5.1896
   405.28         5.1710
   405.42         5.1462
   405.56         5.1129
   405.70         5.0722
   405.84         5.0278
   405.98         4.9858
   406.12         4.9545
   406.26         4.9409
   406.40         4.9463
   406.54         4.9670
   406.68         4.9981
   406.82         5.0366
   406.96         5.0815
   407.10         5.1326
   407.24         5.1904
   407.38         5.2548
   407.52         5.3259
   407.66         5.4044
   407.80         5.4924
   407.94         5.5917
   408.08         5.7018
   408.22         5.8188
   408.36         5.9345
   408.50         6.0389
   408.64         6.1226
   408.78         6.1779
   408.92         6.1990
   409.06         6.1838
   409.20         6.1361
   409.34         6.0654
   409.48         5.9829
   409.62         5.8989
   409.76         5.8218
   409.90         5.7582
   410.04         5.7144
   410.18         5.6953
   410.32         5.7026
   410.46         5.7328
   410.60         5.7792
   410.74         5.8329
   410.88         5.8843
   411.02         5.9253
   411.16         5.9502
   411.30         5.9563
   411.44         5.9436
   411.58         5.9144
   411.72         5.8724
   411.86         5.8221
   412.00         5.7665
   412.14         5.7073
   412.28         5.6459
   412.42         5.5850
   412.56         5.5288
   412.70         5.4819
   412.84         5.4465
   412.98         5.4206
   413.12         5.3996
   413.26         5.3789
   413.40         5.3562
   413.54         5.3312
   413.68         5.3041
   413.82         5.2748
   413.96         5.2434
   414.10         5.2100
   414.24         5.1748
   414.38         5.1381
   414.52         5.1009
   414.66         5.0662
   414.80         5.0388
   414.94         5.0241
   415.08         5.0264
   415.22         5.0464
   415.36         5.0814
   415.50         5.1259
   415.64         5.1745
   415.78         5.2237
   415.92         5.2714
   416.06         5.3143
   416.20         5.3474
   416.34         5.3654
   416.48         5.3650
   416.62         5.3455
   416.76         5.3084
   416.90         5.2571
   417.04         5.1975
   417.18         5.1380
   417.32         5.0872
   417.46         5.0518
   417.60         5.0355
   417.74         5.0387
   417.88         5.0595
   418.02         5.0939
   418.16         5.1376
   418.30         5.1852
   418.44         5.2294
   418.58         5.2626
   418.72         5.2790
   418.86         5.2766
   419.00         5.2564
   419.14         5.2216
   419.28         5.1785
   419.42         5.1354
   419.56         5.1024
   419.70         5.0884
   419.84         5.0992
   419.98         5.1363
   420.12         5.1971
   420.26         5.2752
   420.40         5.3634
   420.54         5.4555
   420.68         5.5478
   420.82         5.6385
   420.96         5.7262
   421.10         5.8079
   421.24         5.8786
   421.38         5.9314
   421.52         5.9601
   421.66         5.9628
   421.80         5.9438
   421.94         5.9111
   422.08         5.8728
   422.22         5.8341
   422.36         5.7977
   422.50         5.7657
   422.64         5.7404
   422.78         5.7250
   422.92         5.7240
   423.06         5.7434
   423.20         5.7882
   423.34         5.8595
   423.48         5.9518
   423.62         6.0534
   423.76         6.1500
   423.90         6.2301
   424.04         6.2882
   424.18         6.3253
   424.32         6.3452
   424.46         6.3515
   424.60         6.3448
   424.74         6.3237
   424.88         6.2869
   425.02         6.2374
   425.16         6.1832
   425.30         6.1350
   425.44         6.1029
   425.58         6.0930
   425.72         6.1057
   425.86         6.1347
   426.00         6.1688
   426.14         6.1956
   426.28         6.2052
   426.42         6.1927
   426.56         6.1595
   426.70         6.1105
   426.84         6.0520
   426.98         5.9897
   427.12         5.9297
   427.26         5.8771
   427.40         5.8361
   427.54         5.8105
   427.68         5.8027
   427.82         5.8113
   427.96         5.8307
   428.10         5.8528
   428.24         5.8689
   428.38         5.8719
   428.52         5.8568
   428.66         5.8213
   428.80         5.7650
   428.94         5.6890
   429.08         5.5959
   429.22         5.4883
   429.36         5.3676
   429.50         5.2347
   429.64         5.0910
   429.78         4.9399
   429.92         4.7876
   430.06         4.6440
   430.20         4.5224
   430.34         4.4387
   430.48         4.4096
   430.62         4.4490
   430.76         4.5636
   430.90         4.7509
   431.04         4.9984
   431.18         5.2850
   431.32         5.5848
   431.46         5.8729
   431.60         6.1309
   431.74         6.3478
   431.88         6.5186
   432.02         6.6440
   432.16         6.7302
   432.30         6.7878
   432.44         6.8291
   432.58         6.8655
   432.72         6.9039
   432.86         6.9469
   433.00         6.9932
   433.14         7.0390
   433.28         7.0792
   433.42         7.1086
   433.56         7.1243
   433.70         7.1261
   433.84         7.1167
   433.98         7.1012
   434.12         7.0862
   434.26         7.0792
   434.40         7.0845
   434.54         7.1035
   434.68         7.1343
   434.82         7.1729
   434.96         7.2153
   435.10         7.2592
   435.24         7.3047
   435.38         7.3532
   435.52         7.4071
   435.66         7.4677
   435.80         7.5349
   435.94         7.6061
   436.08         7.6754
   436.22         7.7337
   436.36         7.7711
   436.50         7.7799
   436.64         7.7579
   436.78         7.7082
   436.92         7.6362
   437.06         7.5448
   437.20         7.4340
   437.34         7.3041
   437.48         7.1587
   437.62         7.0057
   437.76         6.8534
   437.90         6.7094
   438.04         6.5799
   438.18         6.4713
   438.32         6.3907
   438.46         6.3462
   438.60         6.3431
   438.74         6.3820
   438.88         6.4584
   439.02         6.5652
   439.16         6.6921
   439.30         6.8251
   439.44         6.9477
   439.58         7.0451
   439.72         7.1080
   439.86         7.1371
   440.00         7.1415
   440.14         7.1338
   440.28         7.1241
   440.42         7.1193
   440.56         7.1248
   440.70         7.1464
   440.84         7.1881
   440.98         7.2508
   441.12         7.3308
   441.26         7.4204
   441.40         7.5100
   441.54         7.5914
   441.68         7.6589
   441.82         7.7082
   441.96         7.7374
   442.10         7.7471
   442.24         7.7396
   442.38         7.7192
   442.52         7.6919
   442.66         7.6640
   442.80         7.6401
   442.94         7.6228
   443.08         7.6142
   443.22         7.6172
   443.36         7.6346
   443.50         7.6670
   443.64         7.7124
   443.78         7.7681
   443.92         7.8309
   444.06         7.8970
   444.20         7.9615
   444.34         8.0177
   444.48         8.0588
   444.62         8.0792
   444.76         8.0749
   444.90         8.0449
   445.04         7.9919
   445.18         7.9218
   445.32         7.8424
   445.46         7.7611
   445.60         7.6851
   445.74         7.6231
   445.88         7.5837
   446.02         7.5741
   446.16         7.5983
   446.30         7.6572
   446.44         7.7489
   446.58         7.8679
   446.72         8.0053
   446.86         8.1489
   447.00         8.2866
   447.14         8.4092
   447.28         8.5117
   447.42         8.5927
   447.56         8.6528
   447.70         8.6936
   447.84         8.7171
   447.98         8.7249
   448.12         8.7186
   448.26         8.6988
   448.40         8.6677
   448.54         8.6296
   448.68         8.5911
   448.82         8.5582
   448.96         8.5358
   449.10         8.5286
   449.24         8.5419
   449.38         8.5798
   449.52         8.6443
   449.66         8.7349
   449.80         8.8490
   449.94         8.9801
   450.08         9.1175
   450.22         9.2482
   450.36         9.3605
   450.50         9.4465
   450.64         9.5020
   450.78         9.5268
   450.92         9.5238
   451.06         9.4981
   451.20         9.4550
   451.34         9.3984
   451.48         9.3295
   451.62         9.2488
   451.76         9.1571
   451.90         9.0546
   452.04         8.9415
   452.18         8.8192
   452.32         8.6921
   452.46         8.5684
   452.60         8.4575
   452.74         8.3673
   452.88         8.3037
   453.02         8.2711
   453.16         8.2707
   453.30         8.2999
   453.44         8.3526
   453.58         8.4193
   453.72         8.4891
   453.86         8.5526
   454.00         8.6029
   454.14         8.6360
   454.28         8.6517
   454.42         8.6545
   454.56         8.6524
   454.70         8.6542
   454.84         8.6676
   454.98         8.6975
   455.12         8.7445
   455.26         8.8040
   455.40         8.8692
   455.54         8.9351
   455.68         8.9995
   455.82         9.0602
   455.96         9.1144
   456.10         9.1610
   456.24         9.2004
   456.38         9.2337
   456.52         9.2624
   456.66         9.2866
   456.80         9.3053
   456.94         9.3179
   457.08         9.3240
   457.22         9.3228
   457.36         9.3119
   457.50         9.2899
   457.64         9.2574
   457.78         9.2177
   457.92         9.1757
   458.06         9.1367
   458.20         9.1049
   458.34         9.0814
   458.48         9.0645
   458.62         9.0526
   458.76         9.0455
   458.90         9.0424
   459.04         9.0414
   459.18         9.0402
   459.32         9.0371
   459.46         9.0333
   459.60         9.0334
   459.74         9.0433
   459.88         9.0681
   460.02         9.1102
   460.16         9.1693
   460.30         9.2428
   460.44         9.3255
   460.58         9.4104
   460.72         9.4914
   460.86         9.5647
   461.00         9.6288
   461.14         9.6838
   461.28         9.7310
   461.42         9.7712
   461.56         9.8048
   461.70         9.8320
   461.84         9.8531
   461.98         9.8695
   462.12         9.8820
   462.26         9.8900
   462.40         9.8905
   462.54         9.8788
   462.68         9.8508
   462.82         9.8057
   462.96         9.7462
   463.10         9.6763
   463.24         9.5998
   463.38         9.5198
   463.52         9.4386
   463.66         9.3574
   463.80         9.2779
   463.94         9.2034
   464.08         9.1378
   464.22         9.0844
   464.36         9.0452
   464.50         9.0210
   464.64         9.0136
   464.78         9.0252
   464.92         9.0563
   465.06         9.1044
   465.20         9.1650
   465.34         9.2313
   465.48         9.2933
   465.62         9.3397
   465.76         9.3615
   465.90         9.3546
   466.04         9.3206
   466.18         9.2664
   466.32         9.2026
   466.46         9.1409
   466.60         9.0908
   466.74         9.0572
   466.88         9.0412
   467.02         9.0434
   467.16         9.0650
   467.30         9.1059
   467.44         9.1613
   467.58         9.2217
   467.72         9.2766
   467.86         9.3179
   468.00         9.3408
   468.14         9.3455
   468.28         9.3382
   468.42         9.3279
   468.56         9.3217
   468.70         9.3212
   468.84         9.3235
   468.98         9.3238
   469.12         9.3180
   469.26         9.3031
   469.40         9.2785
   469.54         9.2464
   469.68         9.2091
   469.82         9.1686
   469.96         9.1262
   470.10         9.0836
   470.24         9.0431
   470.38         9.0085
   470.52         8.9850
   470.66         8.9780
   470.80         8.9923
   470.94         9.0299
   471.08         9.0885
   471.22         9.1635
   471.36         9.2484
   471.50         9.3364
   471.64         9.4194
   471.78         9.4887
   471.92         9.5366
   472.06         9.5579
   472.20         9.5506
   472.34         9.5155
   472.48         9.4579
   472.62         9.3858
   472.76         9.3095
   472.90         9.2398
   473.04         9.1872
   473.18         9.1596
   473.32         9.1611
   473.46         9.1909
   473.60         9.2448
   473.74         9.3163
   473.88         9.3978
   474.02         9.4812
   474.16         9.5574
   474.30         9.6195
   474.44         9.6649
   474.58         9.6950
   474.72         9.7129
   474.86         9.7212
   475.00         9.7214
   475.14         9.7134
   475.28         9.6972
   475.42         9.6730
   475.56         9.6413
   475.70         9.6037
   475.84         9.5629
   475.98         9.5230
   476.12         9.4886
   476.26         9.4657
   476.40         9.4610
   476.54         9.4802
   476.68         9.5255
   476.82         9.5964
   476.96         9.6902
   477.10         9.8019
   477.24         9.9232
   477.38         10.0430
   477.52         10.1486
   477.66         10.2286
   477.80         10.2757
   477.94         10.2888
   478.08         10.2719
   478.22         10.2327
   478.36         10.1807
   478.50         10.1253
   478.64         10.0742
   478.78         10.0332
   478.92         10.0064
   479.06         9.9956
   479.20         9.9995
   479.34         10.0143
   479.48         10.0355
   479.62         10.0582
   479.76         10.0777
   479.90         10.0899
   480.04         10.0925
   480.18         10.0862
   480.32         10.0742
   480.46         10.0612
   480.60         10.0517
   480.74         10.0490
   480.88         10.0543
   481.02         10.0655
   481.16         10.0792
   481.30         10.0922
   481.44         10.1032
   481.58         10.1116
   481.72         10.1170
   481.86         10.1188
   482.00         10.1163
   482.14         10.1098
   482.28         10.0997
   482.42         10.0877
   482.56         10.0757
   482.70         10.0652
   482.84         10.0560
   482.98         10.0465
   483.12         10.0354
   483.26         10.0232
   483.40         10.0112
   483.54         10.0007
   483.68         9.9924
   483.82         9.9866
   483.96         9.9847
   484.10         9.9877
   484.24         9.9940
   484.38         10.0000
   484.52         10.0027
   484.66         9.9998
   484.80         9.9866
   484.94         9.9556
   485.08         9.9004
   485.22         9.8168
   485.36         9.7060
   485.50         9.5745
   485.64         9.4331
   485.78         9.2940
   485.92         9.1669
   486.06         9.0574
   486.20         8.9675
   486.34         8.8983
   486.48         8.8512
   486.62         8.8276
   486.76         8.8274
   486.90         8.8485
   487.04         8.8889
   487.18         8.9454
   487.32         9.0119
   487.46         9.0804
   487.60         9.1453
   487.74         9.2049
   487.88         9.2584
   488.02         9.3041
   488.16         9.3397
   488.30         9.3648
   488.44         9.3821
   488.58         9.3953
   488.72         9.4094
   488.86         9.4300
   489.00         9.4629
   489.14         9.5126
   489.28         9.5807
   489.42         9.6674
   489.56         9.7703
   489.70         9.8818
   489.84         9.9903
   489.98         10.0840
   490.12         10.1540
   490.26         10.1956
   490.40         10.2097
   490.54         10.2008
   490.68         10.1744
   490.82         10.1347
   490.96         10.0830
   491.10         10.0180
   491.24         9.9388
   491.38         9.8469
   491.52         9.7476
   491.66         9.6496
   491.80         9.5632
   491.94         9.4989
   492.08         9.4652
   492.22         9.4644
   492.36         9.4930
   492.50         9.5456
   492.64         9.6173
   492.78         9.7014
   492.92         9.7899
   493.06         9.8744
   493.20         9.9470
   493.34         10.0014
   493.48         10.0355
   493.62         10.0535
   493.76         10.0646
   493.90         10.0792
   494.04         10.1061
   494.18         10.1501
   494.32         10.2109
   494.46         10.2842
   494.60         10.3602
   494.74         10.4260
   494.88         10.4691
   495.02         10.4827
   495.16         10.4668
   495.30         10.4271
   495.44         10.3716
   495.58         10.3100
   495.72         10.2512
   495.86         10.2014
   496.00         10.1635
   496.14         10.1383
   496.28         10.1251
   496.42         10.1227
   496.56         10.1289
   496.70         10.1395
   496.84         10.1487
   496.98         10.1509
   497.12         10.1412
   497.26         10.1157
   497.40         10.0733
   497.54         10.0170
   497.68         9.9532
   497.82         9.8894
   497.96         9.8323
   498.10         9.7860
   498.24         9.7535
   498.38         9.7378
   498.52         9.7420
   498.66         9.7681
   498.80         9.8152
   498.94         9.8785
   499.08         9.9503
   499.22         10.0198
   499.36         10.0753
   499.50         10.1067
   499.64         10.1075
   499.78         10.0766
   499.92         10.0181
   500.06         9.9391
   500.20         9.8478
   500.34         9.7516
   500.48         9.6554
   500.62         9.5624
   500.76         9.4754
   500.90         9.3964
   501.04         9.3268
   501.18         9.2674
   501.32         9.2186
   501.46         9.1809
   501.60         9.1547
   501.74         9.1406
   501.88         9.1392
   502.02         9.1510
   502.16         9.1770
   502.30         9.2182
   502.44         9.2748
   502.58         9.3440
   502.72         9.4196
   502.86         9.4933
   503.00         9.5560
   503.14         9.5999
   503.28         9.6216
   503.42         9.6231
   503.56         9.6104
   503.70         9.5909
   503.84         9.5712
   503.98         9.5565
   504.12         9.5508
   504.26         9.5565
   504.40         9.5745
   504.54         9.6053
   504.68         9.6495
   504.82         9.7079
   504.96         9.7802
   505.10         9.8632
   505.24         9.9510
   505.38         10.0367
   505.52         10.1138
   505.66         10.1773
   505.80         10.2257
   505.94         10.2596
   506.08         10.2793
   506.22         10.2829
   506.36         10.2675
   506.50         10.2331
   506.64         10.1839
   506.78         10.1252
   506.92         10.0604
   507.06         9.9923
   507.20         9.9243
   507.34         9.8606
   507.48         9.8036
   507.62         9.7541
   507.76         9.7131
   507.90         9.6818
   508.04         9.6625
   508.18         9.6578
   508.32         9.6698
   508.46         9.6992
   508.60         9.7443
   508.74         9.8007
   508.88         9.8612
   509.02         9.9195
   509.16         9.9709
   509.30         10.0116
   509.44         10.0383
   509.58         10.0500
   509.72         10.0492
   509.86         10.0396
   510.00         10.0246
   510.14         10.0077
   510.28         9.9930
   510.42         9.9840
   510.56         9.9835
   510.70         9.9929
   510.84         10.0118
   510.98         10.0372
   511.12         10.0640
   511.26         10.0858
   511.40         10.0962
   511.54         10.0916
   511.68         10.0710
   511.82         10.0349
   511.96         9.9849
   512.10         9.9239
   512.24         9.8578
   512.38         9.7943
   512.52         9.7414
   512.66         9.7052
   512.80         9.6882
   512.94         9.6898
   513.08         9.7067
   513.22         9.7330
   513.36         9.7610
   513.50         9.7824
   513.64         9.7899
   513.78         9.7788
   513.92         9.7497
   514.06         9.7069
   514.20         9.6561
   514.34         9.6036
   514.48         9.5563
   514.62         9.5202
   514.76         9.5000
   514.90         9.4989
   515.04         9.5167
   515.18         9.5491
   515.32         9.5874
   515.46         9.6199
   515.60         9.6338
   515.74         9.6173
   515.88         9.5625
   516.02         9.4665
   516.16         9.3310
   516.30         9.1624
   516.44         8.9736
   516.58         8.7823
   516.72         8.6079
   516.86         8.4687
   517.00         8.3782
   517.14         8.3413
   517.28         8.3529
   517.42         8.4025
   517.56         8.4783
   517.70         8.5686
   517.84         8.6617
   517.98         8.7470
   518.12         8.8163
   518.26         8.8661
   518.40         8.8994
   518.54         8.9236
   518.68         8.9473
   518.82         8.9786
   518.96         9.0261
   519.10         9.0959
   519.24         9.1878
   519.38         9.2937
   519.52         9.3996
   519.66         9.4904
   519.80         9.5553
   519.94         9.5906
   520.08         9.6013
   520.22         9.5971
   520.36         9.5858
   520.50         9.5715
   520.64         9.5567
   520.78         9.5442
   520.92         9.5382
   521.06         9.5434
   521.20         9.5619
   521.34         9.5914
   521.48         9.6249
   521.62         9.6535
   521.76         9.6689
   521.90         9.6661
   522.04         9.6451
   522.18         9.6101
   522.32         9.5684
   522.46         9.5287
   522.60         9.5011
   522.74         9.4948
   522.88         9.5153
   523.02         9.5633
   523.16         9.6367
   523.30         9.7319
   523.44         9.8428
   523.58         9.9590
   523.72         10.0678
   523.86         10.1562
   524.00         10.2139
   524.14         10.2357
   524.28         10.2230
   524.42         10.1822
   524.56         10.1238
   524.70         10.0606
   524.84         10.0041
   524.98         9.9621
   525.12         9.9369
   525.26         9.9248
   525.40         9.9167
   525.54         9.9015
   525.68         9.8688
   525.82         9.8098
   525.96         9.7187
   526.10         9.5938
   526.24         9.4396
   526.38         9.2666
   526.52         9.0909
   526.66         8.9317
   526.80         8.8083
   526.94         8.7355
   527.08         8.7219
   527.22         8.7684
   527.36         8.8688
   527.50         9.0103
   527.64         9.1771
   527.78         9.3541
   527.92         9.5301
   528.06         9.6986
   528.20         9.8556
   528.34         9.9980
   528.48         10.1220
   528.62         10.2238
   528.76         10.3013
   528.90         10.3538
   529.04         10.3829
   529.18         10.3931
   529.32         10.3911
   529.46         10.3834
   529.60         10.3758
   529.74         10.3738
   529.88         10.3825
   530.02         10.4069
   530.16         10.4498
   530.30         10.5101
   530.44         10.5837
   530.58         10.6638
   530.72         10.7411
   530.86         10.8056
   531.00         10.8494
   531.14         10.8670
   531.28         10.8561
   531.42         10.8178
   531.56         10.7545
   531.70         10.6669
   531.84         10.5566
   531.98         10.4283
   532.12         10.2892
   532.26         10.1481
   532.40         10.0146
   532.54         9.8990
   532.68         9.8097
   532.82         9.7516
   532.96         9.7261
   533.10         9.7316
   533.24         9.7640
   533.38         9.8185
   533.52         9.8894
   533.66         9.9686
   533.80         10.0468
   533.94         10.1161
   534.08         10.1722
   534.22         10.2147
   534.36         10.2480
   534.50         10.2806
   534.64         10.3213
   534.78         10.3750
   534.92         10.4422
   535.06         10.5204
   535.20         10.6041
   535.34         10.6854
   535.48         10.7561
   535.62         10.8099
   535.76         10.8425
   535.90         10.8509
   536.04         10.8330
   536.18         10.7886
   536.32         10.7219
   536.46         10.6425
   536.60         10.5624
   536.74         10.4926
   536.88         10.4413
   537.02         10.4133
   537.16         10.4101
   537.30         10.4300
   537.44         10.4687
   537.58         10.5203
   537.72         10.5773
   537.86         10.6313
   538.00         10.6735
   538.14         10.6969
   538.28         10.6976
   538.42         10.6732
   538.56         10.6231
   538.70         10.5505
   538.84         10.4631
   538.98         10.3695
   539.12         10.2765
   539.26         10.1872
   539.40         10.1021
   539.54         10.0201
   539.68         9.9414
   539.82         9.8668
   539.96         9.7975
   540.10         9.7367
   540.24         9.6888
   540.38         9.6571
   540.52         9.6444
   540.66         9.6530
   540.80         9.6857
   540.94         9.7440
   541.08         9.8260
   541.22         9.9273
   541.36         10.0419
   541.50         10.1628
   541.64         10.2817
   541.78         10.3891
   541.92         10.4762
   542.06         10.5361
   542.20         10.5660
   542.34         10.5667
   542.48         10.5424
   542.62         10.4996
   542.76         10.4486
   542.90         10.4002
   543.04         10.3643
   543.18         10.3490
   543.32         10.3576
   543.46         10.3883
   543.60         10.4348
   543.74         10.4894
   543.88         10.5469
   544.02         10.6053
   544.16         10.6624
   544.30         10.7135
   544.44         10.7520
   544.58         10.7735
   544.72         10.7787
   544.86         10.7722
   545.00         10.7608
   545.14         10.7505
   545.28         10.7453
   545.42         10.7464
   545.56         10.7523
   545.70         10.7590
   545.84         10.7615
   545.98         10.7557
   546.12         10.7403
   546.26         10.7171
   546.40         10.6891
   546.54         10.6583
   546.68         10.6236
   546.82         10.5822
   546.96         10.5325
   547.10         10.4764
   547.24         10.4188
   547.38         10.3658
   547.52         10.3212
   547.66         10.2868
   547.80         10.2628
   547.94         10.2491
   548.08         10.2463
   548.22         10.2552
   548.36         10.2753
   548.50         10.3047
   548.64         10.3404
   548.78         10.3791
   548.92         10.4182
   549.06         10.4558
   549.20         10.4903
   549.34         10.5204
   549.48         10.5455
   549.62         10.5652
   549.76         10.5793
   549.90         10.5885
   550.04         10.5921
   550.18         10.5883
   550.32         10.5765
   550.46         10.5575
   550.60         10.5341
   550.74         10.5102
   550.88         10.4907
   551.02         10.4795
   551.16         10.4791
   551.30         10.4898
   551.44         10.5108
   551.58         10.5403
   551.72         10.5744
   551.86         10.6075
   552.00         10.6350
   552.14         10.6536
   552.28         10.6611
   552.42         10.6564
   552.56         10.6397
   552.70         10.6120
   552.84         10.5764
   552.98         10.5386
   553.12         10.5055
   553.26         10.4828
   553.40         10.4735
   553.54         10.4788
   553.68         10.4977
   553.82         10.5286
   553.96         10.5704
   554.10         10.6210
   554.24         10.6773
   554.38         10.7349
   554.52         10.7888
   554.66         10.8341
   554.80         10.8661
   554.94         10.8825
   555.08         10.8832
   555.22         10.8701
   555.36         10.8460
   555.50         10.8144
   555.64         10.7788
   555.78         10.7409
   555.92         10.7014
   556.06         10.6613
   556.20         10.6227
   556.34         10.5877
   556.48         10.5583
   556.62         10.5360
   556.76         10.5217
   556.90         10.5156
   557.04         10.5180
   557.18         10.5284
   557.32         10.5460
   557.46         10.5692
   557.60         10.5944
   557.74         10.6152
   557.88         10.6240
   558.02         10.6150
   558.16         10.5856
   558.30         10.5362
   558.44         10.4712
   558.58         10.3980
   558.72         10.3253
   558.86         10.2609
   559.00         10.2103
   559.14         10.1770
   559.28         10.1613
   559.42         10.1621
   559.56         10.1780
   559.70         10.2080
   559.84         10.2504
   559.98         10.3016
   560.12         10.3581
   560.26         10.4164
   560.40         10.4728
   560.54         10.5234
   560.68         10.5654
   560.82         10.5972
   560.96         10.6176
   561.10         10.6256
   561.24         10.6207
   561.38         10.6030
   561.52         10.5729
   561.66         10.5325
   561.80         10.4874
   561.94         10.4448
   562.08         10.4118
   562.22         10.3933
   562.36         10.3906
   562.50         10.4012
   562.64         10.4209
   562.78         10.4448
   562.92         10.4668
   563.06         10.4816
   563.20         10.4866
   563.34         10.4821
   563.48         10.4701
   563.62         10.4527
   563.76         10.4318
   563.90         10.4095
   564.04         10.3871
   564.18         10.3664
   564.32         10.3496
   564.46         10.3382
   564.60         10.3317
   564.74         10.3287
   564.88         10.3266
   565.02         10.3225
   565.16         10.3144
   565.30         10.3007
   565.44         10.2803
   565.58         10.2542
   565.72         10.2247
   565.86         10.1955
   566.00         10.1701
   566.14         10.1516
   566.28         10.1430
   566.42         10.1462
   566.56         10.1629
   566.70         10.1945
   566.84         10.2409
   566.98         10.2991
   567.12         10.3639
   567.26         10.4290
   567.40         10.4879
   567.54         10.5351
   567.68         10.5678
   567.82         10.5854
   567.96         10.5900
   568.10         10.5855
   568.24         10.5774
   568.38         10.5715
   568.52         10.5719
   568.66         10.5819
   568.80         10.6025
   568.94         10.6324
   569.08         10.6671
   569.22         10.7008
   569.36         10.7273
   569.50         10.7411
   569.64         10.7376
   569.78         10.7142
   569.92         10.6699
   570.06         10.6060
   570.20         10.5260
   570.34         10.4360
   570.48         10.3440
   570.62         10.2582
   570.76         10.1852
   570.90         10.1300
   571.04         10.0970
   571.18         10.0893
   571.32         10.1078
   571.46         10.1509
   571.60         10.2151
   571.74         10.2950
   571.88         10.3853
   572.02         10.4812
   572.16         10.5779
   572.30         10.6700
   572.44         10.7526
   572.58         10.8219
   572.72         10.8763
   572.86         10.9163
   573.00         10.9441
   573.14         10.9617
   573.28         10.9704
   573.42         10.9708
   573.56         10.9650
   573.70         10.9555
   573.84         10.9430
   573.98         10.9272
   574.12         10.9072
   574.26         10.8815
   574.40         10.8495
   574.54         10.8133
   574.68         10.7760
   574.82         10.7391
   574.96         10.7030
   575.10         10.6671
   575.24         10.6316
   575.38         10.5983
   575.52         10.5701
   575.66         10.5505
   575.80         10.5417
   575.94         10.5452
   576.08         10.5612
   576.22         10.5886
   576.36         10.6241
   576.50         10.6636
   576.64         10.7030
   576.78         10.7379
   576.92         10.7631
   577.06         10.7738
   577.20         10.7659
   577.34         10.7362
   577.48         10.6833
   577.62         10.6089
   577.76         10.5186
   577.90         10.4207
   578.04         10.3246
   578.18         10.2401
   578.32         10.1752
   578.46         10.1349
   578.60         10.1214
   578.74         10.1345
   578.88         10.1720
   579.02         10.2308
   579.16         10.3064
   579.30         10.3928
   579.44         10.4813
   579.58         10.5628
   579.72         10.6309
   579.86         10.6824
   580.00         10.7179
   580.14         10.7402
   580.28         10.7529
   580.42         10.7589
   580.56         10.7591
   580.70         10.7546
   580.84         10.7477
   580.98         10.7416
   581.12         10.7390
   581.26         10.7419
   581.40         10.7520
   581.54         10.7706
   581.68         10.7973
   581.82         10.8315
   581.96         10.8724
   582.10         10.9182
   582.24         10.9671
   582.38         11.0177
   582.52         11.0688
   582.66         11.1180
   582.80         11.1623
   582.94         11.1983
   583.08         11.2236
   583.22         11.2376
   583.36         11.2416
   583.50         11.2373
   583.64         11.2246
   583.78         11.2028
   583.92         11.1720
   584.06         11.1342
   584.20         11.0911
   584.34         11.0441
   584.48         10.9955
   584.62         10.9472
   584.76         10.8998
   584.90         10.8546
   585.04         10.8143
   585.18         10.7810
   585.32         10.7556
   585.46         10.7384
   585.60         10.7296
   585.74         10.7291
   585.88         10.7367
   586.02         10.7526
   586.16         10.7764
   586.30         10.8076
   586.44         10.8454
   586.58         10.8887
   586.72         10.9353
   586.86         10.9815
   587.00         11.0220
   587.14         11.0519
   587.28         11.0673
   587.42         11.0657
   587.56         11.0457
   587.70         11.0055
   587.84         10.9397
   587.98         10.8432
   588.12         10.7171
   588.26         10.5674
   588.40         10.4014
   588.54         10.2265
   588.68         10.0518
   588.82         9.8889
   588.96         9.7508
   589.10         9.6490
   589.24         9.5912
   589.38         9.5814
   589.52         9.6195
   589.66         9.7013
   589.80         9.8195
   589.94         9.9648
   590.08         10.1244
   590.22         10.2832
   590.36         10.4269
   590.50         10.5462
   590.64         10.6398
   590.78         10.7102
   590.92         10.7598
   591.06         10.7899
   591.20         10.8036
   591.34         10.8063
   591.48         10.8032
   591.62         10.7976
   591.76         10.7906
   591.90         10.7817
   592.04         10.7708
   592.18         10.7579
   592.32         10.7430
   592.46         10.7272
   592.60         10.7119
   592.74         10.6981
   592.88         10.6862
   593.02         10.6771
   593.16         10.6718
   593.30         10.6704
   593.44         10.6721
   593.58         10.6744
   593.72         10.6747
   593.86         10.6706
   594.00         10.6612
   594.14         10.6467
   594.28         10.6280
   594.42         10.6056
   594.56         10.5804
   594.70         10.5543
   594.84         10.5307
   594.98         10.5134
   595.12         10.5048
   595.26         10.5057
   595.40         10.5156
   595.54         10.5335
   595.68         10.5585
   595.82         10.5902
   595.96         10.6267
   596.10         10.6641
   596.24         10.6975
   596.38         10.7234
   596.52         10.7401
   596.66         10.7469
   596.80         10.7453
   596.94         10.7386
   597.08         10.7299
   597.22         10.7208
   597.36         10.7114
   597.50         10.7024
   597.64         10.6942
   597.78         10.6866
   597.92         10.6793
   598.06         10.6735
   598.20         10.6705
   598.34         10.6714
   598.48         10.6769
   598.62         10.6858
   598.76         10.6962
   598.90         10.7077
   599.04         10.7214
   599.18         10.7370
   599.32         10.7540
   599.46         10.7711
   599.60         10.7844
   599.74         10.7883
   599.88         10.7795
   600.02         10.7594
   600.16         10.7305
   600.30         10.6950
   600.44         10.6546
   600.58         10.6110
   600.72         10.5658
   600.86         10.5199
   601.00         10.4740
   601.14         10.4292
   601.28         10.3874
   601.42         10.3508
   601.56         10.3207
   601.70         10.2973
   601.84         10.2798
   601.98         10.2680
   602.12         10.2622
   602.26         10.2631
   602.40         10.2717
   602.54         10.2882
   602.68         10.3110
   602.82         10.3371
   602.96         10.3650
   603.10         10.3943
   603.24         10.4252
   603.38         10.4589
   603.52         10.4967
   603.66         10.5399
   603.80         10.5899
   603.94         10.6460
   604.08         10.7055
   604.22         10.7643
   604.36         10.8185
   604.50         10.8652
   604.64         10.9028
   604.78         10.9305
   604.92         10.9479
   605.06         10.9540
   605.20         10.9485
   605.34         10.9329
   605.48         10.9098
   605.62         10.8828
   605.76         10.8562
   605.90         10.8338
   606.04         10.8183
   606.18         10.8109
   606.32         10.8117
   606.46         10.8187
   606.60         10.8283
   606.74         10.8362
   606.88         10.8389
   607.02         10.8341
   607.16         10.8209
   607.30         10.8000
   607.44         10.7720
   607.58         10.7380
   607.72         10.6994
   607.86         10.6584
   608.00         10.6186
   608.14         10.5842
   608.28         10.5577
   608.42         10.5400
   608.56         10.5297
   608.70         10.5242
   608.84         10.5207
   608.98         10.5158
   609.12         10.5052
   609.26         10.4864
   609.40         10.4590
   609.54         10.4258
   609.68         10.3911
   609.82         10.3592
   609.96         10.3336
   610.10         10.3165
   610.24         10.3090
   610.38         10.3112
   610.52         10.3228
   610.66         10.3428
   610.80         10.3686
   610.94         10.3961
   611.08         10.4203
   611.22         10.4370
   611.36         10.4438
   611.50         10.4394
   611.64         10.4234
   611.78         10.3966
   611.92         10.3624
   612.06         10.3255
   612.20         10.2907
   612.34         10.2604
   612.48         10.2333
   612.62         10.2060
   612.76         10.1765
   612.90         10.1443
   613.04         10.1105
   613.18         10.0763
   613.32         10.0434
   613.46         10.0141
   613.60         9.9910
   613.74         9.9762
   613.88         9.9721
   614.02         9.9805
   614.16         10.0015
   614.30         10.0333
   614.44         10.0722
   614.58         10.1147
   614.72         10.1564
   614.86         10.1924
   615.00         10.2165
   615.14         10.2233
   615.28         10.2113
   615.42         10.1833
   615.56         10.1433
   615.70         10.0949
   615.84         10.0405
   615.98         9.9825
   616.12         9.9242
   616.26         9.8701
   616.40         9.8248
   616.54         9.7930
   616.68         9.7783
   616.82         9.7817
   616.96         9.8028
   617.10         9.8397
   617.24         9.8905
   617.38         9.9514
   617.52         10.0169
   617.66         10.0811
   617.80         10.1395
   617.94         10.1897
   618.08         10.2299
   618.22         10.2597
   618.36         10.2794
   618.50         10.2902
   618.64         10.2962
   618.78         10.3024
   618.92         10.3123
   619.06         10.3267
   619.20         10.3457
   619.34         10.3688
   619.48         10.3955
   619.62         10.4257
   619.76         10.4583
   619.90         10.4914
   620.04         10.5219
   620.18         10.5451
   620.32         10.5561
   620.46         10.5513
   620.60         10.5289
   620.74         10.4893
   620.88         10.4346
   621.02         10.3688
   621.16         10.2968
   621.30         10.2244
   621.44         10.1572
   621.58         10.1000
   621.72         10.0562
   621.86         10.0270
   622.00         10.0113
   622.14         10.0071
   622.28         10.0121
   622.42         10.0232
   622.56         10.0370
   622.70         10.0503
   622.84         10.0606
   622.98         10.0673
   623.12         10.0708
   623.26         10.0716
   623.40         10.0699
   623.54         10.0671
   623.68         10.0651
   623.82         10.0653
   623.96         10.0676
   624.10         10.0702
   624.24         10.0690
   624.38         10.0602
   624.52         10.0426
   624.66         10.0181
   624.80         9.9902
   624.94         9.9626
   625.08         9.9369
   625.22         9.9131
   625.36         9.8913
   625.50         9.8728
   625.64         9.8595
   625.78         9.8535
   625.92         9.8562
   626.06         9.8682
   626.20         9.8895
   626.34         9.9182
   626.48         9.9502
   626.62         9.9805
   626.76         10.0040
   626.90         10.0167
   627.04         10.0174
   627.18         10.0075
   627.32         9.9900
   627.46         9.9688
   627.60         9.9486
   627.74         9.9330
   627.88         9.9251
   628.02         9.9273
   628.16         9.9403
   628.30         9.9633
   628.44         9.9948
   628.58         10.0317
   628.72         10.0711
   628.86         10.1094
   629.00         10.1417
   629.14         10.1641
   629.28         10.1749
   629.42         10.1744
   629.56         10.1654
   629.70         10.1530
   629.84         10.1423
   629.98         10.1361
   630.12         10.1348
   630.26         10.1362
   630.40         10.1363
   630.54         10.1307
   630.68         10.1160
   630.82         10.0916
   630.96         10.0587
   631.10         10.0198
   631.24         9.9778
   631.38         9.9371
   631.52         9.9021
   631.66         9.8775
   631.80         9.8678
   631.94         9.8759
   632.08         9.9024
   632.22         9.9453
   632.36         9.9993
   632.50         10.0563
   632.64         10.1086
   632.78         10.1507
   632.92         10.1797
   633.06         10.1944
   633.20         10.1953
   633.34         10.1855
   633.48         10.1705
   633.62         10.1563
   633.76         10.1472
   633.90         10.1458
   634.04         10.1534
   634.18         10.1688
   634.32         10.1893
   634.46         10.2108
   634.60         10.2286
   634.74         10.2375
   634.88         10.2323
   635.02         10.2095
   635.16         10.1688
   635.30         10.1136
   635.44         10.0490
   635.58         9.9805
   635.72         9.9138
   635.86         9.8553
   636.00         9.8120
   636.14         9.7897
   636.28         9.7904
   636.42         9.8135
   636.56         9.8567
   636.70         9.9153
   636.84         9.9823
   636.98         10.0510
   637.12         10.1158
   637.26         10.1722
   637.40         10.2164
   637.54         10.2465
   637.68         10.2624
   637.82         10.2657
   637.96         10.2587
   638.10         10.2431
   638.24         10.2202
   638.38         10.1923
   638.52         10.1630
   638.66         10.1351
   638.80         10.1096
   638.94         10.0861
   639.08         10.0644
   639.22         10.0446
   639.36         10.0272
   639.50         10.0124
   639.64         10.0009
   639.78         9.9935
   639.92         9.9900
   640.06         9.9896
   640.20         9.9915
   640.34         9.9948
   640.48         9.9983
   640.62         10.0007
   640.76         10.0006
   640.90         9.9976
   641.04         9.9921
   641.18         9.9853
   641.32         9.9782
   641.46         9.9724
   641.60         9.9701
   641.74         9.9736
   641.88         9.9843
   642.02         10.0019
   642.16         10.0259
   642.30         10.0558
   642.44         10.0902
   642.58         10.1262
   642.72         10.1598
   642.86         10.1873
   643.00         10.2066
   643.14         10.2173
   643.28         10.2203
   643.42         10.2174
   643.56         10.2110
   643.70         10.2030
   643.84         10.1934
   643.98         10.1807
   644.12         10.1642
   644.26         10.1442
   644.40         10.1214
   644.54         10.0965
   644.68         10.0709
   644.82         10.0473
   644.96         10.0272
   645.10         10.0100
   645.24         9.9948
   645.38         9.9817
   645.52         9.9729
   645.66         9.9706
   645.80         9.9755
   645.94         9.9862
   646.08         10.0005
   646.22         10.0155
   646.36         10.0289
   646.50         10.0406
   646.64         10.0526
   646.78         10.0670
   646.92         10.0843
   647.06         10.1026
   647.20         10.1199
   647.34         10.1350
   647.48         10.1467
   647.62         10.1539
   647.76         10.1557
   647.90         10.1522
   648.04         10.1431
   648.18         10.1266
   648.32         10.0994
   648.46         10.0581
   648.60         10.0019
   648.74         9.9326
   648.88         9.8549
   649.02         9.7755
   649.16         9.7018
   649.30         9.6403
   649.44         9.5969
   649.58         9.5760
   649.72         9.5804
   649.86         9.6106
   650.00         9.6656
   650.14         9.7428
   650.28         9.8367
   650.42         9.9396
   650.56         10.0425
   650.70         10.1373
   650.84         10.2180
   650.98         10.2821
   651.12         10.3303
   651.26         10.3660
   651.40         10.3933
   651.54         10.4153
   651.68         10.4333
   651.82         10.4482
   651.96         10.4600
   652.10         10.4676
   652.24         10.4695
   652.38         10.4649
   652.52         10.4543
   652.66         10.4394
   652.80         10.4223
   652.94         10.4045
   653.08         10.3879
   653.22         10.3739
   653.36         10.3635
   653.50         10.3570
   653.64         10.3539
   653.78         10.3534
   653.92         10.3548
   654.06         10.3567
   654.20         10.3570
   654.34         10.3556
   654.48         10.3524
   654.62         10.3473
   654.76         10.3394
   654.90         10.3274
   655.04         10.3062
   655.18         10.2676
   655.32         10.2057
   655.46         10.1208
   655.60         10.0182
   655.74         9.9061
   655.88         9.7933
   656.02         9.6890
   656.16         9.6023
   656.30         9.5409
   656.44         9.5110
   656.58         9.5162
   656.72         9.5574
   656.86         9.6317
   657.00         9.7330
   657.14         9.8523
   657.28         9.9782
   657.42         10.0984
   657.56         10.2015
   657.70         10.2803
   657.84         10.3345
   657.98         10.3698
   658.12         10.3909
   658.26         10.3991
   658.40         10.3940
   658.54         10.3767
   658.68         10.3505
   658.82         10.3205
   658.96         10.2927
   659.10         10.2728
   659.24         10.2648
   659.38         10.2691
   659.52         10.2827
   659.66         10.3005
   659.80         10.3176
   659.94         10.3296
   660.08         10.3337
   660.22         10.3288
   660.36         10.3151
   660.50         10.2939
   660.64         10.2668
   660.78         10.2370
   660.92         10.2092
   661.06         10.1890
   661.20         10.1799
   661.34         10.1820
   661.48         10.1929
   661.62         10.2095
   661.76         10.2286
   661.90         10.2474
   662.04         10.2623
   662.18         10.2699
   662.32         10.2678
   662.46         10.2559
   662.60         10.2358
   662.74         10.2094
   662.88         10.1792
   663.02         10.1483
   663.16         10.1195
   663.30         10.0945
   663.44         10.0736
   663.58         10.0563
   663.72         10.0425
   663.86         10.0324
   664.00         10.0266
   664.14         10.0258
   664.28         10.0317
   664.42         10.0443
   664.56         10.0618
   664.70         10.0819
   664.84         10.1019
   664.98         10.1202
   665.12         10.1351
   665.26         10.1444
   665.40         10.1466
   665.54         10.1412
   665.68         10.1285
   665.82         10.1098
   665.96         10.0872
   666.10         10.0640
   666.24         10.0438
   666.38         10.0292
   666.52         10.0208
   666.66         10.0169
   666.80         10.0159
   666.94         10.0168
   667.08         10.0186
   667.22         10.0197
   667.36         10.0196
   667.50         10.0184
   667.64         10.0169
   667.78         10.0170
   667.92         10.0216
   668.06         10.0326
   668.20         10.0501
   668.34         10.0727
   668.48         10.0981
   668.62         10.1226
   668.76         10.1424
   668.90         10.1546
   669.04         10.1576
   669.18         10.1511
   669.32         10.1360
   669.46         10.1150
   669.60         10.0910
   669.74         10.0654
   669.88         10.0394
   670.02         10.0142
   670.16         9.9897
   670.30         9.9651
   670.44         9.9389
   670.58         9.9091
   670.72         9.8744
   670.86         9.8352
   671.00         9.7940
   671.14         9.7538
   671.28         9.7183
   671.42         9.6920
   671.56         9.6779
   671.70         9.6768
   671.84         9.6877
   671.98         9.7084
   672.12         9.7368
   672.26         9.7704
   672.40         9.8064
   672.54         9.8424
   672.68         9.8762
   672.82         9.9060
   672.96         9.9301
   673.10         9.9479
   673.24         9.9597
   673.38         9.9674
   673.52         9.9730
   673.66         9.9769
   673.80         9.9781
   673.94         9.9760
   674.08         9.9703
   674.22         9.9605
   674.36         9.9472
   674.50         9.9316
   674.64         9.9153
   674.78         9.9000
   674.92         9.8880
   675.06         9.8809
   675.20         9.8799
   675.34         9.8847
   675.48         9.8935
   675.62         9.9046
   675.76         9.9165
   675.90         9.9284
   676.04         9.9388
   676.18         9.9452
   676.32         9.9455
   676.46         9.9392
   676.60         9.9283
   676.74         9.9169
   676.88         9.9082
   677.02         9.9043
   677.16         9.9060
   677.30         9.9126
   677.44         9.9231
   677.58         9.9361
   677.72         9.9497
   677.86         9.9621
   678.00         9.9712
   678.14         9.9763
   678.28         9.9776
   678.42         9.9760
   678.56         9.9726
   678.70         9.9692
   678.84         9.9676
   678.98         9.9694
   679.12         9.9752
   679.26         9.9849
   679.40         9.9971
   679.54         10.0096
   679.68         10.0200
   679.82         10.0267
   679.96         10.0288
   680.10         10.0266
   680.24         10.0213
   680.38         10.0138
   680.52         10.0050
   680.66         9.9955
   680.80         9.9855
   680.94         9.9752
   681.08         9.9666
   681.22         9.9621
   681.36         9.9633
   681.50         9.9703
   681.64         9.9813
   681.78         9.9949
   681.92         10.0103
   682.06         10.0260
   682.20         10.0402
   682.34         10.0506
   682.48         10.0547
   682.62         10.0507
   682.76         10.0370
   682.90         10.0121
   683.04         9.9752
   683.18         9.9265
   683.32         9.8677
   683.46         9.8024
   683.60         9.7362
   683.74         9.6752
   683.88         9.6236
   684.02         9.5842
   684.16         9.5584
   684.30         9.5466
   684.44         9.5479
   684.58         9.5599
   684.72         9.5793
   684.86         9.6025
   685.00         9.6251
   685.14         9.6423
   685.28         9.6504
   685.42         9.6453
   685.56         9.6214
   685.70         9.5727
   685.84         9.4946
   685.98         9.3849
   686.12         9.2441
   686.26         9.0757
   686.40         8.8864
   686.54         8.6862
   686.68         8.4875
   686.82         8.3039
   686.96         8.1492
   687.10         8.0347
   687.24         7.9683
   687.38         7.9523
   687.52         7.9835
   687.66         8.0545
   687.80         8.1549
   687.94         8.2724
   688.08         8.3930
   688.22         8.5041
   688.36         8.5969
   688.50         8.6686
   688.64         8.7211
   688.78         8.7583
   688.92         8.7852
   689.06         8.8070
   689.20         8.8284
   689.34         8.8526
   689.48         8.8817
   689.62         8.9152
   689.76         8.9514
   689.90         8.9884
   690.04         9.0248
   690.18         9.0598
   690.32         9.0925
   690.46         9.1220
   690.60         9.1476
   690.74         9.1690
   690.88         9.1871
   691.02         9.2035
   691.16         9.2207
   691.30         9.2403
   691.44         9.2623
   691.58         9.2867
   691.72         9.3132
   691.86         9.3413
   692.00         9.3702
   692.14         9.3981
   692.28         9.4230
   692.42         9.4434
   692.56         9.4590
   692.70         9.4698
   692.84         9.4771
   692.98         9.4821
   693.12         9.4864
   693.26         9.4906
   693.40         9.4949
   693.54         9.4990
   693.68         9.5023
   693.82         9.5033
   693.96         9.5004
   694.10         9.4925
   694.24         9.4797
   694.38         9.4632
   694.52         9.4448
   694.66         9.4267
   694.80         9.4109
   694.94         9.3995
   695.08         9.3942
   695.22         9.3962
   695.36         9.4057
   695.50         9.4227
   695.64         9.4460
   695.78         9.4737
   695.92         9.5040
   696.06         9.5358
   696.20         9.5684
   696.34         9.6004
   696.48         9.6292
   696.62         9.6514
   696.76         9.6636
   696.90         9.6639
   697.04         9.6523
   697.18         9.6302
   697.32         9.6000
   697.46         9.5648
   697.60         9.5281
   697.74         9.4927
   697.88         9.4619
   698.02         9.4387
   698.16         9.4255
   698.30         9.4232
   698.44         9.4308
   698.58         9.4467
   698.72         9.4680
   698.86         9.4906
   699.00         9.5099
   699.14         9.5223
   699.28         9.5257
   699.42         9.5191
   699.56         9.5037
   699.70         9.4821
   699.84         9.4569
   699.98         9.4306
   700.12         9.4058
   700.26         9.3843
   700.40         9.3669
   700.54         9.3540
   700.68         9.3458
   700.82         9.3427
   700.96         9.3442
   701.10         9.3489
   701.24         9.3551
   701.38         9.3606
   701.52         9.3638
   701.66         9.3636
   701.80         9.3591
   701.94         9.3491
   702.08         9.3333
   702.22         9.3137
   702.36         9.2936
   702.50         9.2762
   702.64         9.2631
   702.78         9.2548
   702.92         9.2522
   703.06         9.2567
   703.20         9.2698
   703.34         9.2922
   703.48         9.3240
   703.62         9.3629
   703.76         9.4057
   703.90         9.4491
   704.04         9.4896
   704.18         9.5234
   704.32         9.5475
   704.46         9.5609
   704.60         9.5644
   704.74         9.5603
   704.88         9.5514
   705.02         9.5391
   705.16         9.5239
   705.30         9.5063
   705.44         9.4876
   705.58         9.4687
   705.72         9.4494
   705.86         9.4289
   706.00         9.4080
   706.14         9.3883
   706.28         9.3708
   706.42         9.3565
   706.56         9.3461
   706.70         9.3401
   706.84         9.3397
   706.98         9.3462
   707.12         9.3601
   707.26         9.3797
   707.40         9.4016
   707.54         9.4223
   707.68         9.4385
   707.82         9.4487
   707.96         9.4519
   708.10         9.4471
   708.24         9.4346
   708.38         9.4169
   708.52         9.3985
   708.66         9.3836
   708.80         9.3743
   708.94         9.3719
   709.08         9.3767
   709.22         9.3879
   709.36         9.4039
   709.50         9.4229
   709.64         9.4417
   709.78         9.4571
   709.92         9.4659
   710.06         9.4663
   710.20         9.4587
   710.34         9.4444
   710.48         9.4255
   710.62         9.4037
   710.76         9.3811
   710.90         9.3601
   711.04         9.3423
   711.18         9.3282
   711.32         9.3179
   711.46         9.3120
   711.60         9.3112
   711.74         9.3157
   711.88         9.3245
   712.02         9.3363
   712.16         9.3496
   712.30         9.3633
   712.44         9.3775
   712.58         9.3931
   712.72         9.4107
   712.86         9.4301
   713.00         9.4493
   713.14         9.4653
   713.28         9.4748
   713.42         9.4758
   713.56         9.4668
   713.70         9.4467
   713.84         9.4155
   713.98         9.3746
   714.12         9.3272
   714.26         9.2770
   714.40         9.2281
   714.54         9.1851
   714.68         9.1528
   714.82         9.1342
   714.96         9.1310
   715.10         9.1429
   715.24         9.1672
   715.38         9.1989
   715.52         9.2325
   715.66         9.2633
   715.80         9.2869
   715.94         9.2998
   716.08         9.2999
   716.22         9.2874
   716.36         9.2641
   716.50         9.2326
   716.64         9.1959
   716.78         9.1570
   716.92         9.1172
   717.06         9.0768
   717.20         9.0359
   717.34         8.9932
   717.48         8.9459
   717.62         8.8925
   717.76         8.8330
   717.90         8.7676
   718.04         8.6977
   718.18         8.6260
   718.32         8.5571
   718.46         8.4960
   718.60         8.4481
   718.74         8.4179
   718.88         8.4069
   719.02         8.4136
   719.16         8.4349
   719.30         8.4673
   719.44         8.5059
   719.58         8.5453
   719.72         8.5810
   719.86         8.6108
   720.00         8.6345
   720.14         8.6548
   720.28         8.6765
   720.42         8.7048
   720.56         8.7433
   720.70         8.7948
   720.84         8.8604
   720.98         8.9388
   721.12         9.0257
   721.26         9.1135
   721.40         9.1947
   721.54         9.2630
   721.68         9.3148
   721.82         9.3487
   721.96         9.3648
   722.10         9.3633
   722.24         9.3459
   722.38         9.3155
   722.52         9.2765
   722.66         9.2330
   722.80         9.1880
   722.94         9.1437
   723.08         9.1035
   723.22         9.0698
   723.36         9.0434
   723.50         9.0249
   723.64         9.0162
   723.78         9.0187
   723.92         9.0317
   724.06         9.0524
   724.20         9.0768
   724.34         9.1008
   724.48         9.1223
   724.62         9.1398
   724.76         9.1526
   724.90         9.1605
   725.04         9.1641
   725.18         9.1651
   725.32         9.1645
   725.46         9.1633
   725.60         9.1633
   725.74         9.1654
   725.88         9.1688
   726.02         9.1717
   726.16         9.1725
   726.30         9.1687
   726.44         9.1568
   726.58         9.1342
   726.72         9.1009
   726.86         9.0599
   727.00         9.0155
   727.14         8.9708
   727.28         8.9275
   727.42         8.8866
   727.56         8.8482
   727.70         8.8110
   727.84         8.7734
   727.98         8.7344
   728.12         8.6933
   728.26         8.6509
   728.40         8.6091
   728.54         8.5702
   728.68         8.5367
   728.82         8.5112
   728.96         8.4964
   729.10         8.4942
   729.24         8.5057
   729.38         8.5307
   729.52         8.5669
   729.66         8.6097
   729.80         8.6533
   729.94         8.6925
   730.08         8.7227
   730.22         8.7404
   730.36         8.7439
   730.50         8.7349
   730.64         8.7179
   730.78         8.6980
   730.92         8.6804
   731.06         8.6679
   731.20         8.6616
   731.34         8.6616
   731.48         8.6675
   731.62         8.6786
   731.76         8.6932
   731.90         8.7096
   732.04         8.7251
   732.18         8.7374
   732.32         8.7450
   732.46         8.7489
   732.60         8.7517
   732.74         8.7557
   732.88         8.7629
   733.02         8.7747
   733.16         8.7915
   733.30         8.8125
   733.44         8.8360
   733.58         8.8590
   733.72         8.8788
   733.86         8.8930
   734.00         8.8999
   734.14         8.8980
   734.28         8.8862
   734.42         8.8641
   734.56         8.8324
   734.70         8.7933
   734.84         8.7497
   734.98         8.7051
   735.12         8.6625
   735.26         8.6238
   735.40         8.5902
   735.54         8.5622
   735.68         8.5395
   735.82         8.5218
   735.96         8.5091
   736.10         8.5020
   736.24         8.5006
   736.38         8.5048
   736.52         8.5130
   736.66         8.5235
   736.80         8.5341
   736.94         8.5426
   737.08         8.5466
   737.22         8.5440
   737.36         8.5329
   737.50         8.5117
   737.64         8.4792
   737.78         8.4365
   737.92         8.3867
   738.06         8.3344
   738.20         8.2838
   738.34         8.2393
   738.48         8.2054
   738.62         8.1854
   738.76         8.1805
   738.90         8.1897
   739.04         8.2100
   739.18         8.2384
   739.32         8.2722
   739.46         8.3080
   739.60         8.3420
   739.74         8.3698
   739.88         8.3878
   740.02         8.3947
   740.16         8.3910
   740.30         8.3794
   740.44         8.3639
   740.58         8.3484
   740.72         8.3362
   740.86         8.3284
   741.00         8.3246
   741.14         8.3232
   741.28         8.3219
   741.42         8.3179
   741.56         8.3092
   741.70         8.2957
   741.84         8.2776
   741.98         8.2542
   742.12         8.2247
   742.26         8.1895
   742.40         8.1506
   742.54         8.1131
   742.68         8.0837
   742.82         8.0677
   742.96         8.0677
   743.10         8.0837
   743.24         8.1131
   743.38         8.1506
   743.52         8.1895
   743.66         8.2247
   743.80         8.2542
   743.94         8.2776
   744.08         8.2957
   744.22         8.3092
