# File SAO55155
# Wavelength [nm]    Normalized Amplitude
   349.70         3.5673
   349.84         3.5722
   349.98         3.5895
   350.12         3.6160
   350.26         3.6470
   350.40         3.6785
   350.54         3.7075
   350.68         3.7327
   350.82         3.7528
   350.96         3.7658
   351.10         3.7704
   351.24         3.7658
   351.38         3.7528
   351.52         3.7327
   351.66         3.7075
   351.80         3.6785
   351.94         3.6470
   352.08         3.6160
   352.22         3.5895
   352.36         3.5722
   352.50         3.5673
   352.64         3.5767
   352.78         3.6008
   352.92         3.6392
   353.06         3.6896
   353.20         3.7485
   353.34         3.8105
   353.48         3.8700
   353.62         3.9224
   353.76         3.9652
   353.90         3.9987
   354.04         4.0242
   354.18         4.0431
   354.32         4.0564
   354.46         4.0638
   354.60         4.0642
   354.74         4.0567
   354.88         4.0406
   355.02         4.0154
   355.16         3.9804
   355.30         3.9351
   355.44         3.8790
   355.58         3.8125
   355.72         3.7368
   355.86         3.6540
   356.00         3.5676
   356.14         3.4816
   356.28         3.4004
   356.42         3.3280
   356.56         3.2664
   356.70         3.2159
   356.84         3.1751
   356.98         3.1420
   357.12         3.1139
   357.26         3.0882
   357.40         3.0623
   357.54         3.0343
   357.68         3.0032
   357.82         2.9705
   357.96         2.9403
   358.10         2.9185
   358.24         2.9111
   358.38         2.9237
   358.52         2.9618
   358.66         3.0289
   358.80         3.1252
   358.94         3.2471
   359.08         3.3861
   359.22         3.5306
   359.36         3.6684
   359.50         3.7894
   359.64         3.8853
   359.78         3.9503
   359.92         3.9814
   360.06         3.9794
   360.20         3.9489
   360.34         3.8973
   360.48         3.8326
   360.62         3.7614
   360.76         3.6892
   360.90         3.6214
   361.04         3.5633
   361.18         3.5193
   361.32         3.4929
   361.46         3.4868
   361.60         3.5027
   361.74         3.5397
   361.88         3.5942
   362.02         3.6603
   362.16         3.7313
   362.30         3.8006
   362.44         3.8630
   362.58         3.9156
   362.72         3.9575
   362.86         3.9892
   363.00         4.0118
   363.14         4.0261
   363.28         4.0336
   363.42         4.0361
   363.56         4.0357
   363.70         4.0342
   363.84         4.0329
   363.98         4.0330
   364.12         4.0359
   364.26         4.0420
   364.40         4.0507
   364.54         4.0616
   364.68         4.0762
   364.82         4.0983
   364.96         4.1319
   365.10         4.1786
   365.24         4.2372
   365.38         4.3047
   365.52         4.3758
   365.66         4.4443
   365.80         4.5038
   365.94         4.5498
   366.08         4.5805
   366.22         4.5977
   366.36         4.6052
   366.50         4.6077
   366.64         4.6084
   366.78         4.6090
   366.92         4.6088
   367.06         4.6067
   367.20         4.6011
   367.34         4.5914
   367.48         4.5764
   367.62         4.5550
   367.76         4.5264
   367.90         4.4925
   368.04         4.4574
   368.18         4.4259
   368.32         4.4016
   368.46         4.3868
   368.60         4.3835
   368.74         4.3937
   368.88         4.4183
   369.02         4.4566
   369.16         4.5050
   369.30         4.5569
   369.44         4.6046
   369.58         4.6405
   369.72         4.6591
   369.86         4.6569
   370.00         4.6338
   370.14         4.5936
   370.28         4.5441
   370.42         4.4953
   370.56         4.4558
   370.70         4.4299
   370.84         4.4166
   370.98         4.4112
   371.12         4.4086
   371.26         4.4060
   371.40         4.4018
   371.54         4.3946
   371.68         4.3819
   371.82         4.3613
   371.96         4.3315
   372.10         4.2925
   372.24         4.2445
   372.38         4.1877
   372.52         4.1231
   372.66         4.0530
   372.80         3.9810
   372.94         3.9114
   373.08         3.8473
   373.22         3.7895
   373.36         3.7373
   373.50         3.6900
   373.64         3.6482
   373.78         3.6133
   373.92         3.5867
   374.06         3.5702
   374.20         3.5656
   374.34         3.5750
   374.48         3.5992
   374.62         3.6364
   374.76         3.6825
   374.90         3.7336
   375.04         3.7887
   375.18         3.8487
   375.32         3.9144
   375.46         3.9841
   375.60         4.0538
   375.74         4.1172
   375.88         4.1685
   376.02         4.2046
   376.16         4.2266
   376.30         4.2397
   376.44         4.2522
   376.58         4.2733
   376.72         4.3110
   376.86         4.3696
   377.00         4.4486
   377.14         4.5433
   377.28         4.6470
   377.42         4.7522
   377.56         4.8515
   377.70         4.9370
   377.84         5.0015
   377.98         5.0388
   378.12         5.0456
   378.26         5.0208
   378.40         4.9659
   378.54         4.8837
   378.68         4.7788
   378.82         4.6577
   378.96         4.5294
   379.10         4.4037
   379.24         4.2907
   379.38         4.1989
   379.52         4.1341
   379.66         4.0988
   379.80         4.0927
   379.94         4.1128
   380.08         4.1526
   380.22         4.2042
   380.36         4.2585
   380.50         4.3071
   380.64         4.3421
   380.78         4.3568
   380.92         4.3456
   381.06         4.3056
   381.20         4.2373
   381.34         4.1443
   381.48         4.0324
   381.62         3.9086
   381.76         3.7799
   381.90         3.6520
   382.04         3.5287
   382.18         3.4122
   382.32         3.3045
   382.46         3.2071
   382.60         3.1206
   382.74         3.0443
   382.88         2.9780
   383.02         2.9236
   383.16         2.8853
   383.30         2.8679
   383.44         2.8751
   383.58         2.9089
   383.72         2.9689
   383.86         3.0527
   384.00         3.1557
   384.14         3.2726
   384.28         3.3972
   384.42         3.5217
   384.56         3.6368
   384.70         3.7335
   384.84         3.8051
   384.98         3.8498
   385.12         3.8702
   385.26         3.8717
   385.40         3.8612
   385.54         3.8464
   385.68         3.8340
   385.82         3.8280
   385.96         3.8285
   386.10         3.8332
   386.24         3.8402
   386.38         3.8486
   386.52         3.8573
   386.66         3.8646
   386.80         3.8679
   386.94         3.8650
   387.08         3.8553
   387.22         3.8401
   387.36         3.8225
   387.50         3.8062
   387.64         3.7942
   387.78         3.7885
   387.92         3.7901
   388.06         3.8002
   388.20         3.8201
   388.34         3.8511
   388.48         3.8948
   388.62         3.9527
   388.76         4.0261
   388.90         4.1149
   389.04         4.2162
   389.18         4.3244
   389.32         4.4329
   389.46         4.5360
   389.60         4.6297
   389.74         4.7118
   389.88         4.7817
   390.02         4.8400
   390.16         4.8888
   390.30         4.9306
   390.44         4.9682
   390.58         5.0035
   390.72         5.0360
   390.86         5.0631
   391.00         5.0809
   391.14         5.0852
   391.28         5.0719
   391.42         5.0367
   391.56         4.9752
   391.70         4.8833
   391.84         4.7570
   391.98         4.5935
   392.12         4.3927
   392.26         4.1583
   392.40         3.8973
   392.54         3.6203
   392.68         3.3416
   392.82         3.0767
   392.96         2.8416
   393.10         2.6513
   393.24         2.5186
   393.38         2.4532
   393.52         2.4611
   393.66         2.5432
   393.80         2.6947
   393.94         2.9046
   394.08         3.1570
   394.22         3.4335
   394.36         3.7157
   394.50         3.9872
   394.64         4.2346
   394.78         4.4484
   394.92         4.6211
   395.06         4.7467
   395.20         4.8200
   395.34         4.8369
   395.48         4.7938
   395.62         4.6891
   395.76         4.5254
   395.90         4.3107
   396.04         4.0590
   396.18         3.7895
   396.32         3.5241
   396.46         3.2862
   396.60         3.0981
   396.74         2.9792
   396.88         2.9437
   397.02         2.9981
   397.16         3.1404
   397.30         3.3601
   397.44         3.6401
   397.58         3.9587
   397.72         4.2940
   397.86         4.6260
   398.00         4.9377
   398.14         5.2159
   398.28         5.4529
   398.42         5.6466
   398.56         5.7995
   398.70         5.9175
   398.84         6.0081
   398.98         6.0788
   399.12         6.1359
   399.26         6.1831
   399.40         6.2224
   399.54         6.2544
   399.68         6.2802
   399.82         6.3017
   399.96         6.3212
   400.10         6.3409
   400.24         6.3629
   400.38         6.3887
   400.52         6.4194
   400.66         6.4553
   400.80         6.4963
   400.94         6.5419
   401.08         6.5910
   401.22         6.6417
   401.36         6.6924
   401.50         6.7408
   401.64         6.7846
   401.78         6.8202
   401.92         6.8436
   402.06         6.8522
   402.20         6.8454
   402.34         6.8249
   402.48         6.7944
   402.62         6.7591
   402.76         6.7246
   402.90         6.6961
   403.04         6.6771
   403.18         6.6681
   403.32         6.6662
   403.46         6.6673
   403.60         6.6679
   403.74         6.6669
   403.88         6.6651
   404.02         6.6634
   404.16         6.6618
   404.30         6.6590
   404.44         6.6529
   404.58         6.6426
   404.72         6.6298
   404.86         6.6169
   405.00         6.6057
   405.14         6.5955
   405.28         6.5837
   405.42         6.5674
   405.56         6.5448
   405.70         6.5161
   405.84         6.4831
   405.98         6.4493
   406.12         6.4199
   406.26         6.3998
   406.40         6.3906
   406.54         6.3902
   406.68         6.3949
   406.82         6.4023
   406.96         6.4118
   407.10         6.4240
   407.24         6.4399
   407.38         6.4607
   407.52         6.4879
   407.66         6.5232
   407.80         6.5688
   407.94         6.6260
   408.08         6.6943
   408.22         6.7705
   408.36         6.8485
   408.50         6.9195
   408.64         6.9744
   408.78         7.0041
   408.92         7.0010
   409.06         6.9605
   409.20         6.8837
   409.34         6.7784
   409.48         6.6565
   409.62         6.5313
   409.76         6.4147
   409.90         6.3174
   410.04         6.2487
   410.18         6.2160
   410.32         6.2228
   410.46         6.2677
   410.60         6.3449
   410.74         6.4456
   410.88         6.5587
   411.02         6.6728
   411.16         6.7775
   411.30         6.8647
   411.44         6.9297
   411.58         6.9707
   411.72         6.9896
   411.86         6.9906
   412.00         6.9772
   412.14         6.9520
   412.28         6.9172
   412.42         6.8760
   412.56         6.8333
   412.70         6.7951
   412.84         6.7658
   412.98         6.7468
   413.12         6.7360
   413.26         6.7304
   413.40         6.7271
   413.54         6.7246
   413.68         6.7223
   413.82         6.7193
   413.96         6.7143
   414.10         6.7056
   414.24         6.6921
   414.38         6.6731
   414.52         6.6492
   414.66         6.6225
   414.80         6.5968
   414.94         6.5771
   415.08         6.5678
   415.22         6.5712
   415.36         6.5870
   415.50         6.6126
   415.64         6.6439
   415.78         6.6774
   415.92         6.7101
   416.06         6.7385
   416.20         6.7581
   416.34         6.7644
   416.48         6.7544
   416.62         6.7270
   416.76         6.6834
   416.90         6.6270
   417.04         6.5630
   417.18         6.4980
   417.32         6.4389
   417.46         6.3911
   417.60         6.3580
   417.74         6.3413
   417.88         6.3412
   418.02         6.3566
   418.16         6.3854
   418.30         6.4244
   418.44         6.4689
   418.58         6.5127
   418.72         6.5496
   418.86         6.5751
   419.00         6.5869
   419.14         6.5845
   419.28         6.5692
   419.42         6.5449
   419.56         6.5172
   419.70         6.4923
   419.84         6.4754
   419.98         6.4705
   420.12         6.4799
   420.26         6.5038
   420.40         6.5410
   420.54         6.5884
   420.68         6.6425
   420.82         6.7002
   420.96         6.7579
   421.10         6.8114
   421.24         6.8558
   421.38         6.8857
   421.52         6.8961
   421.66         6.8848
   421.80         6.8538
   421.94         6.8091
   422.08         6.7578
   422.22         6.7064
   422.36         6.6592
   422.50         6.6194
   422.64         6.5891
   422.78         6.5701
   422.92         6.5643
   423.06         6.5732
   423.20         6.5984
   423.34         6.6398
   423.48         6.6939
   423.62         6.7534
   423.76         6.8086
   423.90         6.8514
   424.04         6.8777
   424.18         6.8879
   424.32         6.8859
   424.46         6.8759
   424.60         6.8609
   424.74         6.8415
   424.88         6.8166
   425.02         6.7859
   425.16         6.7521
   425.30         6.7208
   425.44         6.6982
   425.58         6.6889
   425.72         6.6940
   425.86         6.7102
   426.00         6.7309
   426.14         6.7479
   426.28         6.7541
   426.42         6.7467
   426.56         6.7273
   426.70         6.7003
   426.84         6.6699
   426.98         6.6397
   427.12         6.6133
   427.26         6.5937
   427.40         6.5828
   427.54         6.5815
   427.68         6.5898
   427.82         6.6059
   427.96         6.6256
   428.10         6.6428
   428.24         6.6518
   428.38         6.6478
   428.52         6.6275
   428.66         6.5891
   428.80         6.5325
   428.94         6.4585
   429.08         6.3686
   429.22         6.2641
   429.36         6.1459
   429.50         6.0149
   429.64         5.8730
   429.78         5.7232
   429.92         5.5700
   430.06         5.4198
   430.20         5.2817
   430.34         5.1679
   430.48         5.0927
   430.62         5.0709
   430.76         5.1132
   430.90         5.2228
   431.04         5.3941
   431.18         5.6132
   431.32         5.8605
   431.46         6.1140
   431.60         6.3546
   431.74         6.5693
   431.88         6.7501
   432.02         6.8934
   432.16         6.9991
   432.30         7.0711
   432.44         7.1163
   432.58         7.1424
   432.72         7.1553
   432.86         7.1581
   433.00         7.1514
   433.14         7.1355
   433.28         7.1097
   433.42         7.0734
   433.56         7.0271
   433.70         6.9742
   433.84         6.9196
   433.98         6.8696
   434.12         6.8314
   434.26         6.8125
   434.40         6.8180
   434.54         6.8483
   434.68         6.9002
   434.82         6.9679
   434.96         7.0442
   435.10         7.1215
   435.24         7.1940
   435.38         7.2587
   435.52         7.3159
   435.66         7.3684
   435.80         7.4191
   435.94         7.4690
   436.08         7.5163
   436.22         7.5568
   436.36         7.5849
   436.50         7.5955
   436.64         7.5863
   436.78         7.5589
   436.92         7.5176
   437.06         7.4653
   437.20         7.4024
   437.34         7.3281
   437.48         7.2431
   437.62         7.1510
   437.76         7.0566
   437.90         6.9646
   438.04         6.8793
   438.18         6.8042
   438.32         6.7429
   438.46         6.6994
   438.60         6.6778
   438.74         6.6803
   438.88         6.7069
   439.02         6.7548
   439.16         6.8194
   439.30         6.8935
   439.44         6.9671
   439.58         7.0303
   439.72         7.0759
   439.86         7.1026
   440.00         7.1153
   440.14         7.1222
   440.28         7.1301
   440.42         7.1425
   440.56         7.1617
   440.70         7.1902
   440.84         7.2306
   440.98         7.2839
   441.12         7.3484
   441.26         7.4199
   441.40         7.4924
   441.54         7.5601
   441.68         7.6186
   441.82         7.6651
   441.96         7.6977
   442.10         7.7166
   442.24         7.7241
   442.38         7.7231
   442.52         7.7165
   442.66         7.7081
   442.80         7.7009
   442.94         7.6969
   443.08         7.6971
   443.22         7.7031
   443.36         7.7164
   443.50         7.7375
   443.64         7.7652
   443.78         7.7979
   443.92         7.8339
   444.06         7.8712
   444.20         7.9063
   444.34         7.9344
   444.48         7.9503
   444.62         7.9499
   444.76         7.9312
   444.90         7.8943
   445.04         7.8415
   445.18         7.7778
   445.32         7.7096
   445.46         7.6426
   445.60         7.5814
   445.74         7.5308
   445.88         7.4958
   446.02         7.4813
   446.16         7.4906
   446.30         7.5244
   446.44         7.5815
   446.58         7.6582
   446.72         7.7482
   446.86         7.8426
   447.00         7.9325
   447.14         8.0115
   447.28         8.0764
   447.42         8.1266
   447.56         8.1632
   447.70         8.1880
   447.84         8.2029
   447.98         8.2089
   448.12         8.2070
   448.26         8.1977
   448.40         8.1823
   448.54         8.1636
   448.68         8.1453
   448.82         8.1310
   448.96         8.1230
   449.10         8.1230
   449.24         8.1322
   449.38         8.1511
   449.52         8.1807
   449.66         8.2229
   449.80         8.2789
   449.94         8.3472
   450.08         8.4230
   450.22         8.4989
   450.36         8.5669
   450.50         8.6204
   450.64         8.6552
   450.78         8.6699
   450.92         8.6657
   451.06         8.6456
   451.20         8.6128
   451.34         8.5701
   451.48         8.5189
   451.62         8.4597
   451.76         8.3929
   451.90         8.3193
   452.04         8.2401
   452.18         8.1567
   452.32         8.0719
   452.46         7.9898
   452.60         7.9155
   452.74         7.8540
   452.88         7.8099
   453.02         7.7865
   453.16         7.7859
   453.30         7.8074
   453.44         7.8475
   453.58         7.8999
   453.72         7.9563
   453.86         8.0091
   454.00         8.0527
   454.14         8.0829
   454.28         8.0990
   454.42         8.1027
   454.56         8.0984
   454.70         8.0919
   454.84         8.0888
   454.98         8.0936
   455.12         8.1082
   455.26         8.1318
   455.40         8.1612
   455.54         8.1929
   455.68         8.2242
   455.82         8.2522
   455.96         8.2748
   456.10         8.2913
   456.24         8.3024
   456.38         8.3103
   456.52         8.3172
   456.66         8.3240
   456.80         8.3300
   456.94         8.3339
   457.08         8.3345
   457.22         8.3307
   457.36         8.3219
   457.50         8.3076
   457.64         8.2889
   457.78         8.2680
   457.92         8.2480
   458.06         8.2314
   458.20         8.2200
   458.34         8.2145
   458.48         8.2147
   458.62         8.2200
   458.76         8.2291
   458.90         8.2398
   459.04         8.2495
   459.18         8.2555
   459.32         8.2568
   459.46         8.2545
   459.60         8.2525
   459.74         8.2555
   459.88         8.2667
   460.02         8.2877
   460.16         8.3181
   460.30         8.3560
   460.44         8.3981
   460.58         8.4401
   460.72         8.4788
   460.86         8.5125
   461.00         8.5414
   461.14         8.5661
   461.28         8.5874
   461.42         8.6059
   461.56         8.6228
   461.70         8.6394
   461.84         8.6569
   461.98         8.6760
   462.12         8.6964
   462.26         8.7168
   462.40         8.7340
   462.54         8.7444
   462.68         8.7458
   462.82         8.7377
   462.96         8.7213
   463.10         8.6984
   463.24         8.6699
   463.38         8.6363
   463.52         8.5977
   463.66         8.5540
   463.80         8.5063
   463.94         8.4570
   464.08         8.4094
   464.22         8.3666
   464.36         8.3308
   464.50         8.3038
   464.64         8.2873
   464.78         8.2827
   464.92         8.2899
   465.06         8.3073
   465.20         8.3316
   465.34         8.3582
   465.48         8.3812
   465.62         8.3945
   465.76         8.3927
   465.90         8.3733
   466.04         8.3374
   466.18         8.2898
   466.32         8.2377
   466.46         8.1893
   466.60         8.1508
   466.74         8.1254
   466.88         8.1143
   467.02         8.1177
   467.16         8.1350
   467.30         8.1642
   467.44         8.2012
   467.58         8.2405
   467.72         8.2765
   467.86         8.3049
   468.00         8.3231
   468.14         8.3306
   468.28         8.3298
   468.42         8.3248
   468.56         8.3184
   468.70         8.3115
   468.84         8.3033
   468.98         8.2925
   469.12         8.2768
   469.26         8.2543
   469.40         8.2241
   469.54         8.1871
   469.68         8.1448
   469.82         8.0996
   469.96         8.0548
   470.10         8.0138
   470.24         7.9793
   470.38         7.9539
   470.52         7.9405
   470.66         7.9423
   470.80         7.9614
   470.94         7.9983
   471.08         8.0514
   471.22         8.1168
   471.36         8.1896
   471.50         8.2644
   471.64         8.3353
   471.78         8.3958
   471.92         8.4413
   472.06         8.4691
   472.20         8.4791
   472.34         8.4731
   472.48         8.4547
   472.62         8.4277
   472.76         8.3962
   472.90         8.3644
   473.04         8.3369
   473.18         8.3183
   473.32         8.3113
   473.46         8.3172
   473.60         8.3354
   473.74         8.3647
   473.88         8.4026
   474.02         8.4456
   474.16         8.4895
   474.30         8.5307
   474.44         8.5664
   474.58         8.5951
   474.72         8.6153
   474.86         8.6258
   475.00         8.6255
   475.14         8.6136
   475.28         8.5893
   475.42         8.5530
   475.56         8.5065
   475.70         8.4534
   475.84         8.3984
   475.98         8.3468
   476.12         8.3034
   476.26         8.2728
   476.40         8.2582
   476.54         8.2614
   476.68         8.2826
   476.82         8.3205
   476.96         8.3723
   477.10         8.4336
   477.24         8.4986
   477.38         8.5612
   477.52         8.6151
   477.66         8.6551
   477.80         8.6775
   477.94         8.6814
   478.08         8.6687
   478.22         8.6442
   478.36         8.6143
   478.50         8.5851
   478.64         8.5610
   478.78         8.5444
   478.92         8.5366
   479.06         8.5373
   479.20         8.5455
   479.34         8.5585
   479.48         8.5729
   479.62         8.5844
   479.76         8.5890
   479.90         8.5845
   480.04         8.5702
   480.18         8.5478
   480.32         8.5202
   480.46         8.4914
   480.60         8.4657
   480.74         8.4472
   480.88         8.4395
   481.02         8.4438
   481.16         8.4593
   481.30         8.4832
   481.44         8.5119
   481.58         8.5423
   481.72         8.5714
   481.86         8.5958
   482.00         8.6133
   482.14         8.6236
   482.28         8.6271
   482.42         8.6254
   482.56         8.6210
   482.70         8.6165
   482.84         8.6137
   482.98         8.6134
   483.12         8.6155
   483.26         8.6199
   483.40         8.6262
   483.54         8.6332
   483.68         8.6389
   483.82         8.6408
   483.96         8.6381
   484.10         8.6316
   484.24         8.6216
   484.38         8.6069
   484.52         8.5860
   484.66         8.5579
   484.80         8.5198
   484.94         8.4664
   485.08         8.3939
   485.22         8.3016
   485.36         8.1921
   485.50         8.0713
   485.64         7.9477
   485.78         7.8307
   485.92         7.7276
   486.06         7.6432
   486.20         7.5790
   486.34         7.5359
   486.48         7.5150
   486.62         7.5167
   486.76         7.5396
   486.90         7.5803
   487.04         7.6362
   487.18         7.7047
   487.32         7.7822
   487.46         7.8631
   487.60         7.9422
   487.74         8.0167
   487.88         8.0844
   488.02         8.1433
   488.16         8.1919
   488.30         8.2300
   488.44         8.2589
   488.58         8.2808
   488.72         8.2991
   488.86         8.3186
   489.00         8.3454
   489.14         8.3844
   489.28         8.4376
   489.42         8.5039
   489.56         8.5801
   489.70         8.6595
   489.84         8.7326
   489.98         8.7888
   490.12         8.8199
   490.26         8.8221
   490.40         8.7967
   490.54         8.7495
   490.68         8.6877
   490.82         8.6179
   490.96         8.5449
   491.10         8.4718
   491.24         8.4004
   491.38         8.3332
   491.52         8.2736
   491.66         8.2257
   491.80         8.1921
   491.94         8.1746
   492.08         8.1747
   492.22         8.1922
   492.36         8.2240
   492.50         8.2650
   492.64         8.3107
   492.78         8.3577
   492.92         8.4032
   493.06         8.4448
   493.20         8.4809
   493.34         8.5099
   493.48         8.5312
   493.62         8.5467
   493.76         8.5604
   493.90         8.5779
   494.04         8.6041
   494.18         8.6417
   494.32         8.6907
   494.46         8.7481
   494.60         8.8078
   494.74         8.8613
   494.88         8.8997
   495.02         8.9175
   495.16         8.9137
   495.30         8.8927
   495.44         8.8612
   495.58         8.8257
   495.72         8.7908
   495.86         8.7593
   496.00         8.7329
   496.14         8.7131
   496.28         8.7023
   496.42         8.7035
   496.56         8.7187
   496.70         8.7459
   496.84         8.7795
   496.98         8.8125
   497.12         8.8373
   497.26         8.8464
   497.40         8.8363
   497.54         8.8072
   497.68         8.7616
   497.82         8.7029
   497.96         8.6351
   498.10         8.5627
   498.24         8.4903
   498.38         8.4235
   498.52         8.3693
   498.66         8.3338
   498.80         8.3199
   498.94         8.3279
   499.08         8.3546
   499.22         8.3921
   499.36         8.4296
   499.50         8.4572
   499.64         8.4678
   499.78         8.4578
   499.92         8.4282
   500.06         8.3831
   500.20         8.3268
   500.34         8.2630
   500.48         8.1942
   500.62         8.1234
   500.76         8.0533
   500.90         7.9863
   501.04         7.9250
   501.18         7.8721
   501.32         7.8302
   501.46         7.8020
   501.60         7.7895
   501.74         7.7925
   501.88         7.8091
   502.02         7.8375
   502.16         7.8770
   502.30         7.9279
   502.44         7.9903
   502.58         8.0618
   502.72         8.1372
   502.86         8.2095
   503.00         8.2708
   503.14         8.3143
   503.28         8.3374
   503.42         8.3420
   503.56         8.3339
   503.70         8.3192
   503.84         8.3027
   503.98         8.2882
   504.12         8.2783
   504.26         8.2747
   504.40         8.2781
   504.54         8.2903
   504.68         8.3132
   504.82         8.3477
   504.96         8.3932
   505.10         8.4475
   505.24         8.5060
   505.38         8.5633
   505.52         8.6137
   505.66         8.6530
   505.80         8.6807
   505.94         8.6989
   506.08         8.7099
   506.22         8.7139
   506.36         8.7095
   506.50         8.6958
   506.64         8.6739
   506.78         8.6458
   506.92         8.6125
   507.06         8.5746
   507.20         8.5328
   507.34         8.4891
   507.48         8.4464
   507.62         8.4084
   507.76         8.3781
   507.90         8.3575
   508.04         8.3478
   508.18         8.3518
   508.32         8.3727
   508.46         8.4120
   508.60         8.4677
   508.74         8.5332
   508.88         8.5997
   509.02         8.6589
   509.16         8.7048
   509.30         8.7342
   509.44         8.7457
   509.58         8.7399
   509.72         8.7201
   509.86         8.6913
   510.00         8.6590
   510.14         8.6289
   510.28         8.6058
   510.42         8.5924
   510.56         8.5901
   510.70         8.6002
   510.84         8.6229
   510.98         8.6555
   511.12         8.6928
   511.26         8.7284
   511.40         8.7563
   511.54         8.7720
   511.68         8.7737
   511.82         8.7602
   511.96         8.7311
   512.10         8.6873
   512.24         8.6317
   512.38         8.5690
   512.52         8.5053
   512.66         8.4464
   512.80         8.3964
   512.94         8.3578
   513.08         8.3315
   513.22         8.3167
   513.36         8.3110
   513.50         8.3106
   513.64         8.3116
   513.78         8.3105
   513.92         8.3051
   514.06         8.2945
   514.20         8.2785
   514.34         8.2578
   514.48         8.2350
   514.62         8.2138
   514.76         8.1975
   514.90         8.1881
   515.04         8.1869
   515.18         8.1933
   515.32         8.2052
   515.46         8.2182
   515.60         8.2256
   515.74         8.2196
   515.88         8.1937
   516.02         8.1439
   516.16         8.0687
   516.30         7.9695
   516.44         7.8527
   516.58         7.7303
   516.72         7.6161
   516.86         7.5242
   517.00         7.4654
   517.14         7.4444
   517.28         7.4577
   517.42         7.4973
   517.56         7.5552
   517.70         7.6236
   517.84         7.6948
   517.98         7.7606
   518.12         7.8143
   518.26         7.8523
   518.40         7.8752
   518.54         7.8872
   518.68         7.8944
   518.82         7.9041
   518.96         7.9248
   519.10         7.9623
   519.24         8.0172
   519.38         8.0838
   519.52         8.1522
   519.66         8.2117
   519.80         8.2554
   519.94         8.2822
   520.08         8.2966
   520.22         8.3055
   520.36         8.3125
   520.50         8.3185
   520.64         8.3234
   520.78         8.3282
   520.92         8.3342
   521.06         8.3437
   521.20         8.3583
   521.34         8.3766
   521.48         8.3937
   521.62         8.4025
   521.76         8.3976
   521.90         8.3768
   522.04         8.3417
   522.18         8.2967
   522.32         8.2490
   522.46         8.2063
   522.60         8.1764
   522.74         8.1657
   522.88         8.1776
   523.02         8.2131
   523.16         8.2716
   523.30         8.3508
   523.44         8.4452
   523.58         8.5462
   523.72         8.6430
   523.86         8.7239
   524.00         8.7797
   524.14         8.8062
   524.28         8.8045
   524.42         8.7795
   524.56         8.7382
   524.70         8.6897
   524.84         8.6416
   524.98         8.5989
   525.12         8.5634
   525.26         8.5334
   525.40         8.5040
   525.54         8.4685
   525.68         8.4205
   525.82         8.3550
   525.96         8.2684
   526.10         8.1613
   526.24         8.0392
   526.38         7.9107
   526.52         7.7875
   526.66         7.6824
   526.80         7.6071
   526.94         7.5693
   527.08         7.5727
   527.22         7.6163
   527.36         7.6942
   527.50         7.7967
   527.64         7.9136
   527.78         8.0367
   527.92         8.1610
   528.06         8.2830
   528.20         8.4006
   528.34         8.5115
   528.48         8.6123
   528.62         8.6995
   528.76         8.7702
   528.90         8.8225
   529.04         8.8560
   529.18         8.8718
   529.32         8.8730
   529.46         8.8635
   529.60         8.8477
   529.74         8.8308
   529.88         8.8184
   530.02         8.8161
   530.16         8.8276
   530.30         8.8536
   530.44         8.8922
   530.58         8.9388
   530.72         8.9861
   530.86         9.0264
   531.00         9.0535
   531.14         9.0639
   531.28         9.0565
   531.42         9.0323
   531.56         8.9925
   531.70         8.9366
   531.84         8.8646
   531.98         8.7800
   532.12         8.6885
   532.26         8.5968
   532.40         8.5121
   532.54         8.4414
   532.68         8.3902
   532.82         8.3619
   532.96         8.3580
   533.10         8.3777
   533.24         8.4188
   533.38         8.4771
   533.52         8.5466
   533.66         8.6193
   533.80         8.6871
   533.94         8.7433
   534.08         8.7838
   534.22         8.8081
   534.36         8.8205
   534.50         8.8290
   534.64         8.8415
   534.78         8.8630
   534.92         8.8958
   535.06         8.9398
   535.20         8.9915
   535.34         9.0454
   535.48         9.0946
   535.62         9.1336
   535.76         9.1582
   535.90         9.1653
   536.04         9.1524
   536.18         9.1184
   536.32         9.0664
   536.46         9.0039
   536.60         8.9402
   536.74         8.8835
   536.88         8.8407
   537.02         8.8167
   537.16         8.8134
   537.30         8.8297
   537.44         8.8620
   537.58         8.9058
   537.72         8.9546
   537.86         9.0014
   538.00         9.0396
   538.14         9.0640
   538.28         9.0717
   538.42         9.0608
   538.56         9.0309
   538.70         8.9839
   538.84         8.9244
   538.98         8.8587
   539.12         8.7925
   539.26         8.7298
   539.40         8.6723
   539.54         8.6202
   539.68         8.5736
   539.82         8.5327
   539.96         8.4973
   540.10         8.4686
   540.24         8.4487
   540.38         8.4397
   540.52         8.4439
   540.66         8.4630
   540.80         8.4980
   540.94         8.5485
   541.08         8.6117
   541.22         8.6834
   541.36         8.7587
   541.50         8.8323
   541.64         8.8990
   541.78         8.9535
   541.92         8.9910
   542.06         9.0081
   542.20         9.0047
   542.34         8.9829
   542.48         8.9464
   542.62         8.9003
   542.76         8.8520
   542.90         8.8097
   543.04         8.7803
   543.18         8.7682
   543.32         8.7744
   543.46         8.7959
   543.60         8.8274
   543.74         8.8634
   543.88         8.9004
   544.02         8.9373
   544.16         8.9729
   544.30         9.0041
   544.44         9.0266
   544.58         9.0372
   544.72         9.0366
   544.86         9.0279
   545.00         9.0158
   545.14         9.0054
   545.28         9.0009
   545.42         9.0045
   545.56         9.0149
   545.70         9.0288
   545.84         9.0427
   545.98         9.0537
   546.12         9.0602
   546.26         9.0617
   546.40         9.0582
   546.54         9.0487
   546.68         9.0314
   546.82         9.0045
   546.96         8.9678
   547.10         8.9238
   547.24         8.8774
   547.38         8.8342
   547.52         8.7979
   547.66         8.7704
   547.80         8.7517
   547.94         8.7414
   548.08         8.7393
   548.22         8.7452
   548.36         8.7588
   548.50         8.7795
   548.64         8.8051
   548.78         8.8325
   548.92         8.8592
   549.06         8.8843
   549.20         8.9073
   549.34         8.9283
   549.48         8.9467
   549.62         8.9608
   549.76         8.9690
   549.90         8.9708
   550.04         8.9665
   550.18         8.9556
   550.32         8.9382
   550.46         8.9154
   550.60         8.8903
   550.74         8.8669
   550.88         8.8496
   551.02         8.8417
   551.16         8.8443
   551.30         8.8565
   551.44         8.8765
   551.58         8.9017
   551.72         8.9285
   551.86         8.9526
   552.00         8.9705
   552.14         8.9811
   552.28         8.9842
   552.42         8.9806
   552.56         8.9717
   552.70         8.9585
   552.84         8.9419
   552.98         8.9241
   553.12         8.9084
   553.26         8.8981
   553.40         8.8952
   553.54         8.9005
   553.68         8.9139
   553.82         8.9353
   553.96         8.9652
   554.10         9.0032
   554.24         9.0474
   554.38         9.0947
   554.52         9.1411
   554.66         9.1825
   554.80         9.2152
   554.94         9.2365
   555.08         9.2448
   555.22         9.2396
   555.36         9.2218
   555.50         9.1940
   555.64         9.1598
   555.78         9.1224
   555.92         9.0844
   556.06         9.0480
   556.20         9.0157
   556.34         8.9892
   556.48         8.9695
   556.62         8.9568
   556.76         8.9503
   556.90         8.9491
   557.04         8.9523
   557.18         8.9589
   557.32         8.9678
   557.46         8.9781
   557.60         8.9875
   557.74         8.9922
   557.88         8.9879
   558.02         8.9716
   558.16         8.9423
   558.30         8.9005
   558.44         8.8492
   558.58         8.7938
   558.72         8.7408
   558.86         8.6955
   559.00         8.6613
   559.14         8.6388
   559.28         8.6269
   559.42         8.6239
   559.56         8.6289
   559.70         8.6417
   559.84         8.6619
   559.98         8.6887
   560.12         8.7214
   560.26         8.7585
   560.40         8.7977
   560.54         8.8353
   560.68         8.8679
   560.82         8.8932
   560.96         8.9103
   561.10         8.9191
   561.24         8.9193
   561.38         8.9106
   561.52         8.8919
   561.66         8.8627
   561.80         8.8256
   561.94         8.7866
   562.08         8.7531
   562.22         8.7315
   562.36         8.7252
   562.50         8.7342
   562.64         8.7565
   562.78         8.7884
   562.92         8.8251
   563.06         8.8614
   563.20         8.8940
   563.34         8.9218
   563.48         8.9447
   563.62         8.9629
   563.76         8.9751
   563.90         8.9802
   564.04         8.9769
   564.18         8.9657
   564.32         8.9489
   564.46         8.9306
   564.60         8.9135
   564.74         8.8981
   564.88         8.8829
   565.02         8.8657
   565.16         8.8453
   565.30         8.8216
   565.44         8.7956
   565.58         8.7697
   565.72         8.7465
   565.86         8.7282
   566.00         8.7166
   566.14         8.7133
   566.28         8.7198
   566.42         8.7361
   566.56         8.7617
   566.70         8.7957
   566.84         8.8370
   566.98         8.8831
   567.12         8.9297
   567.26         8.9713
   567.40         9.0031
   567.54         9.0216
   567.68         9.0255
   567.82         9.0154
   567.96         8.9934
   568.10         8.9634
   568.24         8.9298
   568.38         8.8970
   568.52         8.8692
   568.66         8.8499
   568.80         8.8411
   568.94         8.8421
   569.08         8.8501
   569.22         8.8615
   569.36         8.8733
   569.50         8.8821
   569.64         8.8841
   569.78         8.8749
   569.92         8.8515
   570.06         8.8139
   570.20         8.7642
   570.34         8.7068
   570.48         8.6477
   570.62         8.5937
   570.76         8.5507
   570.90         8.5234
   571.04         8.5151
   571.18         8.5281
   571.32         8.5633
   571.46         8.6186
   571.60         8.6900
   571.74         8.7729
   571.88         8.8617
   572.02         8.9500
   572.16         9.0312
   572.30         9.0999
   572.44         9.1528
   572.58         9.1892
   572.72         9.2104
   572.86         9.2190
   573.00         9.2182
   573.14         9.2125
   573.28         9.2058
   573.42         9.2007
   573.56         9.1982
   573.70         9.1982
   573.84         9.1994
   573.98         9.1996
   574.12         9.1971
   574.26         9.1903
   574.40         9.1780
   574.54         9.1598
   574.68         9.1363
   574.82         9.1095
   574.96         9.0813
   575.10         9.0526
   575.24         9.0236
   575.38         8.9950
   575.52         8.9687
   575.66         8.9473
   575.80         8.9335
   575.94         8.9291
   576.08         8.9348
   576.22         8.9504
   576.36         8.9756
   576.50         9.0097
   576.64         9.0505
   576.78         9.0941
   576.92         9.1345
   577.06         9.1647
   577.20         9.1784
   577.34         9.1708
   577.48         9.1394
   577.62         9.0849
   577.76         9.0115
   577.90         8.9262
   578.04         8.8377
   578.18         8.7555
   578.32         8.6879
   578.46         8.6413
   578.60         8.6191
   578.74         8.6218
   578.88         8.6475
   579.02         8.6926
   579.16         8.7525
   579.30         8.8210
   579.44         8.8904
   579.58         8.9531
   579.72         9.0041
   579.86         9.0423
   580.00         9.0684
   580.14         9.0851
   580.28         9.0954
   580.42         9.1014
   580.56         9.1040
   580.70         9.1039
   580.84         9.1033
   580.98         9.1047
   581.12         9.1105
   581.26         9.1213
   581.40         9.1367
   581.54         9.1561
   581.68         9.1791
   581.82         9.2055
   581.96         9.2345
   582.10         9.2643
   582.24         9.2935
   582.38         9.3216
   582.52         9.3471
   582.66         9.3679
   582.80         9.3826
   582.94         9.3909
   583.08         9.3933
   583.22         9.3914
   583.36         9.3875
   583.50         9.3835
   583.64         9.3800
   583.78         9.3766
   583.92         9.3731
   584.06         9.3701
   584.20         9.3673
   584.34         9.3636
   584.48         9.3567
   584.62         9.3440
   584.76         9.3238
   584.90         9.2960
   585.04         9.2621
   585.18         9.2244
   585.32         9.1859
   585.46         9.1501
   585.60         9.1205
   585.74         9.0999
   585.88         9.0906
   586.02         9.0933
   586.16         9.1079
   586.30         9.1338
   586.44         9.1700
   586.58         9.2135
   586.72         9.2593
   586.86         9.3016
   587.00         9.3354
   587.14         9.3572
   587.28         9.3654
   587.42         9.3596
   587.56         9.3405
   587.70         9.3074
   587.84         9.2569
   587.98         9.1856
   588.12         9.0942
   588.26         8.9870
   588.40         8.8691
   588.54         8.7450
   588.68         8.6210
   588.82         8.5050
   588.96         8.4065
   589.10         8.3336
   589.24         8.2925
   589.38         8.2867
   589.52         8.3163
   589.66         8.3789
   589.80         8.4698
   589.94         8.5816
   590.08         8.7049
   590.22         8.8284
   590.36         8.9401
   590.50         9.0317
   590.64         9.1010
   590.78         9.1497
   590.92         9.1795
   591.06         9.1926
   591.20         9.1931
   591.34         9.1868
   591.48         9.1783
   591.62         9.1709
   591.76         9.1658
   591.90         9.1622
   592.04         9.1585
   592.18         9.1533
   592.32         9.1461
   592.46         9.1380
   592.60         9.1310
   592.74         9.1255
   592.88         9.1214
   593.02         9.1182
   593.16         9.1155
   593.30         9.1136
   593.44         9.1121
   593.58         9.1103
   593.72         9.1059
   593.86         9.0971
   594.00         9.0830
   594.14         9.0641
   594.28         9.0418
   594.42         9.0183
   594.56         8.9962
   594.70         8.9789
   594.84         8.9693
   594.98         8.9697
   595.12         8.9805
   595.26         8.9994
   595.40         9.0224
   595.54         9.0459
   595.68         9.0675
   595.82         9.0865
   595.96         9.1033
   596.10         9.1176
   596.24         9.1286
   596.38         9.1359
   596.52         9.1399
   596.66         9.1410
   596.80         9.1387
   596.94         9.1335
   597.08         9.1262
   597.22         9.1163
   597.36         9.1030
   597.50         9.0859
   597.64         9.0648
   597.78         9.0399
   597.92         9.0125
   598.06         8.9854
   598.20         8.9620
   598.34         8.9457
   598.48         8.9386
   598.62         8.9404
   598.76         8.9490
   598.90         8.9625
   599.04         8.9796
   599.18         8.9989
   599.32         9.0186
   599.46         9.0361
   599.60         9.0482
   599.74         9.0517
   599.88         9.0448
   600.02         9.0286
   600.16         9.0048
   600.30         8.9745
   600.44         8.9396
   600.58         8.9029
   600.72         8.8671
   600.86         8.8332
   601.00         8.8009
   601.14         8.7701
   601.28         8.7406
   601.42         8.7133
   601.56         8.6900
   601.70         8.6715
   601.84         8.6575
   601.98         8.6475
   602.12         8.6414
   602.26         8.6397
   602.40         8.6442
   602.54         8.6562
   602.68         8.6758
   602.82         8.7013
   602.96         8.7311
   603.10         8.7637
   603.24         8.7973
   603.38         8.8294
   603.52         8.8573
   603.66         8.8805
   603.80         8.9000
   603.94         8.9172
   604.08         8.9328
   604.22         8.9465
   604.36         8.9576
   604.50         8.9659
   604.64         8.9719
   604.78         8.9770
   604.92         8.9832
   605.06         8.9925
   605.20         9.0056
   605.34         9.0220
   605.48         9.0412
   605.62         9.0626
   605.76         9.0859
   605.90         9.1104
   606.04         9.1355
   606.18         9.1605
   606.32         9.1844
   606.46         9.2054
   606.60         9.2205
   606.74         9.2265
   606.88         9.2214
   607.02         9.2049
   607.16         9.1779
   607.30         9.1418
   607.44         9.0988
   607.58         9.0514
   607.72         9.0021
   607.86         8.9531
   608.00         8.9069
   608.14         8.8659
   608.28         8.8313
   608.42         8.8036
   608.56         8.7827
   608.70         8.7680
   608.84         8.7584
   608.98         8.7519
   609.12         8.7461
   609.26         8.7388
   609.40         8.7289
   609.54         8.7169
   609.68         8.7050
   609.82         8.6958
   609.96         8.6916
   610.10         8.6947
   610.24         8.7063
   610.38         8.7259
   610.52         8.7523
   610.66         8.7832
   610.80         8.8155
   610.94         8.8458
   611.08         8.8709
   611.22         8.8875
   611.36         8.8936
   611.50         8.8888
   611.64         8.8735
   611.78         8.8493
   611.92         8.8199
   612.06         8.7897
   612.20         8.7631
   612.34         8.7424
   612.48         8.7258
   612.62         8.7096
   612.76         8.6908
   612.90         8.6680
   613.04         8.6405
   613.18         8.6091
   613.32         8.5755
   613.46         8.5432
   613.60         8.5159
   613.74         8.4971
   613.88         8.4900
   614.02         8.4962
   614.16         8.5156
   614.30         8.5461
   614.44         8.5837
   614.58         8.6245
   614.72         8.6647
   614.86         8.7002
   615.00         8.7257
   615.14         8.7368
   615.28         8.7321
   615.42         8.7135
   615.56         8.6838
   615.70         8.6450
   615.84         8.5988
   615.98         8.5481
   616.12         8.4969
   616.26         8.4495
   616.40         8.4100
   616.54         8.3817
   616.68         8.3676
   616.82         8.3697
   616.96         8.3882
   617.10         8.4216
   617.24         8.4674
   617.38         8.5215
   617.52         8.5778
   617.66         8.6306
   617.80         8.6760
   617.94         8.7117
   618.08         8.7360
   618.22         8.7493
   618.36         8.7538
   618.50         8.7532
   618.64         8.7524
   618.78         8.7560
   618.92         8.7659
   619.06         8.7819
   619.20         8.8031
   619.34         8.8285
   619.48         8.8564
   619.62         8.8851
   619.76         8.9128
   619.90         8.9374
   620.04         8.9571
   620.18         8.9689
   620.32         8.9701
   620.46         8.9584
   620.60         8.9330
   620.74         8.8958
   620.88         8.8509
   621.02         8.8025
   621.16         8.7538
   621.30         8.7087
   621.44         8.6705
   621.58         8.6415
   621.72         8.6223
   621.86         8.6116
   622.00         8.6066
   622.14         8.6049
   622.28         8.6050
   622.42         8.6053
   622.56         8.6048
   622.70         8.6029
   622.84         8.5994
   622.98         8.5952
   623.12         8.5917
   623.26         8.5892
   623.40         8.5874
   623.54         8.5859
   623.68         8.5854
   623.82         8.5868
   623.96         8.5899
   624.10         8.5932
   624.24         8.5941
   624.38         8.5905
   624.52         8.5821
   624.66         8.5703
   624.80         8.5572
   624.94         8.5445
   625.08         8.5321
   625.22         8.5182
   625.36         8.5017
   625.50         8.4832
   625.64         8.4640
   625.78         8.4458
   625.92         8.4305
   626.06         8.4198
   626.20         8.4152
   626.34         8.4166
   626.48         8.4220
   626.62         8.4286
   626.76         8.4340
   626.90         8.4363
   627.04         8.4346
   627.18         8.4286
   627.32         8.4197
   627.46         8.4105
   627.60         8.4044
   627.74         8.4048
   627.88         8.4146
   628.02         8.4358
   628.16         8.4679
   628.30         8.5078
   628.44         8.5509
   628.58         8.5923
   628.72         8.6282
   628.86         8.6557
   629.00         8.6728
   629.14         8.6788
   629.28         8.6745
   629.42         8.6619
   629.56         8.6442
   629.70         8.6255
   629.84         8.6097
   629.98         8.5997
   630.12         8.5965
   630.26         8.5985
   630.40         8.6021
   630.54         8.6036
   630.68         8.5998
   630.82         8.5891
   630.96         8.5715
   631.10         8.5486
   631.24         8.5235
   631.38         8.5008
   631.52         8.4853
   631.66         8.4808
   631.80         8.4895
   631.94         8.5116
   632.08         8.5451
   632.22         8.5865
   632.36         8.6300
   632.50         8.6686
   632.64         8.6963
   632.78         8.7091
   632.92         8.7052
   633.06         8.6858
   633.20         8.6547
   633.34         8.6169
   633.48         8.5782
   633.62         8.5441
   633.76         8.5188
   633.90         8.5047
   634.04         8.5031
   634.18         8.5131
   634.32         8.5315
   634.46         8.5542
   634.60         8.5770
   634.74         8.5958
   634.88         8.6070
   635.02         8.6079
   635.16         8.5976
   635.30         8.5775
   635.44         8.5499
   635.58         8.5183
   635.72         8.4871
   635.86         8.4611
   636.00         8.4437
   636.14         8.4372
   636.28         8.4423
   636.42         8.4587
   636.56         8.4852
   636.70         8.5190
   636.84         8.5557
   636.98         8.5900
   637.12         8.6182
   637.26         8.6379
   637.40         8.6482
   637.54         8.6496
   637.68         8.6437
   637.82         8.6324
   637.96         8.6182
   638.10         8.6031
   638.24         8.5883
   638.38         8.5741
   638.52         8.5610
   638.66         8.5491
   638.80         8.5381
   638.94         8.5271
   639.08         8.5154
   639.22         8.5026
   639.36         8.4889
   639.50         8.4752
   639.64         8.4631
   639.78         8.4541
   639.92         8.4491
   640.06         8.4486
   640.20         8.4525
   640.34         8.4595
   640.48         8.4676
   640.62         8.4747
   640.76         8.4783
   640.90         8.4765
   641.04         8.4688
   641.18         8.4563
   641.32         8.4407
   641.46         8.4241
   641.60         8.4090
   641.74         8.3979
   641.88         8.3923
   642.02         8.3930
   642.16         8.4004
   642.30         8.4146
   642.44         8.4349
   642.58         8.4599
   642.72         8.4871
   642.86         8.5139
   643.00         8.5381
   643.14         8.5586
   643.28         8.5752
   643.42         8.5878
   643.56         8.5968
   643.70         8.6024
   643.84         8.6043
   643.98         8.6017
   644.12         8.5942
   644.26         8.5821
   644.40         8.5658
   644.54         8.5459
   644.68         8.5242
   644.82         8.5029
   644.96         8.4833
   645.10         8.4647
   645.24         8.4465
   645.38         8.4291
   645.52         8.4143
   645.66         8.4039
   645.80         8.3985
   645.94         8.3969
   646.08         8.3978
   646.22         8.4005
   646.36         8.4053
   646.50         8.4133
   646.64         8.4260
   646.78         8.4444
   646.92         8.4675
   647.06         8.4931
   647.20         8.5190
   647.34         8.5444
   647.48         8.5679
   647.62         8.5885
   647.76         8.6050
   647.90         8.6171
   648.04         8.6242
   648.18         8.6241
   648.32         8.6131
   648.46         8.5878
   648.60         8.5470
   648.74         8.4927
   648.88         8.4287
   649.02         8.3601
   649.16         8.2928
   649.30         8.2328
   649.44         8.1852
   649.58         8.1549
   649.72         8.1450
   649.86         8.1569
   650.00         8.1902
   650.14         8.2426
   650.28         8.3097
   650.42         8.3851
   650.56         8.4622
   650.70         8.5353
   650.84         8.6007
   650.98         8.6569
   651.12         8.7048
   651.26         8.7462
   651.40         8.7827
   651.54         8.8145
   651.68         8.8409
   651.82         8.8613
   651.96         8.8752
   652.10         8.8821
   652.24         8.8818
   652.38         8.8744
   652.52         8.8610
   652.66         8.8429
   652.80         8.8222
   652.94         8.8011
   653.08         8.7817
   653.22         8.7660
   653.36         8.7557
   653.50         8.7515
   653.64         8.7521
   653.78         8.7556
   653.92         8.7598
   654.06         8.7627
   654.20         8.7625
   654.34         8.7579
   654.48         8.7477
   654.62         8.7309
   654.76         8.7064
   654.90         8.6723
   655.04         8.6243
   655.18         8.5571
   655.32         8.4696
   655.46         8.3659
   655.60         8.2539
   655.74         8.1421
   655.88         8.0392
   656.02         7.9527
   656.16         7.8891
   656.30         7.8532
   656.44         7.8485
   656.58         7.8759
   656.72         7.9332
   656.86         8.0147
   657.00         8.1126
   657.14         8.2189
   657.28         8.3253
   657.42         8.4239
   657.56         8.5077
   657.70         8.5738
   657.84         8.6239
   657.98         8.6631
   658.12         8.6947
   658.26         8.7186
   658.40         8.7332
   658.54         8.7377
   658.68         8.7324
   658.82         8.7197
   658.96         8.7029
   659.10         8.6857
   659.24         8.6714
   659.38         8.6621
   659.52         8.6583
   659.66         8.6599
   659.80         8.6661
   659.94         8.6757
   660.08         8.6867
   660.22         8.6973
   660.36         8.7061
   660.50         8.7121
   660.64         8.7144
   660.78         8.7133
   660.92         8.7104
   661.06         8.7081
   661.20         8.7088
   661.34         8.7140
   661.48         8.7240
   661.62         8.7378
   661.76         8.7542
   661.90         8.7705
   662.04         8.7827
   662.18         8.7865
   662.32         8.7790
   662.46         8.7600
   662.60         8.7305
   662.74         8.6931
   662.88         8.6509
   663.02         8.6077
   663.16         8.5671
   663.30         8.5315
   663.44         8.5023
   663.58         8.4804
   663.72         8.4662
   663.86         8.4601
   664.00         8.4621
   664.14         8.4714
   664.28         8.4871
   664.42         8.5078
   664.56         8.5307
   664.70         8.5537
   664.84         8.5754
   664.98         8.5947
   665.12         8.6094
   665.26         8.6166
   665.40         8.6145
   665.54         8.6023
   665.68         8.5800
   665.82         8.5494
   665.96         8.5130
   666.10         8.4748
   666.24         8.4392
   666.38         8.4091
   666.52         8.3857
   666.66         8.3680
   666.80         8.3544
   666.94         8.3436
   667.08         8.3343
   667.22         8.3256
   667.36         8.3176
   667.50         8.3105
   667.64         8.3045
   667.78         8.3008
   667.92         8.3016
   668.06         8.3093
   668.20         8.3247
   668.34         8.3475
   668.48         8.3760
   668.62         8.4075
   668.76         8.4388
   668.90         8.4664
   669.04         8.4874
   669.18         8.5005
   669.32         8.5060
   669.46         8.5056
   669.60         8.5016
   669.74         8.4957
   669.88         8.4892
   670.02         8.4830
   670.16         8.4771
   670.30         8.4710
   670.44         8.4637
   670.58         8.4541
   670.72         8.4409
   670.86         8.4237
   671.00         8.4032
   671.14         8.3807
   671.28         8.3579
   671.42         8.3370
   671.56         8.3193
   671.70         8.3061
   671.84         8.2985
   671.98         8.2977
   672.12         8.3040
   672.26         8.3164
   672.40         8.3332
   672.54         8.3524
   672.68         8.3719
   672.82         8.3902
   672.96         8.4057
   673.10         8.4171
   673.24         8.4238
   673.38         8.4263
   673.52         8.4255
   673.66         8.4222
   673.80         8.4156
   673.94         8.4053
   674.08         8.3915
   674.22         8.3753
   674.36         8.3581
   674.50         8.3421
   674.64         8.3285
   674.78         8.3182
   674.92         8.3122
   675.06         8.3108
   675.20         8.3150
   675.34         8.3252
   675.48         8.3411
   675.62         8.3607
   675.76         8.3814
   675.90         8.4011
   676.04         8.4180
   676.18         8.4304
   676.32         8.4369
   676.46         8.4377
   676.60         8.4343
   676.74         8.4286
   676.88         8.4220
   677.02         8.4154
   677.16         8.4092
   677.30         8.4033
   677.44         8.3983
   677.58         8.3953
   677.72         8.3954
   677.86         8.3995
   678.00         8.4070
   678.14         8.4163
   678.28         8.4254
   678.42         8.4328
   678.56         8.4371
   678.70         8.4380
   678.84         8.4358
   678.98         8.4314
   679.12         8.4250
   679.26         8.4165
   679.40         8.4060
   679.54         8.3934
   679.68         8.3797
   679.82         8.3666
   679.96         8.3557
   680.10         8.3487
   680.24         8.3462
   680.38         8.3482
   680.52         8.3532
   680.66         8.3595
   680.80         8.3654
   680.94         8.3700
   681.08         8.3732
   681.22         8.3749
   681.36         8.3752
   681.50         8.3735
   681.64         8.3696
   681.78         8.3637
   681.92         8.3564
   682.06         8.3486
   682.20         8.3416
   682.34         8.3365
   682.48         8.3335
   682.62         8.3322
   682.76         8.3307
   682.90         8.3264
   683.04         8.3163
   683.18         8.2984
   683.32         8.2722
   683.46         8.2395
   683.60         8.2029
   683.74         8.1654
   683.88         8.1302
   684.02         8.1009
   684.16         8.0806
   684.30         8.0704
   684.44         8.0694
   684.58         8.0754
   684.72         8.0854
   684.86         8.0967
   685.00         8.1064
   685.14         8.1117
   685.28         8.1097
   685.42         8.0967
   685.56         8.0680
   685.70         8.0184
   685.84         7.9440
   685.98         7.8427
   686.12         7.7149
   686.26         7.5639
   686.40         7.3960
   686.54         7.2213
   686.68         7.0511
   686.82         6.8970
   686.96         6.7698
   687.10         6.6794
   687.24         6.6329
   687.38         6.6327
   687.52         6.6758
   687.66         6.7541
   687.80         6.8560
   687.94         6.9677
   688.08         7.0761
   688.22         7.1701
   688.36         7.2438
   688.50         7.2951
   688.64         7.3262
   688.78         7.3412
   688.92         7.3453
   689.06         7.3440
   689.20         7.3423
   689.34         7.3438
   689.48         7.3507
   689.62         7.3635
   689.76         7.3819
   689.90         7.4048
   690.04         7.4309
   690.18         7.4579
   690.32         7.4842
   690.46         7.5091
   690.60         7.5329
   690.74         7.5565
   690.88         7.5803
   691.02         7.6046
   691.16         7.6291
   691.30         7.6533
   691.44         7.6772
   691.58         7.7006
   691.72         7.7234
   691.86         7.7453
   692.00         7.7654
   692.14         7.7825
   692.28         7.7951
   692.42         7.8031
   692.56         7.8076
   692.70         7.8099
   692.84         7.8113
   692.98         7.8140
   693.12         7.8196
   693.26         7.8286
   693.40         7.8405
   693.54         7.8539
   693.68         7.8671
   693.82         7.8789
   693.96         7.8881
   694.10         7.8945
   694.24         7.8984
   694.38         7.8998
   694.52         7.8985
   694.66         7.8945
   694.80         7.8887
   694.94         7.8828
   695.08         7.8789
   695.22         7.8789
   695.36         7.8836
   695.50         7.8931
   695.64         7.9069
   695.78         7.9238
   695.92         7.9423
   696.06         7.9612
   696.20         7.9788
   696.34         7.9939
   696.48         8.0048
   696.62         8.0090
   696.76         8.0047
   696.90         7.9919
   697.04         7.9723
   697.18         7.9497
   697.32         7.9283
   697.46         7.9120
   697.60         7.9036
   697.74         7.9043
   697.88         7.9141
   698.02         7.9318
   698.16         7.9553
   698.30         7.9824
   698.44         8.0112
   698.58         8.0407
   698.72         8.0693
   698.86         8.0944
   699.00         8.1133
   699.14         8.1249
   699.28         8.1292
   699.42         8.1276
   699.56         8.1217
   699.70         8.1132
   699.84         8.1023
   699.98         8.0889
   700.12         8.0733
   700.26         8.0564
   700.40         8.0390
   700.54         8.0223
   700.68         8.0072
   700.82         7.9951
   700.96         7.9864
   701.10         7.9797
   701.24         7.9729
   701.38         7.9631
   701.52         7.9487
   701.66         7.9299
   701.80         7.9088
   701.94         7.8866
   702.08         7.8645
   702.22         7.8440
   702.36         7.8271
   702.50         7.8154
   702.64         7.8095
   702.78         7.8086
   702.92         7.8114
   703.06         7.8174
   703.20         7.8264
   703.34         7.8386
   703.48         7.8537
   703.62         7.8713
   703.76         7.8914
   703.90         7.9144
   704.04         7.9395
   704.18         7.9652
   704.32         7.9904
   704.46         8.0148
   704.60         8.0375
   704.74         8.0578
   704.88         8.0748
   705.02         8.0879
   705.16         8.0967
   705.30         8.1005
   705.44         8.0996
   705.58         8.0945
   705.72         8.0856
   705.86         8.0731
   706.00         8.0574
   706.14         8.0391
   706.28         8.0184
   706.42         7.9958
   706.56         7.9718
   706.70         7.9475
   706.84         7.9250
   706.98         7.9069
   707.12         7.8948
   707.26         7.8878
   707.40         7.8839
   707.54         7.8810
   707.68         7.8779
   707.82         7.8734
   707.96         7.8665
   708.10         7.8569
   708.24         7.8449
   708.38         7.8319
   708.52         7.8196
   708.66         7.8097
   708.80         7.8042
   708.94         7.8044
   709.08         7.8113
   709.22         7.8253
   709.36         7.8455
   709.50         7.8702
   709.64         7.8966
   709.78         7.9217
   709.92         7.9426
   710.06         7.9579
   710.20         7.9679
   710.34         7.9734
   710.48         7.9754
   710.62         7.9750
   710.76         7.9732
   710.90         7.9707
   711.04         7.9677
   711.18         7.9638
   711.32         7.9583
   711.46         7.9513
   711.60         7.9426
   711.74         7.9322
   711.88         7.9198
   712.02         7.9050
   712.16         7.8877
   712.30         7.8695
   712.44         7.8535
   712.58         7.8424
   712.72         7.8381
   712.86         7.8416
   713.00         7.8527
   713.14         7.8699
   713.28         7.8900
   713.42         7.9098
   713.56         7.9266
   713.70         7.9375
   713.84         7.9398
   713.98         7.9332
   714.12         7.9191
   714.26         7.8992
   714.40         7.8753
   714.54         7.8507
   714.68         7.8298
   714.82         7.8172
   714.96         7.8164
   715.10         7.8279
   715.24         7.8489
   715.38         7.8743
   715.52         7.8985
   715.66         7.9169
   715.80         7.9255
   715.94         7.9218
   716.08         7.9057
   716.22         7.8781
   716.36         7.8417
   716.50         7.8003
   716.64         7.7586
   716.78         7.7210
   716.92         7.6897
   717.06         7.6655
   717.20         7.6483
   717.34         7.6357
   717.48         7.6226
   717.62         7.6038
   717.76         7.5751
   717.90         7.5352
   718.04         7.4850
   718.18         7.4277
   718.32         7.3679
   718.46         7.3100
   718.60         7.2590
   718.74         7.2192
   718.88         7.1926
   719.02         7.1790
   719.16         7.1780
   719.30         7.1881
   719.44         7.2062
   719.58         7.2286
   719.72         7.2525
   719.86         7.2767
   720.00         7.3005
   720.14         7.3252
   720.28         7.3536
   720.42         7.3883
   720.56         7.4305
   720.70         7.4798
   720.84         7.5345
   720.98         7.5928
   721.12         7.6525
   721.26         7.7099
   721.40         7.7608
   721.54         7.8017
   721.68         7.8310
   721.82         7.8488
   721.96         7.8556
   722.10         7.8518
   722.24         7.8389
   722.38         7.8200
   722.52         7.7991
   722.66         7.7799
   722.80         7.7642
   722.94         7.7520
   723.08         7.7427
   723.22         7.7346
   723.36         7.7261
   723.50         7.7171
   723.64         7.7084
   723.78         7.7004
   723.92         7.6932
   724.06         7.6857
   724.20         7.6770
   724.34         7.6675
   724.48         7.6593
   724.62         7.6551
   724.76         7.6572
   724.90         7.6669
   725.04         7.6844
   725.18         7.7081
   725.32         7.7342
   725.46         7.7586
   725.60         7.7788
   725.74         7.7934
   725.88         7.8014
   726.02         7.8023
   726.16         7.7960
   726.30         7.7811
   726.44         7.7567
   726.58         7.7234
   726.72         7.6838
   726.86         7.6430
   727.00         7.6056
   727.14         7.5745
   727.28         7.5498
   727.42         7.5303
   727.56         7.5140
   727.70         7.4979
   727.84         7.4789
   727.98         7.4548
   728.12         7.4250
   728.26         7.3909
   728.40         7.3554
   728.54         7.3216
   728.68         7.2925
   728.82         7.2705
   728.96         7.2577
   729.10         7.2559
   729.24         7.2659
   729.38         7.2871
   729.52         7.3167
   729.66         7.3497
   729.80         7.3805
   729.94         7.4050
   730.08         7.4202
   730.22         7.4245
   730.36         7.4177
   730.50         7.4018
   730.64         7.3805
   730.78         7.3583
   730.92         7.3398
   731.06         7.3276
   731.20         7.3223
   731.34         7.3225
   731.48         7.3270
   731.62         7.3348
   731.76         7.3448
   731.90         7.3548
   732.04         7.3624
   732.18         7.3652
   732.32         7.3620
   732.46         7.3543
   732.60         7.3451
   732.74         7.3374
   732.88         7.3322
   733.02         7.3303
   733.16         7.3327
   733.30         7.3407
   733.44         7.3555
   733.58         7.3771
   733.72         7.4038
   733.86         7.4333
   734.00         7.4627
   734.14         7.4893
   734.28         7.5099
   734.42         7.5212
   734.56         7.5214
   734.70         7.5112
   734.84         7.4925
   734.98         7.4679
   735.12         7.4402
   735.26         7.4117
   735.40         7.3843
   735.54         7.3599
   735.68         7.3402
   735.82         7.3270
   735.96         7.3206
   736.10         7.3196
   736.24         7.3221
   736.38         7.3255
   736.52         7.3274
   736.66         7.3261
   736.80         7.3217
   736.94         7.3153
   737.08         7.3086
   737.22         7.3025
   737.36         7.2965
   737.50         7.2884
   737.64         7.2754
   737.78         7.2554
   737.92         7.2280
   738.06         7.1935
   738.20         7.1527
   738.34         7.1079
   738.48         7.0627
   738.62         7.0206
   738.76         6.9845
   738.90         6.9560
   739.04         6.9359
   739.18         6.9245
   739.32         6.9218
   739.46         6.9260
   739.60         6.9339
   739.74         6.9416
   739.88         6.9454
   740.02         6.9434
   740.16         6.9362
   740.30         6.9259
   740.44         6.9156
   740.58         6.9087
   740.72         6.9080
   740.86         6.9155
   741.00         6.9317
   741.14         6.9547
   741.28         6.9805
   741.42         7.0046
   741.56         7.0239
   741.70         7.0375
   741.84         7.0449
   741.98         7.0449
   742.12         7.0371
   742.26         7.0229
   742.40         7.0050
   742.54         6.9870
   742.68         6.9727
   742.82         6.9650
   742.96         6.9650
   743.10         6.9727
   743.24         6.9870
   743.38         7.0050
   743.52         7.0229
   743.66         7.0371
   743.80         7.0449
   743.94         7.0449
   744.08         7.0375
   744.22         7.0239
