# File SAO57199
# Wavelength [nm]    Normalized Amplitude
   349.70         5.7631
   349.84         5.7536
   349.98         5.7569
   350.12         5.7710
   350.26         5.7928
   350.40         5.8194
   350.54         5.8481
   350.68         5.8771
   350.82         5.9038
   350.96         5.9233
   351.10         5.9306
   351.24         5.9233
   351.38         5.9038
   351.52         5.8771
   351.66         5.8481
   351.80         5.8194
   351.94         5.7928
   352.08         5.7710
   352.22         5.7569
   352.36         5.7536
   352.50         5.7631
   352.64         5.7859
   352.78         5.8209
   352.92         5.8671
   353.06         5.9230
   353.20         5.9857
   353.34         6.0505
   353.48         6.1125
   353.62         6.1686
   353.76         6.2185
   353.90         6.2639
   354.04         6.3061
   354.18         6.3448
   354.32         6.3783
   354.46         6.4058
   354.60         6.4269
   354.74         6.4406
   354.88         6.4452
   355.02         6.4391
   355.16         6.4216
   355.30         6.3925
   355.44         6.3519
   355.58         6.3000
   355.72         6.2369
   355.86         6.1628
   356.00         6.0799
   356.14         5.9915
   356.28         5.9009
   356.42         5.8129
   356.56         5.7328
   356.70         5.6658
   356.84         5.6155
   356.98         5.5831
   357.12         5.5672
   357.26         5.5646
   357.40         5.5688
   357.54         5.5725
   357.68         5.5698
   357.82         5.5578
   357.96         5.5353
   358.10         5.5034
   358.24         5.4661
   358.38         5.4297
   358.52         5.4031
   358.66         5.3951
   358.80         5.4121
   358.94         5.4571
   359.08         5.5290
   359.22         5.6220
   359.36         5.7270
   359.50         5.8331
   359.64         5.9296
   359.78         6.0082
   359.92         6.0619
   360.06         6.0866
   360.20         6.0819
   360.34         6.0526
   360.48         6.0053
   360.62         5.9475
   360.76         5.8859
   360.90         5.8266
   361.04         5.7751
   361.18         5.7358
   361.32         5.7109
   361.46         5.7011
   361.60         5.7072
   361.74         5.7307
   361.88         5.7709
   362.02         5.8231
   362.16         5.8793
   362.30         5.9306
   362.44         5.9704
   362.58         5.9953
   362.72         6.0039
   362.86         5.9975
   363.00         5.9785
   363.14         5.9503
   363.28         5.9168
   363.42         5.8820
   363.56         5.8504
   363.70         5.8263
   363.84         5.8118
   363.98         5.8071
   364.12         5.8126
   364.26         5.8288
   364.40         5.8551
   364.54         5.8893
   364.68         5.9302
   364.82         5.9790
   364.96         6.0391
   365.10         6.1129
   365.24         6.1985
   365.38         6.2909
   365.52         6.3847
   365.66         6.4740
   365.80         6.5525
   365.94         6.6144
   366.08         6.6562
   366.22         6.6774
   366.36         6.6798
   366.50         6.6660
   366.64         6.6405
   366.78         6.6089
   366.92         6.5755
   367.06         6.5427
   367.20         6.5114
   367.34         6.4815
   367.48         6.4521
   367.62         6.4220
   367.76         6.3901
   367.90         6.3569
   368.04         6.3257
   368.18         6.3007
   368.32         6.2851
   368.46         6.2804
   368.60         6.2884
   368.74         6.3110
   368.88         6.3489
   369.02         6.4013
   369.16         6.4649
   369.30         6.5334
   369.44         6.5988
   369.58         6.6529
   369.72         6.6891
   369.86         6.7036
   370.00         6.6969
   370.14         6.6727
   370.28         6.6379
   370.42         6.6009
   370.56         6.5710
   370.70         6.5550
   370.84         6.5552
   370.98         6.5689
   371.12         6.5906
   371.26         6.6148
   371.40         6.6363
   371.54         6.6515
   371.68         6.6585
   371.82         6.6564
   371.96         6.6459
   372.10         6.6289
   372.24         6.6066
   372.38         6.5782
   372.52         6.5427
   372.66         6.5009
   372.80         6.4553
   372.94         6.4100
   373.08         6.3693
   373.22         6.3359
   373.36         6.3093
   373.50         6.2867
   373.64         6.2656
   373.78         6.2443
   373.92         6.2218
   374.06         6.1982
   374.20         6.1760
   374.34         6.1590
   374.48         6.1512
   374.62         6.1545
   374.76         6.1686
   374.90         6.1928
   375.04         6.2294
   375.18         6.2841
   375.32         6.3625
   375.46         6.4654
   375.60         6.5872
   375.74         6.7156
   375.88         6.8347
   376.02         6.9297
   376.16         6.9906
   376.30         7.0148
   376.44         7.0074
   376.58         6.9808
   376.72         6.9522
   376.86         6.9389
   377.00         6.9552
   377.14         7.0106
   377.28         7.1087
   377.42         7.2479
   377.56         7.4224
   377.70         7.6233
   377.84         7.8373
   377.98         8.0468
   378.12         8.2322
   378.26         8.3756
   378.40         8.4623
   378.54         8.4832
   378.68         8.4355
   378.82         8.3242
   378.96         8.1614
   379.10         7.9656
   379.24         7.7590
   379.38         7.5648
   379.52         7.4043
   379.66         7.2947
   379.80         7.2475
   379.94         7.2674
   380.08         7.3529
   380.22         7.4962
   380.36         7.6841
   380.50         7.8985
   380.64         8.1197
   380.78         8.3291
   380.92         8.5095
   381.06         8.6470
   381.20         8.7331
   381.34         8.7665
   381.48         8.7509
   381.62         8.6927
   381.76         8.5990
   381.90         8.4763
   382.04         8.3291
   382.18         8.1591
   382.32         7.9666
   382.46         7.7524
   382.60         7.5186
   382.74         7.2693
   382.88         7.0114
   383.02         6.7565
   383.16         6.5208
   383.30         6.3234
   383.44         6.1818
   383.58         6.1102
   383.72         6.1182
   383.86         6.2101
   384.00         6.3820
   384.14         6.6232
   384.28         6.9183
   384.42         7.2488
   384.56         7.5943
   384.70         7.9326
   384.84         8.2424
   384.98         8.5076
   385.12         8.7205
   385.26         8.8814
   385.40         8.9964
   385.54         9.0745
   385.68         9.1264
   385.82         9.1629
   385.96         9.1918
   386.10         9.2166
   386.24         9.2372
   386.38         9.2521
   386.52         9.2596
   386.66         9.2571
   386.80         9.2415
   386.94         9.2105
   387.08         9.1626
   387.22         9.0961
   387.36         9.0097
   387.50         8.9024
   387.64         8.7729
   387.78         8.6199
   387.92         8.4423
   388.06         8.2414
   388.20         8.0231
   388.34         7.7974
   388.48         7.5770
   388.62         7.3755
   388.76         7.2078
   388.90         7.0880
   389.04         7.0280
   389.18         7.0341
   389.32         7.1047
   389.46         7.2321
   389.60         7.4041
   389.74         7.6063
   389.88         7.8228
   390.02         8.0381
   390.16         8.2391
   390.30         8.4170
   390.44         8.5683
   390.58         8.6939
   390.72         8.7968
   390.86         8.8792
   391.00         8.9414
   391.14         8.9838
   391.28         9.0065
   391.42         9.0091
   391.56         8.9888
   391.70         8.9407
   391.84         8.8566
   391.98         8.7252
   392.12         8.5352
   392.26         8.2783
   392.40         7.9519
   392.54         7.5611
   392.68         7.1205
   392.82         6.6541
   392.96         6.1931
   393.10         5.7708
   393.24         5.4192
   393.38         5.1658
   393.52         5.0311
   393.66         5.0270
   393.80         5.1540
   393.94         5.4013
   394.08         5.7481
   394.22         6.1640
   394.36         6.6136
   394.50         7.0613
   394.64         7.4767
   394.78         7.8379
   394.92         8.1322
   395.06         8.3532
   395.20         8.4984
   395.34         8.5661
   395.48         8.5534
   395.62         8.4552
   395.76         8.2665
   395.90         7.9878
   396.04         7.6286
   396.18         7.2101
   396.32         6.7617
   396.46         6.3183
   396.60         5.9170
   396.74         5.5926
   396.88         5.3730
   397.02         5.2783
   397.16         5.3183
   397.30         5.4906
   397.44         5.7810
   397.58         6.1647
   397.72         6.6108
   397.86         7.0867
   398.00         7.5617
   398.14         8.0099
   398.28         8.4128
   398.42         8.7609
   398.56         9.0525
   398.70         9.2923
   398.84         9.4871
   398.98         9.6443
   399.12         9.7706
   399.26         9.8717
   399.40         9.9503
   399.54         10.0074
   399.68         10.0447
   399.82         10.0653
   399.96         10.0734
   400.10         10.0737
   400.24         10.0718
   400.38         10.0722
   400.52         10.0782
   400.66         10.0915
   400.80         10.1129
   400.94         10.1420
   401.08         10.1785
   401.22         10.2216
   401.36         10.2707
   401.50         10.3258
   401.64         10.3863
   401.78         10.4492
   401.92         10.5080
   402.06         10.5550
   402.20         10.5844
   402.34         10.5946
   402.48         10.5865
   402.62         10.5639
   402.76         10.5320
   402.90         10.4962
   403.04         10.4607
   403.18         10.4289
   403.32         10.4033
   403.46         10.3841
   403.60         10.3705
   403.74         10.3614
   403.88         10.3556
   404.02         10.3524
   404.16         10.3506
   404.30         10.3468
   404.44         10.3371
   404.58         10.3190
   404.72         10.2933
   404.86         10.2646
   405.00         10.2389
   405.14         10.2206
   405.28         10.2101
   405.42         10.2037
   405.56         10.1965
   405.70         10.1854
   405.84         10.1696
   405.98         10.1502
   406.12         10.1287
   406.26         10.1079
   406.40         10.0897
   406.54         10.0731
   406.68         10.0540
   406.82         10.0280
   406.96         9.9934
   407.10         9.9520
   407.24         9.9066
   407.38         9.8600
   407.52         9.8152
   407.66         9.7755
   407.80         9.7442
   407.94         9.7246
   408.08         9.7192
   408.22         9.7284
   408.36         9.7491
   408.50         9.7739
   408.64         9.7922
   408.78         9.7911
   408.92         9.7566
   409.06         9.6753
   409.20         9.5393
   409.34         9.3507
   409.48         9.1223
   409.62         8.8726
   409.76         8.6223
   409.90         8.3922
   410.04         8.2022
   410.18         8.0703
   410.32         8.0107
   410.46         8.0302
   410.60         8.1270
   410.74         8.2912
   410.88         8.5066
   411.02         8.7528
   411.16         9.0088
   411.30         9.2546
   411.44         9.4743
   411.58         9.6566
   411.72         9.7973
   411.86         9.8992
   412.00         9.9691
   412.14         10.0131
   412.28         10.0357
   412.42         10.0415
   412.56         10.0368
   412.70         10.0296
   412.84         10.0291
   412.98         10.0424
   413.12         10.0722
   413.26         10.1169
   413.40         10.1731
   413.54         10.2377
   413.68         10.3072
   413.82         10.3782
   413.96         10.4474
   414.10         10.5110
   414.24         10.5640
   414.38         10.6016
   414.52         10.6197
   414.66         10.6166
   414.80         10.5934
   414.94         10.5549
   415.08         10.5095
   415.22         10.4667
   415.36         10.4356
   415.50         10.4213
   415.64         10.4247
   415.78         10.4443
   415.92         10.4771
   416.06         10.5184
   416.20         10.5604
   416.34         10.5931
   416.48         10.6084
   416.62         10.6008
   416.76         10.5678
   416.90         10.5113
   417.04         10.4371
   417.18         10.3535
   417.32         10.2703
   417.46         10.1974
   417.60         10.1417
   417.74         10.1069
   417.88         10.0933
   418.02         10.0980
   418.16         10.1164
   418.30         10.1435
   418.44         10.1743
   418.58         10.2029
   418.72         10.2230
   418.86         10.2311
   419.00         10.2273
   419.14         10.2136
   419.28         10.1929
   419.42         10.1681
   419.56         10.1418
   419.70         10.1160
   419.84         10.0929
   419.98         10.0760
   420.12         10.0688
   420.26         10.0742
   420.40         10.0941
   420.54         10.1295
   420.68         10.1795
   420.82         10.2416
   420.96         10.3117
   421.10         10.3844
   421.24         10.4534
   421.38         10.5119
   421.52         10.5525
   421.66         10.5677
   421.80         10.5543
   421.94         10.5144
   422.08         10.4541
   422.22         10.3811
   422.36         10.3033
   422.50         10.2275
   422.64         10.1591
   422.78         10.1018
   422.92         10.0585
   423.06         10.0307
   423.20         10.0192
   423.34         10.0234
   423.48         10.0406
   423.62         10.0657
   423.76         10.0919
   423.90         10.1120
   424.04         10.1210
   424.18         10.1183
   424.32         10.1083
   424.46         10.0981
   424.60         10.0932
   424.74         10.0954
   424.88         10.1022
   425.02         10.1102
   425.16         10.1174
   425.30         10.1244
   425.44         10.1331
   425.58         10.1453
   425.72         10.1617
   425.86         10.1809
   426.00         10.1988
   426.14         10.2101
   426.28         10.2113
   426.42         10.2012
   426.56         10.1814
   426.70         10.1554
   426.84         10.1276
   426.98         10.1014
   427.12         10.0785
   427.26         10.0596
   427.40         10.0443
   427.54         10.0320
   427.68         10.0215
   427.82         10.0118
   427.96         9.9993
   428.10         9.9795
   428.24         9.9487
   428.38         9.9053
   428.52         9.8480
   428.66         9.7766
   428.80         9.6923
   428.94         9.5976
   429.08         9.4957
   429.22         9.3900
   429.36         9.2834
   429.50         9.1780
   429.64         9.0752
   429.78         8.9752
   429.92         8.8791
   430.06         8.7887
   430.20         8.7071
   430.34         8.6387
   430.48         8.5893
   430.62         8.5671
   430.76         8.5809
   430.90         8.6368
   431.04         8.7350
   431.18         8.8690
   431.32         9.0270
   431.46         9.1941
   431.60         9.3561
   431.74         9.5018
   431.88         9.6228
   432.02         9.7129
   432.16         9.7687
   432.30         9.7899
   432.44         9.7778
   432.58         9.7349
   432.72         9.6628
   432.86         9.5611
   433.00         9.4284
   433.14         9.2652
   433.28         9.0761
   433.42         8.8692
   433.56         8.6554
   433.70         8.4483
   433.84         8.2630
   433.98         8.1145
   434.12         8.0162
   434.26         7.9793
   434.40         8.0105
   434.54         8.1100
   434.68         8.2717
   434.82         8.4836
   434.96         8.7295
   435.10         8.9905
   435.24         9.2490
   435.38         9.4900
   435.52         9.7042
   435.66         9.8886
   435.80         10.0452
   435.94         10.1784
   436.08         10.2926
   436.22         10.3902
   436.36         10.4711
   436.50         10.5327
   436.64         10.5723
   436.78         10.5897
   436.92         10.5876
   437.06         10.5705
   437.20         10.5414
   437.34         10.5005
   437.48         10.4470
   437.62         10.3824
   437.76         10.3107
   437.90         10.2374
   438.04         10.1679
   438.18         10.1075
   438.32         10.0603
   438.46         10.0294
   438.60         10.0176
   438.74         10.0263
   438.88         10.0540
   439.02         10.0964
   439.16         10.1487
   439.30         10.2068
   439.44         10.2666
   439.58         10.3234
   439.72         10.3722
   439.86         10.4086
   440.00         10.4312
   440.14         10.4439
   440.28         10.4522
   440.42         10.4594
   440.56         10.4658
   440.70         10.4704
   440.84         10.4737
   440.98         10.4764
   441.12         10.4790
   441.26         10.4811
   441.40         10.4823
   441.54         10.4821
   441.68         10.4819
   441.82         10.4842
   441.96         10.4910
   442.10         10.5025
   442.24         10.5178
   442.38         10.5342
   442.52         10.5484
   442.66         10.5594
   442.80         10.5670
   442.94         10.5708
   443.08         10.5699
   443.22         10.5633
   443.36         10.5515
   443.50         10.5350
   443.64         10.5141
   443.78         10.4895
   443.92         10.4641
   444.06         10.4412
   444.20         10.4233
   444.34         10.4114
   444.48         10.4037
   444.62         10.3974
   444.76         10.3900
   444.90         10.3795
   445.04         10.3644
   445.18         10.3448
   445.32         10.3220
   445.46         10.2972
   445.60         10.2708
   445.74         10.2426
   445.88         10.2136
   446.02         10.1865
   446.16         10.1655
   446.30         10.1548
   446.44         10.1576
   446.58         10.1757
   446.72         10.2087
   446.86         10.2542
   447.00         10.3072
   447.14         10.3621
   447.28         10.4148
   447.42         10.4636
   447.56         10.5079
   447.70         10.5477
   447.84         10.5818
   447.98         10.6085
   448.12         10.6255
   448.26         10.6316
   448.40         10.6273
   448.54         10.6147
   448.68         10.5974
   448.82         10.5792
   448.96         10.5635
   449.10         10.5527
   449.24         10.5496
   449.38         10.5570
   449.52         10.5766
   449.66         10.6091
   449.80         10.6554
   449.94         10.7153
   450.08         10.7868
   450.22         10.8648
   450.36         10.9422
   450.50         11.0116
   450.64         11.0668
   450.78         11.1044
   450.92         11.1237
   451.06         11.1253
   451.20         11.1103
   451.34         11.0802
   451.48         11.0373
   451.62         10.9838
   451.76         10.9227
   451.90         10.8569
   452.04         10.7873
   452.18         10.7139
   452.32         10.6361
   452.46         10.5546
   452.60         10.4725
   452.74         10.3945
   452.88         10.3254
   453.02         10.2695
   453.16         10.2300
   453.30         10.2085
   453.44         10.2045
   453.58         10.2158
   453.72         10.2372
   453.86         10.2621
   454.00         10.2842
   454.14         10.2988
   454.28         10.3023
   454.42         10.2932
   454.56         10.2726
   454.70         10.2448
   454.84         10.2164
   454.98         10.1946
   455.12         10.1864
   455.26         10.1967
   455.40         10.2262
   455.54         10.2719
   455.68         10.3298
   455.82         10.3958
   455.96         10.4652
   456.10         10.5330
   456.24         10.5950
   456.38         10.6484
   456.52         10.6924
   456.66         10.7275
   456.80         10.7535
   456.94         10.7695
   457.08         10.7743
   457.22         10.7668
   457.36         10.7466
   457.50         10.7130
   457.64         10.6660
   457.78         10.6078
   457.92         10.5424
   458.06         10.4747
   458.20         10.4105
   458.34         10.3548
   458.48         10.3110
   458.62         10.2807
   458.76         10.2643
   458.90         10.2617
   459.04         10.2714
   459.18         10.2904
   459.32         10.3151
   459.46         10.3418
   459.60         10.3673
   459.74         10.3896
   459.88         10.4091
   460.02         10.4274
   460.16         10.4459
   460.30         10.4644
   460.44         10.4825
   460.58         10.4996
   460.72         10.5147
   460.86         10.5269
   461.00         10.5356
   461.14         10.5417
   461.28         10.5471
   461.42         10.5530
   461.56         10.5597
   461.70         10.5667
   461.84         10.5740
   461.98         10.5810
   462.12         10.5867
   462.26         10.5897
   462.40         10.5896
   462.54         10.5858
   462.68         10.5774
   462.82         10.5637
   462.96         10.5452
   463.10         10.5239
   463.24         10.5020
   463.38         10.4816
   463.52         10.4649
   463.66         10.4530
   463.80         10.4460
   463.94         10.4420
   464.08         10.4389
   464.22         10.4350
   464.36         10.4289
   464.50         10.4201
   464.64         10.4089
   464.78         10.3968
   464.92         10.3872
   465.06         10.3833
   465.20         10.3872
   465.34         10.3990
   465.48         10.4172
   465.62         10.4379
   465.76         10.4559
   465.90         10.4670
   466.04         10.4691
   466.18         10.4622
   466.32         10.4474
   466.46         10.4280
   466.60         10.4090
   466.74         10.3955
   466.88         10.3903
   467.02         10.3940
   467.16         10.4071
   467.30         10.4296
   467.44         10.4605
   467.58         10.4963
   467.72         10.5315
   467.86         10.5604
   468.00         10.5795
   468.14         10.5870
   468.28         10.5843
   468.42         10.5759
   468.56         10.5676
   468.70         10.5632
   468.84         10.5642
   468.98         10.5697
   469.12         10.5769
   469.26         10.5817
   469.40         10.5800
   469.54         10.5700
   469.68         10.5520
   469.82         10.5264
   469.96         10.4932
   470.10         10.4532
   470.24         10.4086
   470.38         10.3628
   470.52         10.3196
   470.66         10.2819
   470.80         10.2516
   470.94         10.2307
   471.08         10.2200
   471.22         10.2189
   471.36         10.2259
   471.50         10.2395
   471.64         10.2586
   471.78         10.2809
   471.92         10.3040
   472.06         10.3255
   472.20         10.3438
   472.34         10.3564
   472.48         10.3615
   472.62         10.3583
   472.76         10.3471
   472.90         10.3290
   473.04         10.3062
   473.18         10.2817
   473.32         10.2596
   473.46         10.2435
   473.60         10.2362
   473.74         10.2389
   473.88         10.2511
   474.02         10.2706
   474.16         10.2946
   474.30         10.3196
   474.44         10.3416
   474.58         10.3567
   474.72         10.3633
   474.86         10.3613
   475.00         10.3514
   475.14         10.3339
   475.28         10.3089
   475.42         10.2776
   475.56         10.2432
   475.70         10.2092
   475.84         10.1788
   475.98         10.1537
   476.12         10.1345
   476.26         10.1221
   476.40         10.1171
   476.54         10.1205
   476.68         10.1331
   476.82         10.1545
   476.96         10.1829
   477.10         10.2153
   477.24         10.2490
   477.38         10.2810
   477.52         10.3073
   477.66         10.3228
   477.80         10.3234
   477.94         10.3085
   478.08         10.2810
   478.22         10.2461
   478.36         10.2087
   478.50         10.1737
   478.64         10.1458
   478.78         10.1278
   478.92         10.1209
   479.06         10.1246
   479.20         10.1372
   479.34         10.1552
   479.48         10.1751
   479.62         10.1931
   479.76         10.2063
   479.90         10.2137
   480.04         10.2151
   480.18         10.2106
   480.32         10.2013
   480.46         10.1895
   480.60         10.1786
   480.74         10.1710
   480.88         10.1685
   481.02         10.1719
   481.16         10.1802
   481.30         10.1905
   481.44         10.1993
   481.58         10.2043
   481.72         10.2042
   481.86         10.1984
   482.00         10.1870
   482.14         10.1710
   482.28         10.1515
   482.42         10.1304
   482.56         10.1094
   482.70         10.0892
   482.84         10.0702
   482.98         10.0531
   483.12         10.0394
   483.26         10.0301
   483.40         10.0247
   483.54         10.0216
   483.68         10.0170
   483.82         10.0062
   483.96         9.9861
   484.10         9.9558
   484.24         9.9151
   484.38         9.8628
   484.52         9.7975
   484.66         9.7181
   484.80         9.6225
   484.94         9.5055
   485.08         9.3612
   485.22         9.1856
   485.36         8.9808
   485.50         8.7555
   485.64         8.5234
   485.78         8.3011
   485.92         8.1045
   486.06         7.9475
   486.20         7.8397
   486.34         7.7870
   486.48         7.7921
   486.62         7.8532
   486.76         7.9634
   486.90         8.1119
   487.04         8.2857
   487.18         8.4720
   487.32         8.6580
   487.46         8.8313
   487.60         8.9828
   487.74         9.1090
   487.88         9.2123
   488.02         9.2976
   488.16         9.3688
   488.30         9.4285
   488.44         9.4778
   488.58         9.5175
   488.72         9.5496
   488.86         9.5770
   489.00         9.6041
   489.14         9.6347
   489.28         9.6712
   489.42         9.7149
   489.56         9.7667
   489.70         9.8246
   489.84         9.8833
   489.98         9.9363
   490.12         9.9773
   490.26         10.0022
   490.40         10.0105
   490.54         10.0048
   490.68         9.9887
   490.82         9.9656
   490.96         9.9377
   491.10         9.9055
   491.24         9.8698
   491.38         9.8320
   491.52         9.7941
   491.66         9.7587
   491.80         9.7281
   491.94         9.7044
   492.08         9.6907
   492.22         9.6889
   492.36         9.6985
   492.50         9.7175
   492.64         9.7438
   492.78         9.7750
   492.92         9.8077
   493.06         9.8383
   493.20         9.8626
   493.34         9.8766
   493.48         9.8783
   493.62         9.8682
   493.76         9.8496
   493.90         9.8281
   494.04         9.8107
   494.18         9.8026
   494.32         9.8069
   494.46         9.8239
   494.60         9.8515
   494.74         9.8848
   494.88         9.9166
   495.02         9.9398
   495.16         9.9503
   495.30         9.9478
   495.44         9.9346
   495.58         9.9132
   495.72         9.8872
   495.86         9.8600
   496.00         9.8345
   496.14         9.8123
   496.28         9.7946
   496.42         9.7824
   496.56         9.7773
   496.70         9.7790
   496.84         9.7848
   496.98         9.7921
   497.12         9.7983
   497.26         9.8001
   497.40         9.7939
   497.54         9.7776
   497.68         9.7519
   497.82         9.7205
   497.96         9.6880
   498.10         9.6576
   498.24         9.6319
   498.38         9.6136
   498.52         9.6050
   498.66         9.6075
   498.80         9.6213
   498.94         9.6466
   499.08         9.6820
   499.22         9.7233
   499.36         9.7643
   499.50         9.7989
   499.64         9.8223
   499.78         9.8304
   499.92         9.8215
   500.06         9.7974
   500.20         9.7625
   500.34         9.7215
   500.48         9.6771
   500.62         9.6305
   500.76         9.5816
   500.90         9.5311
   501.04         9.4798
   501.18         9.4293
   501.32         9.3815
   501.46         9.3392
   501.60         9.3047
   501.74         9.2792
   501.88         9.2636
   502.02         9.2590
   502.16         9.2662
   502.30         9.2858
   502.44         9.3176
   502.58         9.3597
   502.72         9.4085
   502.86         9.4590
   503.00         9.5049
   503.14         9.5407
   503.28         9.5629
   503.42         9.5711
   503.56         9.5677
   503.70         9.5567
   503.84         9.5419
   503.98         9.5269
   504.12         9.5146
   504.26         9.5068
   504.40         9.5041
   504.54         9.5067
   504.68         9.5148
   504.82         9.5288
   504.96         9.5491
   505.10         9.5752
   505.24         9.6053
   505.38         9.6368
   505.52         9.6669
   505.66         9.6928
   505.80         9.7128
   505.94         9.7272
   506.08         9.7375
   506.22         9.7450
   506.36         9.7487
   506.50         9.7466
   506.64         9.7381
   506.78         9.7239
   506.92         9.7045
   507.06         9.6799
   507.20         9.6497
   507.34         9.6145
   507.48         9.5755
   507.62         9.5353
   507.76         9.4972
   507.90         9.4643
   508.04         9.4396
   508.18         9.4253
   508.32         9.4231
   508.46         9.4335
   508.60         9.4558
   508.74         9.4874
   508.88         9.5236
   509.02         9.5589
   509.16         9.5892
   509.30         9.6124
   509.44         9.6266
   509.58         9.6308
   509.72         9.6260
   509.86         9.6150
   510.00         9.6014
   510.14         9.5889
   510.28         9.5810
   510.42         9.5794
   510.56         9.5840
   510.70         9.5935
   510.84         9.6064
   510.98         9.6205
   511.12         9.6334
   511.26         9.6432
   511.40         9.6480
   511.54         9.6460
   511.68         9.6367
   511.82         9.6197
   511.96         9.5957
   512.10         9.5661
   512.24         9.5323
   512.38         9.4963
   512.52         9.4602
   512.66         9.4272
   512.80         9.3999
   512.94         9.3790
   513.08         9.3635
   513.22         9.3515
   513.36         9.3406
   513.50         9.3292
   513.64         9.3163
   513.78         9.3020
   513.92         9.2875
   514.06         9.2741
   514.20         9.2626
   514.34         9.2532
   514.48         9.2471
   514.62         9.2459
   514.76         9.2503
   514.90         9.2596
   515.04         9.2733
   515.18         9.2902
   515.32         9.3072
   515.46         9.3195
   515.60         9.3223
   515.74         9.3104
   515.88         9.2790
   516.02         9.2262
   516.16         9.1528
   516.30         9.0612
   516.44         8.9566
   516.58         8.8470
   516.72         8.7419
   516.86         8.6504
   517.00         8.5815
   517.14         8.5417
   517.28         8.5324
   517.42         8.5489
   517.56         8.5835
   517.70         8.6286
   517.84         8.6763
   517.98         8.7197
   518.12         8.7537
   518.26         8.7756
   518.40         8.7855
   518.54         8.7868
   518.68         8.7841
   518.82         8.7813
   518.96         8.7830
   519.10         8.7938
   519.24         8.8156
   519.38         8.8462
   519.52         8.8806
   519.66         8.9138
   519.80         8.9419
   519.94         8.9622
   520.08         8.9751
   520.22         8.9848
   520.36         8.9961
   520.50         9.0113
   520.64         9.0309
   520.78         9.0541
   520.92         9.0793
   521.06         9.1057
   521.20         9.1320
   521.34         9.1563
   521.48         9.1763
   521.62         9.1893
   521.76         9.1915
   521.90         9.1797
   522.04         9.1536
   522.18         9.1162
   522.32         9.0726
   522.46         9.0275
   522.60         8.9856
   522.74         8.9519
   522.88         8.9304
   523.02         8.9232
   523.16         8.9310
   523.30         8.9537
   523.44         8.9896
   523.58         9.0360
   523.72         9.0891
   523.86         9.1435
   524.00         9.1929
   524.14         9.2325
   524.28         9.2594
   524.42         9.2733
   524.56         9.2759
   524.70         9.2714
   524.84         9.2642
   524.98         9.2567
   525.12         9.2495
   525.26         9.2418
   525.40         9.2309
   525.54         9.2128
   525.68         9.1837
   525.82         9.1417
   525.96         9.0857
   526.10         9.0164
   526.24         8.9364
   526.38         8.8497
   526.52         8.7612
   526.66         8.6770
   526.80         8.6043
   526.94         8.5492
   527.08         8.5158
   527.22         8.5057
   527.36         8.5173
   527.50         8.5460
   527.64         8.5863
   527.78         8.6335
   527.92         8.6848
   528.06         8.7384
   528.20         8.7934
   528.34         8.8491
   528.48         8.9046
   528.62         8.9577
   528.76         9.0061
   528.90         9.0478
   529.04         9.0813
   529.18         9.1055
   529.32         9.1200
   529.46         9.1249
   529.60         9.1208
   529.74         9.1086
   529.88         9.0900
   530.02         9.0686
   530.16         9.0488
   530.30         9.0344
   530.44         9.0274
   530.58         9.0274
   530.72         9.0317
   530.86         9.0374
   531.00         9.0424
   531.14         9.0454
   531.28         9.0449
   531.42         9.0397
   531.56         9.0290
   531.70         9.0117
   531.84         8.9865
   531.98         8.9530
   532.12         8.9120
   532.26         8.8660
   532.40         8.8187
   532.54         8.7746
   532.68         8.7376
   532.82         8.7096
   532.96         8.6912
   533.10         8.6818
   533.24         8.6803
   533.38         8.6858
   533.52         8.6976
   533.66         8.7141
   533.80         8.7328
   533.94         8.7509
   534.08         8.7665
   534.22         8.7787
   534.36         8.7880
   534.50         8.7965
   534.64         8.8078
   534.78         8.8255
   534.92         8.8524
   535.06         8.8893
   535.20         8.9336
   535.34         8.9799
   535.48         9.0221
   535.62         9.0557
   535.76         9.0783
   535.90         9.0887
   536.04         9.0863
   536.18         9.0703
   536.32         9.0411
   536.46         9.0019
   536.60         8.9583
   536.74         8.9167
   536.88         8.8821
   537.02         8.8582
   537.16         8.8464
   537.30         8.8463
   537.44         8.8557
   537.58         8.8717
   537.72         8.8908
   537.86         8.9092
   538.00         8.9242
   538.14         8.9352
   538.28         8.9428
   538.42         8.9474
   538.56         8.9480
   538.70         8.9434
   538.84         8.9336
   538.98         8.9197
   539.12         8.9036
   539.26         8.8861
   539.40         8.8665
   539.54         8.8436
   539.68         8.8173
   539.82         8.7885
   539.96         8.7592
   540.10         8.7315
   540.24         8.7076
   540.38         8.6883
   540.52         8.6742
   540.66         8.6665
   540.80         8.6666
   540.94         8.6750
   541.08         8.6915
   541.22         8.7150
   541.36         8.7443
   541.50         8.7781
   541.64         8.8152
   541.78         8.8541
   541.92         8.8924
   542.06         8.9269
   542.20         8.9544
   542.34         8.9731
   542.48         8.9820
   542.62         8.9814
   542.76         8.9726
   542.90         8.9589
   543.04         8.9449
   543.18         8.9359
   543.32         8.9349
   543.46         8.9425
   543.60         8.9564
   543.74         8.9730
   543.88         8.9891
   544.02         9.0033
   544.16         9.0150
   544.30         9.0225
   544.44         9.0234
   544.58         9.0157
   544.72         8.9995
   544.86         8.9772
   545.00         8.9529
   545.14         8.9309
   545.28         8.9143
   545.42         8.9043
   545.56         8.9003
   545.70         8.9002
   545.84         8.9013
   545.98         8.9014
   546.12         8.8986
   546.26         8.8928
   546.40         8.8850
   546.54         8.8764
   546.68         8.8670
   546.82         8.8550
   546.96         8.8385
   547.10         8.8173
   547.24         8.7937
   547.38         8.7708
   547.52         8.7512
   547.66         8.7359
   547.80         8.7242
   547.94         8.7148
   548.08         8.7067
   548.22         8.7000
   548.36         8.6957
   548.50         8.6955
   548.64         8.7000
   548.78         8.7087
   548.92         8.7204
   549.06         8.7343
   549.20         8.7496
   549.34         8.7657
   549.48         8.7816
   549.62         8.7965
   549.76         8.8093
   549.90         8.8194
   550.04         8.8252
   550.18         8.8248
   550.32         8.8171
   550.46         8.8018
   550.60         8.7804
   550.74         8.7561
   550.88         8.7329
   551.02         8.7144
   551.16         8.7025
   551.30         8.6967
   551.44         8.6958
   551.58         8.6992
   551.72         8.7055
   551.86         8.7119
   552.00         8.7153
   552.14         8.7138
   552.28         8.7068
   552.42         8.6944
   552.56         8.6777
   552.70         8.6587
   552.84         8.6400
   552.98         8.6245
   553.12         8.6145
   553.26         8.6108
   553.40         8.6131
   553.54         8.6204
   553.68         8.6317
   553.82         8.6457
   553.96         8.6621
   554.10         8.6808
   554.24         8.7012
   554.38         8.7219
   554.52         8.7412
   554.66         8.7575
   554.80         8.7693
   554.94         8.7753
   555.08         8.7755
   555.22         8.7704
   555.36         8.7605
   555.50         8.7466
   555.64         8.7289
   555.78         8.7075
   555.92         8.6832
   556.06         8.6589
   556.20         8.6372
   556.34         8.6199
   556.48         8.6077
   556.62         8.6006
   556.76         8.5986
   556.90         8.6008
   557.04         8.6058
   557.18         8.6121
   557.32         8.6187
   557.46         8.6256
   557.60         8.6328
   557.74         8.6390
   557.88         8.6413
   558.02         8.6374
   558.16         8.6255
   558.30         8.6051
   558.44         8.5775
   558.58         8.5448
   558.72         8.5092
   558.86         8.4718
   559.00         8.4336
   559.14         8.3957
   559.28         8.3592
   559.42         8.3249
   559.56         8.2941
   559.70         8.2695
   559.84         8.2531
   559.98         8.2462
   560.12         8.2497
   560.26         8.2630
   560.40         8.2843
   560.54         8.3110
   560.68         8.3399
   560.82         8.3681
   560.96         8.3937
   561.10         8.4154
   561.24         8.4318
   561.38         8.4420
   561.52         8.4456
   561.66         8.4427
   561.80         8.4345
   561.94         8.4234
   562.08         8.4129
   562.22         8.4065
   562.36         8.4056
   562.50         8.4103
   562.64         8.4200
   562.78         8.4341
   562.92         8.4506
   563.06         8.4666
   563.20         8.4793
   563.34         8.4876
   563.48         8.4918
   563.62         8.4930
   563.76         8.4914
   563.90         8.4871
   564.04         8.4800
   564.18         8.4702
   564.32         8.4581
   564.46         8.4448
   564.60         8.4311
   564.74         8.4170
   564.88         8.4013
   565.02         8.3826
   565.16         8.3603
   565.30         8.3344
   565.44         8.3048
   565.58         8.2719
   565.72         8.2377
   565.86         8.2053
   566.00         8.1780
   566.14         8.1586
   566.28         8.1498
   566.42         8.1530
   566.56         8.1679
   566.70         8.1933
   566.84         8.2268
   566.98         8.2652
   567.12         8.3046
   567.26         8.3409
   567.40         8.3708
   567.54         8.3922
   567.68         8.4041
   567.82         8.4071
   567.96         8.4023
   568.10         8.3917
   568.24         8.3775
   568.38         8.3619
   568.52         8.3461
   568.66         8.3313
   568.80         8.3193
   568.94         8.3108
   569.08         8.3057
   569.22         8.3030
   569.36         8.3019
   569.50         8.3019
   569.64         8.3023
   569.78         8.3017
   569.92         8.2986
   570.06         8.2915
   570.20         8.2796
   570.34         8.2627
   570.48         8.2417
   570.62         8.2177
   570.76         8.1916
   570.90         8.1644
   571.04         8.1380
   571.18         8.1160
   571.32         8.1017
   571.46         8.0974
   571.60         8.1042
   571.74         8.1217
   571.88         8.1479
   572.02         8.1803
   572.16         8.2158
   572.30         8.2502
   572.44         8.2801
   572.58         8.3037
   572.72         8.3205
   572.86         8.3310
   573.00         8.3363
   573.14         8.3374
   573.28         8.3352
   573.42         8.3302
   573.56         8.3239
   573.70         8.3182
   573.84         8.3146
   573.98         8.3126
   574.12         8.3113
   574.26         8.3099
   574.40         8.3076
   574.54         8.3038
   574.68         8.2978
   574.82         8.2896
   574.96         8.2794
   575.10         8.2681
   575.24         8.2560
   575.38         8.2433
   575.52         8.2304
   575.66         8.2187
   575.80         8.2093
   575.94         8.2035
   576.08         8.2022
   576.22         8.2063
   576.36         8.2156
   576.50         8.2290
   576.64         8.2446
   576.78         8.2607
   576.92         8.2746
   577.06         8.2835
   577.20         8.2848
   577.34         8.2772
   577.48         8.2613
   577.62         8.2388
   577.76         8.2116
   577.90         8.1823
   578.04         8.1543
   578.18         8.1311
   578.32         8.1151
   578.46         8.1070
   578.60         8.1064
   578.74         8.1120
   578.88         8.1221
   579.02         8.1347
   579.16         8.1485
   579.30         8.1619
   579.44         8.1736
   579.58         8.1818
   579.72         8.1861
   579.86         8.1867
   580.00         8.1842
   580.14         8.1797
   580.28         8.1746
   580.42         8.1701
   580.56         8.1670
   580.70         8.1656
   580.84         8.1659
   580.98         8.1681
   581.12         8.1728
   581.26         8.1810
   581.40         8.1935
   581.54         8.2104
   581.68         8.2312
   581.82         8.2545
   581.96         8.2786
   582.10         8.3014
   582.24         8.3212
   582.38         8.3370
   582.52         8.3481
   582.66         8.3543
   582.80         8.3559
   582.94         8.3535
   583.08         8.3473
   583.22         8.3374
   583.36         8.3243
   583.50         8.3087
   583.64         8.2912
   583.78         8.2722
   583.92         8.2527
   584.06         8.2339
   584.20         8.2162
   584.34         8.1989
   584.48         8.1813
   584.62         8.1630
   584.76         8.1441
   584.90         8.1248
   585.04         8.1056
   585.18         8.0866
   585.32         8.0679
   585.46         8.0505
   585.60         8.0358
   585.74         8.0251
   585.88         8.0198
   586.02         8.0208
   586.16         8.0286
   586.30         8.0435
   586.44         8.0649
   586.58         8.0912
   586.72         8.1197
   586.86         8.1471
   587.00         8.1702
   587.14         8.1867
   587.28         8.1956
   587.42         8.1962
   587.56         8.1886
   587.70         8.1730
   587.84         8.1484
   587.98         8.1133
   588.12         8.0674
   588.26         8.0130
   588.40         7.9527
   588.54         7.8884
   588.68         7.8220
   588.82         7.7564
   588.96         7.6962
   589.10         7.6458
   589.24         7.6097
   589.38         7.5914
   589.52         7.5925
   589.66         7.6124
   589.80         7.6498
   589.94         7.7023
   590.08         7.7662
   590.22         7.8362
   590.36         7.9059
   590.50         7.9695
   590.64         8.0236
   590.78         8.0668
   590.92         8.0986
   591.06         8.1184
   591.20         8.1259
   591.34         8.1231
   591.48         8.1136
   591.62         8.1007
   591.76         8.0873
   591.90         8.0743
   592.04         8.0613
   592.18         8.0478
   592.32         8.0341
   592.46         8.0213
   592.60         8.0096
   592.74         7.9987
   592.88         7.9878
   593.02         7.9764
   593.16         7.9648
   593.30         7.9532
   593.44         7.9417
   593.58         7.9302
   593.72         7.9180
   593.86         7.9041
   594.00         7.8884
   594.14         7.8716
   594.28         7.8544
   594.42         7.8370
   594.56         7.8194
   594.70         7.8027
   594.84         7.7886
   594.98         7.7789
   595.12         7.7746
   595.26         7.7759
   595.40         7.7820
   595.54         7.7913
   595.68         7.8020
   595.82         7.8126
   595.96         7.8219
   596.10         7.8279
   596.24         7.8298
   596.38         7.8282
   596.52         7.8243
   596.66         7.8185
   596.80         7.8113
   596.94         7.8035
   597.08         7.7969
   597.22         7.7924
   597.36         7.7894
   597.50         7.7869
   597.64         7.7838
   597.78         7.7792
   597.92         7.7720
   598.06         7.7618
   598.20         7.7490
   598.34         7.7354
   598.48         7.7233
   598.62         7.7142
   598.76         7.7087
   598.90         7.7085
   599.04         7.7147
   599.18         7.7266
   599.32         7.7426
   599.46         7.7609
   599.60         7.7793
   599.74         7.7950
   599.88         7.8052
   600.02         7.8082
   600.16         7.8045
   600.30         7.7951
   600.44         7.7814
   600.58         7.7649
   600.72         7.7473
   600.86         7.7297
   601.00         7.7125
   601.14         7.6958
   601.28         7.6796
   601.42         7.6641
   601.56         7.6498
   601.70         7.6364
   601.84         7.6229
   601.98         7.6083
   602.12         7.5927
   602.26         7.5773
   602.40         7.5634
   602.54         7.5519
   602.68         7.5436
   602.82         7.5388
   602.96         7.5377
   603.10         7.5399
   603.24         7.5448
   603.38         7.5517
   603.52         7.5595
   603.66         7.5677
   603.80         7.5761
   603.94         7.5841
   604.08         7.5907
   604.22         7.5947
   604.36         7.5951
   604.50         7.5918
   604.64         7.5854
   604.78         7.5775
   604.92         7.5701
   605.06         7.5648
   605.20         7.5625
   605.34         7.5636
   605.48         7.5679
   605.62         7.5741
   605.76         7.5810
   605.90         7.5877
   606.04         7.5941
   606.18         7.5999
   606.32         7.6045
   606.46         7.6071
   606.60         7.6066
   606.74         7.6026
   606.88         7.5952
   607.02         7.5850
   607.16         7.5726
   607.30         7.5586
   607.44         7.5438
   607.58         7.5285
   607.72         7.5131
   607.86         7.4975
   608.00         7.4820
   608.14         7.4669
   608.28         7.4534
   608.42         7.4428
   608.56         7.4359
   608.70         7.4327
   608.84         7.4324
   608.98         7.4337
   609.12         7.4350
   609.26         7.4350
   609.40         7.4332
   609.54         7.4292
   609.68         7.4239
   609.82         7.4183
   609.96         7.4136
   610.10         7.4105
   610.24         7.4093
   610.38         7.4102
   610.52         7.4133
   610.66         7.4184
   610.80         7.4252
   610.94         7.4327
   611.08         7.4394
   611.22         7.4434
   611.36         7.4433
   611.50         7.4386
   611.64         7.4293
   611.78         7.4158
   611.92         7.3992
   612.06         7.3810
   612.20         7.3626
   612.34         7.3453
   612.48         7.3290
   612.62         7.3127
   612.76         7.2960
   612.90         7.2794
   613.04         7.2634
   613.18         7.2484
   613.32         7.2344
   613.46         7.2215
   613.60         7.2098
   613.74         7.1999
   613.88         7.1931
   614.02         7.1905
   614.16         7.1928
   614.30         7.1998
   614.44         7.2105
   614.58         7.2238
   614.72         7.2387
   614.86         7.2542
   615.00         7.2693
   615.14         7.2821
   615.28         7.2914
   615.42         7.2961
   615.56         7.2955
   615.70         7.2889
   615.84         7.2760
   615.98         7.2572
   616.12         7.2334
   616.26         7.2062
   616.40         7.1778
   616.54         7.1506
   616.68         7.1271
   616.82         7.1095
   616.96         7.0994
   617.10         7.0979
   617.24         7.1057
   617.38         7.1225
   617.52         7.1466
   617.66         7.1745
   617.80         7.2031
   617.94         7.2301
   618.08         7.2539
   618.22         7.2733
   618.36         7.2872
   618.50         7.2958
   618.64         7.3003
   618.78         7.3030
   618.92         7.3064
   619.06         7.3118
   619.20         7.3196
   619.34         7.3295
   619.48         7.3408
   619.62         7.3522
   619.76         7.3631
   619.90         7.3729
   620.04         7.3816
   620.18         7.3889
   620.32         7.3948
   620.46         7.3993
   620.60         7.4023
   620.74         7.4032
   620.88         7.4013
   621.02         7.3962
   621.16         7.3883
   621.30         7.3780
   621.44         7.3660
   621.58         7.3525
   621.72         7.3377
   621.86         7.3224
   622.00         7.3074
   622.14         7.2934
   622.28         7.2807
   622.42         7.2698
   622.56         7.2609
   622.70         7.2533
   622.84         7.2455
   622.98         7.2363
   623.12         7.2253
   623.26         7.2133
   623.40         7.2011
   623.54         7.1890
   623.68         7.1774
   623.82         7.1670
   623.96         7.1585
   624.10         7.1518
   624.24         7.1459
   624.38         7.1400
   624.52         7.1329
   624.66         7.1243
   624.80         7.1143
   624.94         7.1040
   625.08         7.0935
   625.22         7.0810
   625.36         7.0638
   625.50         7.0410
   625.64         7.0138
   625.78         6.9848
   625.92         6.9566
   626.06         6.9317
   626.20         6.9121
   626.34         6.8999
   626.48         6.8966
   626.62         6.9018
   626.76         6.9138
   626.90         6.9305
   627.04         6.9498
   627.18         6.9697
   627.32         6.9883
   627.46         7.0039
   627.60         7.0155
   627.74         7.0219
   627.88         7.0237
   628.02         7.0234
   628.16         7.0245
   628.30         7.0293
   628.44         7.0383
   628.58         7.0510
   628.72         7.0658
   628.86         7.0812
   629.00         7.0952
   629.14         7.1058
   629.28         7.1114
   629.42         7.1120
   629.56         7.1086
   629.70         7.1023
   629.84         7.0941
   629.98         7.0852
   630.12         7.0772
   630.26         7.0712
   630.40         7.0676
   630.54         7.0661
   630.68         7.0657
   630.82         7.0647
   630.96         7.0618
   631.10         7.0564
   631.24         7.0479
   631.38         7.0362
   631.52         7.0214
   631.66         7.0047
   631.80         6.9882
   631.94         6.9744
   632.08         6.9656
   632.22         6.9636
   632.36         6.9690
   632.50         6.9812
   632.64         6.9990
   632.78         7.0201
   632.92         7.0422
   633.06         7.0628
   633.20         7.0798
   633.34         7.0915
   633.48         7.0977
   633.62         7.0987
   633.76         7.0948
   633.90         7.0863
   634.04         7.0742
   634.18         7.0602
   634.32         7.0462
   634.46         7.0333
   634.60         7.0217
   634.74         7.0117
   634.88         7.0032
   635.02         6.9956
   635.16         6.9882
   635.30         6.9804
   635.44         6.9721
   635.58         6.9630
   635.72         6.9532
   635.86         6.9433
   636.00         6.9335
   636.14         6.9241
   636.28         6.9153
   636.42         6.9071
   636.56         6.9001
   636.70         6.8951
   636.84         6.8927
   636.98         6.8924
   637.12         6.8933
   637.26         6.8946
   637.40         6.8961
   637.54         6.8973
   637.68         6.8976
   637.82         6.8966
   637.96         6.8945
   638.10         6.8920
   638.24         6.8897
   638.38         6.8876
   638.52         6.8858
   638.66         6.8840
   638.80         6.8822
   638.94         6.8800
   639.08         6.8768
   639.22         6.8724
   639.36         6.8672
   639.50         6.8616
   639.64         6.8559
   639.78         6.8506
   639.92         6.8458
   640.06         6.8413
   640.20         6.8366
   640.34         6.8316
   640.48         6.8263
   640.62         6.8210
   640.76         6.8151
   640.90         6.8078
   641.04         6.7987
   641.18         6.7881
   641.32         6.7764
   641.46         6.7643
   641.60         6.7531
   641.74         6.7445
   641.88         6.7404
   642.02         6.7413
   642.16         6.7464
   642.30         6.7547
   642.44         6.7655
   642.58         6.7783
   642.72         6.7922
   642.86         6.8060
   643.00         6.8184
   643.14         6.8282
   643.28         6.8343
   643.42         6.8367
   643.56         6.8360
   643.70         6.8335
   643.84         6.8304
   643.98         6.8275
   644.12         6.8257
   644.26         6.8253
   644.40         6.8266
   644.54         6.8289
   644.68         6.8312
   644.82         6.8328
   644.96         6.8330
   645.10         6.8309
   645.24         6.8248
   645.38         6.8134
   645.52         6.7964
   645.66         6.7751
   645.80         6.7517
   645.94         6.7285
   646.08         6.7075
   646.22         6.6898
   646.36         6.6761
   646.50         6.6666
   646.64         6.6617
   646.78         6.6619
   646.92         6.6670
   647.06         6.6760
   647.20         6.6874
   647.34         6.6999
   647.48         6.7124
   647.62         6.7241
   647.76         6.7345
   647.90         6.7433
   648.04         6.7500
   648.18         6.7538
   648.32         6.7532
   648.46         6.7464
   648.60         6.7323
   648.74         6.7112
   648.88         6.6848
   649.02         6.6556
   649.16         6.6269
   649.30         6.6023
   649.44         6.5849
   649.58         6.5767
   649.72         6.5789
   649.86         6.5921
   650.00         6.6156
   650.14         6.6471
   650.28         6.6828
   650.42         6.7189
   650.56         6.7513
   650.70         6.7765
   650.84         6.7926
   650.98         6.7994
   651.12         6.7983
   651.26         6.7922
   651.40         6.7838
   651.54         6.7757
   651.68         6.7697
   651.82         6.7669
   651.96         6.7679
   652.10         6.7721
   652.24         6.7784
   652.38         6.7853
   652.52         6.7916
   652.66         6.7956
   652.80         6.7960
   652.94         6.7927
   653.08         6.7859
   653.22         6.7763
   653.36         6.7644
   653.50         6.7505
   653.64         6.7340
   653.78         6.7142
   653.92         6.6910
   654.06         6.6645
   654.20         6.6345
   654.34         6.6011
   654.48         6.5640
   654.62         6.5227
   654.76         6.4761
   654.90         6.4224
   655.04         6.3583
   655.18         6.2791
   655.32         6.1808
   655.46         6.0633
   655.60         5.9309
   655.74         5.7914
   655.88         5.6544
   656.02         5.5301
   656.16         5.4284
   656.30         5.3580
   656.44         5.3254
   656.58         5.3345
   656.72         5.3853
   656.86         5.4737
   657.00         5.5925
   657.14         5.7316
   657.28         5.8797
   657.42         6.0256
   657.56         6.1591
   657.70         6.2731
   657.84         6.3647
   657.98         6.4356
   658.12         6.4900
   658.26         6.5318
   658.40         6.5632
   658.54         6.5858
   658.68         6.6008
   658.82         6.6101
   658.96         6.6162
   659.10         6.6216
   659.24         6.6284
   659.38         6.6377
   659.52         6.6493
   659.66         6.6627
   659.80         6.6772
   659.94         6.6918
   660.08         6.7058
   660.22         6.7182
   660.36         6.7281
   660.50         6.7343
   660.64         6.7364
   660.78         6.7339
   660.92         6.7270
   661.06         6.7163
   661.20         6.7036
   661.34         6.6909
   661.48         6.6802
   661.62         6.6730
   661.76         6.6690
   661.90         6.6677
   662.04         6.6677
   662.18         6.6680
   662.32         6.6674
   662.46         6.6649
   662.60         6.6603
   662.74         6.6532
   662.88         6.6437
   663.02         6.6326
   663.16         6.6210
   663.30         6.6101
   663.44         6.6007
   663.58         6.5936
   663.72         6.5897
   663.86         6.5895
   664.00         6.5926
   664.14         6.5975
   664.28         6.6029
   664.42         6.6075
   664.56         6.6105
   664.70         6.6111
   664.84         6.6087
   664.98         6.6031
   665.12         6.5945
   665.26         6.5830
   665.40         6.5687
   665.54         6.5525
   665.68         6.5357
   665.82         6.5197
   665.96         6.5060
   666.10         6.4957
   666.24         6.4896
   666.38         6.4879
   666.52         6.4901
   666.66         6.4949
   666.80         6.5014
   666.94         6.5091
   667.08         6.5169
   667.22         6.5241
   667.36         6.5295
   667.50         6.5329
   667.64         6.5342
   667.78         6.5336
   667.92         6.5314
   668.06         6.5283
   668.20         6.5250
   668.34         6.5217
   668.48         6.5180
   668.62         6.5130
   668.76         6.5066
   668.90         6.4988
   669.04         6.4900
   669.18         6.4812
   669.32         6.4731
   669.46         6.4665
   669.60         6.4619
   669.74         6.4593
   669.88         6.4582
   670.02         6.4577
   670.16         6.4570
   670.30         6.4552
   670.44         6.4514
   670.58         6.4450
   670.72         6.4354
   670.86         6.4228
   671.00         6.4079
   671.14         6.3923
   671.28         6.3782
   671.42         6.3674
   671.56         6.3608
   671.70         6.3584
   671.84         6.3592
   671.98         6.3620
   672.12         6.3658
   672.26         6.3698
   672.40         6.3734
   672.54         6.3758
   672.68         6.3767
   672.82         6.3759
   672.96         6.3737
   673.10         6.3701
   673.24         6.3655
   673.38         6.3607
   673.52         6.3562
   673.66         6.3530
   673.80         6.3513
   673.94         6.3506
   674.08         6.3501
   674.22         6.3487
   674.36         6.3463
   674.50         6.3432
   674.64         6.3399
   674.78         6.3368
   674.92         6.3342
   675.06         6.3322
   675.20         6.3311
   675.34         6.3314
   675.48         6.3332
   675.62         6.3361
   675.76         6.3392
   675.90         6.3417
   676.04         6.3432
   676.18         6.3439
   676.32         6.3440
   676.46         6.3436
   676.60         6.3427
   676.74         6.3414
   676.88         6.3398
   677.02         6.3375
   677.16         6.3341
   677.30         6.3287
   677.44         6.3209
   677.58         6.3109
   677.72         6.2993
   677.86         6.2868
   678.00         6.2738
   678.14         6.2606
   678.28         6.2481
   678.42         6.2375
   678.56         6.2298
   678.70         6.2257
   678.84         6.2252
   678.98         6.2278
   679.12         6.2330
   679.26         6.2400
   679.40         6.2481
   679.54         6.2567
   679.68         6.2654
   679.82         6.2738
   679.96         6.2824
   680.10         6.2916
   680.24         6.3017
   680.38         6.3125
   680.52         6.3236
   680.66         6.3342
   680.80         6.3431
   680.94         6.3489
   681.08         6.3505
   681.22         6.3478
   681.36         6.3413
   681.50         6.3321
   681.64         6.3213
   681.78         6.3097
   681.92         6.2977
   682.06         6.2857
   682.20         6.2742
   682.34         6.2638
   682.48         6.2553
   682.62         6.2487
   682.76         6.2441
   682.90         6.2407
   683.04         6.2379
   683.18         6.2350
   683.32         6.2312
   683.46         6.2256
   683.60         6.2187
   683.74         6.2114
   683.88         6.2050
   684.02         6.2003
   684.16         6.1978
   684.30         6.1972
   684.44         6.1980
   684.58         6.1995
   684.72         6.2010
   684.86         6.2018
   685.00         6.2012
   685.14         6.1982
   685.28         6.1922
   685.42         6.1814
   685.56         6.1627
   685.70         6.1314
   685.84         6.0833
   685.98         6.0157
   686.12         5.9283
   686.26         5.8235
   686.40         5.7057
   686.54         5.5808
   686.68         5.4559
   686.82         5.3391
   686.96         5.2390
   687.10         5.1629
   687.24         5.1161
   687.38         5.1011
   687.52         5.1173
   687.66         5.1602
   687.80         5.2228
   687.94         5.2958
   688.08         5.3696
   688.22         5.4358
   688.36         5.4892
   688.50         5.5280
   688.64         5.5531
   688.78         5.5682
   688.92         5.5783
   689.06         5.5880
   689.20         5.6001
   689.34         5.6167
   689.48         5.6385
   689.62         5.6648
   689.76         5.6935
   689.90         5.7220
   690.04         5.7485
   690.18         5.7713
   690.32         5.7896
   690.46         5.8031
   690.60         5.8117
   690.74         5.8158
   690.88         5.8161
   691.02         5.8136
   691.16         5.8097
   691.30         5.8058
   691.44         5.8035
   691.58         5.8029
   691.72         5.8030
   691.86         5.8028
   692.00         5.8030
   692.14         5.8043
   692.28         5.8073
   692.42         5.8124
   692.56         5.8199
   692.70         5.8297
   692.84         5.8410
   692.98         5.8529
   693.12         5.8644
   693.26         5.8750
   693.40         5.8848
   693.54         5.8941
   693.68         5.9034
   693.82         5.9123
   693.96         5.9204
   694.10         5.9274
   694.24         5.9328
   694.38         5.9364
   694.52         5.9383
   694.66         5.9387
   694.80         5.9375
   694.94         5.9348
   695.08         5.9309
   695.22         5.9265
   695.36         5.9225
   695.50         5.9200
   695.64         5.9203
   695.78         5.9245
   695.92         5.9333
   696.06         5.9465
   696.20         5.9637
   696.34         5.9842
   696.48         6.0068
   696.62         6.0299
   696.76         6.0514
   696.90         6.0694
   697.04         6.0817
   697.18         6.0875
   697.32         6.0865
   697.46         6.0795
   697.60         6.0674
   697.74         6.0512
   697.88         6.0322
   698.02         6.0116
   698.16         5.9907
   698.30         5.9705
   698.44         5.9521
   698.58         5.9365
   698.72         5.9245
   698.86         5.9165
   699.00         5.9123
   699.14         5.9105
   699.28         5.9094
   699.42         5.9079
   699.56         5.9050
   699.70         5.9006
   699.84         5.8948
   699.98         5.8881
   700.12         5.8814
   700.26         5.8756
   700.40         5.8717
   700.54         5.8701
   700.68         5.8710
   700.82         5.8740
   700.96         5.8785
   701.10         5.8837
   701.24         5.8881
   701.38         5.8902
   701.52         5.8886
   701.66         5.8828
   701.80         5.8729
   701.94         5.8603
   702.08         5.8469
   702.22         5.8347
   702.36         5.8255
   702.50         5.8202
   702.64         5.8193
   702.78         5.8224
   702.92         5.8290
   703.06         5.8377
   703.20         5.8474
   703.34         5.8566
   703.48         5.8642
   703.62         5.8691
   703.76         5.8706
   703.90         5.8688
   704.04         5.8643
   704.18         5.8581
   704.32         5.8513
   704.46         5.8452
   704.60         5.8403
   704.74         5.8362
   704.88         5.8319
   705.02         5.8267
   705.16         5.8205
   705.30         5.8132
   705.44         5.8049
   705.58         5.7955
   705.72         5.7850
   705.86         5.7734
   706.00         5.7615
   706.14         5.7507
   706.28         5.7425
   706.42         5.7381
   706.56         5.7382
   706.70         5.7432
   706.84         5.7528
   706.98         5.7665
   707.12         5.7833
   707.26         5.8021
   707.40         5.8216
   707.54         5.8405
   707.68         5.8576
   707.82         5.8720
   707.96         5.8824
   708.10         5.8879
   708.24         5.8885
   708.38         5.8846
   708.52         5.8769
   708.66         5.8664
   708.80         5.8539
   708.94         5.8403
   709.08         5.8263
   709.22         5.8132
   709.36         5.8024
   709.50         5.7951
   709.64         5.7917
   709.78         5.7925
   709.92         5.7964
   710.06         5.8017
   710.20         5.8071
   710.34         5.8120
   710.48         5.8166
   710.62         5.8208
   710.76         5.8245
   710.90         5.8278
   711.04         5.8310
   711.18         5.8339
   711.32         5.8366
   711.46         5.8390
   711.60         5.8413
   711.74         5.8438
   711.88         5.8467
   712.02         5.8499
   712.16         5.8533
   712.30         5.8563
   712.44         5.8589
   712.58         5.8614
   712.72         5.8643
   712.86         5.8688
   713.00         5.8756
   713.14         5.8852
   713.28         5.8970
   713.42         5.9099
   713.56         5.9224
   713.70         5.9326
   713.84         5.9383
   713.98         5.9385
   714.12         5.9327
   714.26         5.9218
   714.40         5.9068
   714.54         5.8890
   714.68         5.8700
   714.82         5.8516
   714.96         5.8363
   715.10         5.8256
   715.24         5.8203
   715.38         5.8198
   715.52         5.8226
   715.66         5.8269
   715.80         5.8300
   715.94         5.8290
   716.08         5.8214
   716.22         5.8055
   716.36         5.7810
   716.50         5.7487
   716.64         5.7103
   716.78         5.6678
   716.92         5.6230
   717.06         5.5774
   717.20         5.5323
   717.34         5.4882
   717.48         5.4458
   717.62         5.4055
   717.76         5.3669
   717.90         5.3300
   718.04         5.2952
   718.18         5.2634
   718.32         5.2354
   718.46         5.2124
   718.60         5.1957
   718.74         5.1864
   718.88         5.1849
   719.02         5.1911
   719.16         5.2040
   719.30         5.2221
   719.44         5.2441
   719.58         5.2682
   719.72         5.2932
   719.86         5.3185
   720.00         5.3453
   720.14         5.3754
   720.28         5.4105
   720.42         5.4512
   720.56         5.4976
   720.70         5.5494
   720.84         5.6055
   720.98         5.6644
   721.12         5.7235
   721.26         5.7796
   721.40         5.8293
   721.54         5.8696
   721.68         5.8989
   721.82         5.9168
   721.96         5.9237
   722.10         5.9209
   722.24         5.9095
   722.38         5.8903
   722.52         5.8637
   722.66         5.8303
   722.80         5.7905
   722.94         5.7455
   723.08         5.6968
   723.22         5.6466
   723.36         5.5970
   723.50         5.5504
   723.64         5.5090
   723.78         5.4748
   723.92         5.4495
   724.06         5.4336
   724.20         5.4267
   724.34         5.4272
   724.48         5.4328
   724.62         5.4411
   724.76         5.4504
   724.90         5.4594
   725.04         5.4677
   725.18         5.4754
   725.32         5.4830
   725.46         5.4904
   725.60         5.4978
   725.74         5.5053
   725.88         5.5133
   726.02         5.5219
   726.16         5.5307
   726.30         5.5383
   726.44         5.5419
   726.58         5.5386
   726.72         5.5264
   726.86         5.5056
   727.00         5.4783
   727.14         5.4477
   727.28         5.4172
   727.42         5.3898
   727.56         5.3676
   727.70         5.3516
   727.84         5.3413
   727.98         5.3355
   728.12         5.3330
   728.26         5.3323
   728.40         5.3315
   728.54         5.3290
   728.68         5.3231
   728.82         5.3137
   728.96         5.3010
   729.10         5.2861
   729.24         5.2714
   729.38         5.2592
   729.52         5.2516
   729.66         5.2498
   729.80         5.2538
   729.94         5.2624
   730.08         5.2739
   730.22         5.2859
   730.36         5.2965
   730.50         5.3044
   730.64         5.3091
   730.78         5.3109
   730.92         5.3105
   731.06         5.3085
   731.20         5.3056
   731.34         5.3023
   731.48         5.2989
   731.62         5.2954
   731.76         5.2918
   731.90         5.2885
   732.04         5.2858
   732.18         5.2840
   732.32         5.2833
   732.46         5.2836
   732.60         5.2848
   732.74         5.2873
   732.88         5.2921
   733.02         5.3000
   733.16         5.3115
   733.30         5.3263
   733.44         5.3435
   733.58         5.3621
   733.72         5.3807
   733.86         5.3980
   734.00         5.4130
   734.14         5.4246
   734.28         5.4316
   734.42         5.4330
   734.56         5.4284
   734.70         5.4184
   734.84         5.4040
   734.98         5.3867
   735.12         5.3684
   735.26         5.3509
   735.40         5.3359
   735.54         5.3238
   735.68         5.3146
   735.82         5.3076
   735.96         5.3022
   736.10         5.2976
   736.24         5.2933
   736.38         5.2892
   736.52         5.2853
   736.66         5.2812
   736.80         5.2764
   736.94         5.2701
   737.08         5.2620
   737.22         5.2515
   737.36         5.2386
   737.50         5.2237
   737.64         5.2073
   737.78         5.1898
   737.92         5.1718
   738.06         5.1533
   738.20         5.1349
   738.34         5.1176
   738.48         5.1028
   738.62         5.0922
   738.76         5.0867
   738.90         5.0862
   739.04         5.0904
   739.18         5.0980
   739.32         5.1074
   739.46         5.1171
   739.60         5.1258
   739.74         5.1324
   739.88         5.1360
   740.02         5.1360
   740.16         5.1321
   740.30         5.1243
   740.44         5.1134
   740.58         5.1006
   740.72         5.0872
   740.86         5.0745
   741.00         5.0637
   741.14         5.0556
   741.28         5.0503
   741.42         5.0476
   741.56         5.0469
   741.70         5.0477
   741.84         5.0493
   741.98         5.0511
   742.12         5.0530
   742.26         5.0546
   742.40         5.0555
   742.54         5.0554
   742.68         5.0545
   742.82         5.0537
   742.96         5.0537
   743.10         5.0545
   743.24         5.0554
   743.38         5.0555
   743.52         5.0546
   743.66         5.0530
   743.80         5.0511
   743.94         5.0493
   744.08         5.0477
   744.22         5.0469
