# File SAO77849
# Wavelength [nm]    Normalized Amplitude
   349.70         0.8833
   349.84         0.8841
   349.98         0.8879
   350.12         0.8937
   350.26         0.8997
   350.40         0.9038
   350.54         0.9053
   350.68         0.9041
   350.82         0.9012
   350.96         0.8982
   351.10         0.8969
   351.24         0.8982
   351.38         0.9012
   351.52         0.9041
   351.66         0.9053
   351.80         0.9038
   351.94         0.8997
   352.08         0.8937
   352.22         0.8879
   352.36         0.8841
   352.50         0.8833
   352.64         0.8861
   352.78         0.8928
   352.92         0.9036
   353.06         0.9187
   353.20         0.9380
   353.34         0.9604
   353.48         0.9844
   353.62         1.0078
   353.76         1.0284
   353.90         1.0432
   354.04         1.0503
   354.18         1.0488
   354.32         1.0393
   354.46         1.0227
   354.60         1.0000
   354.74         0.9722
   354.88         0.9409
   355.02         0.9079
   355.16         0.8755
   355.30         0.8455
   355.44         0.8191
   355.58         0.7966
   355.72         0.7783
   355.86         0.7644
   356.00         0.7538
   356.14         0.7449
   356.28         0.7364
   356.42         0.7277
   356.56         0.7189
   356.70         0.7100
   356.84         0.6998
   356.98         0.6873
   357.12         0.6722
   357.26         0.6543
   357.40         0.6339
   357.54         0.6116
   357.68         0.5879
   357.82         0.5634
   357.96         0.5398
   358.10         0.5197
   358.24         0.5066
   358.38         0.5035
   358.52         0.5131
   358.66         0.5373
   358.80         0.5778
   358.94         0.6348
   359.08         0.7060
   359.22         0.7870
   359.36         0.8711
   359.50         0.9518
   359.64         1.0236
   359.78         1.0825
   359.92         1.1255
   360.06         1.1517
   360.20         1.1623
   360.34         1.1598
   360.48         1.1474
   360.62         1.1280
   360.76         1.1040
   360.90         1.0782
   361.04         1.0544
   361.18         1.0367
   361.32         1.0289
   361.46         1.0333
   361.60         1.0505
   361.74         1.0795
   361.88         1.1175
   362.02         1.1605
   362.16         1.2048
   362.30         1.2470
   362.44         1.2845
   362.58         1.3159
   362.72         1.3410
   362.86         1.3602
   363.00         1.3747
   363.14         1.3856
   363.28         1.3949
   363.42         1.4052
   363.56         1.4171
   363.70         1.4295
   363.84         1.4405
   363.98         1.4493
   364.12         1.4560
   364.26         1.4603
   364.40         1.4625
   364.54         1.4642
   364.68         1.4676
   364.82         1.4764
   364.96         1.4940
   365.10         1.5228
   365.24         1.5633
   365.38         1.6147
   365.52         1.6737
   365.66         1.7356
   365.80         1.7943
   365.94         1.8439
   366.08         1.8800
   366.22         1.9004
   366.36         1.9067
   366.50         1.9028
   366.64         1.8925
   366.78         1.8774
   366.92         1.8590
   367.06         1.8388
   367.20         1.8185
   367.34         1.7985
   367.48         1.7786
   367.62         1.7583
   367.76         1.7370
   367.90         1.7150
   368.04         1.6935
   368.18         1.6741
   368.32         1.6585
   368.46         1.6484
   368.60         1.6452
   368.74         1.6507
   368.88         1.6662
   369.02         1.6921
   369.16         1.7272
   369.30         1.7681
   369.44         1.8097
   369.58         1.8461
   369.72         1.8718
   369.86         1.8824
   370.00         1.8765
   370.14         1.8566
   370.28         1.8280
   370.42         1.7972
   370.56         1.7686
   370.70         1.7437
   370.84         1.7210
   370.98         1.6980
   371.12         1.6719
   371.26         1.6417
   371.40         1.6077
   371.54         1.5699
   371.68         1.5278
   371.82         1.4802
   371.96         1.4271
   372.10         1.3695
   372.24         1.3097
   372.38         1.2507
   372.52         1.1962
   372.66         1.1490
   372.80         1.1110
   372.94         1.0822
   373.08         1.0603
   373.22         1.0419
   373.36         1.0237
   373.50         1.0045
   373.64         0.9849
   373.78         0.9661
   373.92         0.9501
   374.06         0.9392
   374.20         0.9363
   374.34         0.9439
   374.48         0.9634
   374.62         0.9938
   374.76         1.0322
   374.90         1.0750
   375.04         1.1195
   375.18         1.1641
   375.32         1.2064
   375.46         1.2439
   375.60         1.2734
   375.74         1.2926
   375.88         1.3010
   376.02         1.3014
   376.16         1.2988
   376.30         1.2987
   376.44         1.3064
   376.58         1.3263
   376.72         1.3607
   376.86         1.4087
   377.00         1.4665
   377.14         1.5282
   377.28         1.5873
   377.42         1.6382
   377.56         1.6765
   377.70         1.6993
   377.84         1.7047
   377.98         1.6920
   378.12         1.6628
   378.26         1.6196
   378.40         1.5653
   378.54         1.5037
   378.68         1.4384
   378.82         1.3726
   378.96         1.3096
   379.10         1.2534
   379.24         1.2087
   379.38         1.1788
   379.52         1.1648
   379.66         1.1654
   379.80         1.1781
   379.94         1.1997
   380.08         1.2262
   380.22         1.2537
   380.36         1.2782
   380.50         1.2955
   380.64         1.3018
   380.78         1.2938
   380.92         1.2695
   381.06         1.2286
   381.20         1.1733
   381.34         1.1069
   381.48         1.0338
   381.62         0.9589
   381.76         0.8869
   381.90         0.8217
   382.04         0.7656
   382.18         0.7197
   382.32         0.6845
   382.46         0.6606
   382.60         0.6473
   382.74         0.6425
   382.88         0.6435
   383.02         0.6477
   383.16         0.6538
   383.30         0.6611
   383.44         0.6694
   383.58         0.6783
   383.72         0.6875
   383.86         0.6975
   384.00         0.7092
   384.14         0.7227
   384.28         0.7380
   384.42         0.7542
   384.56         0.7702
   384.70         0.7841
   384.84         0.7943
   384.98         0.7997
   385.12         0.8003
   385.26         0.7971
   385.40         0.7911
   385.54         0.7839
   385.68         0.7775
   385.82         0.7732
   385.96         0.7717
   386.10         0.7728
   386.24         0.7773
   386.38         0.7860
   386.52         0.7994
   386.66         0.8168
   386.80         0.8366
   386.94         0.8574
   387.08         0.8781
   387.22         0.8981
   387.36         0.9180
   387.50         0.9387
   387.64         0.9618
   387.78         0.9895
   387.92         1.0242
   388.06         1.0683
   388.20         1.1234
   388.34         1.1897
   388.48         1.2655
   388.62         1.3482
   388.76         1.4347
   388.90         1.5218
   389.04         1.6054
   389.18         1.6816
   389.32         1.7468
   389.46         1.7985
   389.60         1.8358
   389.74         1.8600
   389.88         1.8742
   390.02         1.8827
   390.16         1.8901
   390.30         1.9006
   390.44         1.9170
   390.58         1.9402
   390.72         1.9680
   390.86         1.9958
   391.00         2.0180
   391.14         2.0300
   391.28         2.0292
   391.42         2.0149
   391.56         1.9866
   391.70         1.9436
   391.84         1.8849
   391.98         1.8100
   392.12         1.7193
   392.26         1.6154
   392.40         1.5024
   392.54         1.3851
   392.68         1.2689
   392.82         1.1599
   392.96         1.0640
   393.10         0.9861
   393.24         0.9306
   393.38         0.9014
   393.52         0.9013
   393.66         0.9324
   393.80         0.9950
   393.94         1.0868
   394.08         1.2033
   394.22         1.3378
   394.36         1.4824
   394.50         1.6290
   394.64         1.7695
   394.78         1.8968
   394.92         2.0045
   395.06         2.0874
   395.20         2.1410
   395.34         2.1621
   395.48         2.1487
   395.62         2.0999
   395.76         2.0175
   395.90         1.9063
   396.04         1.7748
   396.18         1.6347
   396.32         1.4988
   396.46         1.3804
   396.60         1.2912
   396.74         1.2407
   396.88         1.2354
   397.02         1.2773
   397.16         1.3641
   397.30         1.4898
   397.44         1.6469
   397.58         1.8262
   397.72         2.0178
   397.86         2.2111
   398.00         2.3964
   398.14         2.5657
   398.28         2.7138
   398.42         2.8387
   398.56         2.9411
   398.70         3.0245
   398.84         3.0941
   398.98         3.1555
   399.12         3.2139
   399.26         3.2725
   399.40         3.3321
   399.54         3.3919
   399.68         3.4501
   399.82         3.5051
   399.96         3.5562
   400.10         3.6036
   400.24         3.6481
   400.38         3.6904
   400.52         3.7310
   400.66         3.7704
   400.80         3.8089
   400.94         3.8467
   401.08         3.8842
   401.22         3.9213
   401.36         3.9582
   401.50         3.9943
   401.64         4.0283
   401.78         4.0569
   401.92         4.0755
   402.06         4.0795
   402.20         4.0667
   402.34         4.0378
   402.48         3.9956
   402.62         3.9453
   402.76         3.8931
   402.90         3.8442
   403.04         3.8015
   403.18         3.7646
   403.32         3.7310
   403.46         3.6980
   403.60         3.6651
   403.74         3.6337
   403.88         3.6062
   404.02         3.5843
   404.16         3.5685
   404.30         3.5566
   404.44         3.5448
   404.58         3.5294
   404.72         3.5091
   404.86         3.4845
   405.00         3.4572
   405.14         3.4274
   405.28         3.3948
   405.42         3.3584
   405.56         3.3176
   405.70         3.2729
   405.84         3.2269
   405.98         3.1837
   406.12         3.1493
   406.26         3.1310
   406.40         3.1329
   406.54         3.1539
   406.68         3.1896
   406.82         3.2359
   406.96         3.2903
   407.10         3.3506
   407.24         3.4150
   407.38         3.4819
   407.52         3.5503
   407.66         3.6193
   407.80         3.6889
   407.94         3.7590
   408.08         3.8284
   408.22         3.8947
   408.36         3.9539
   408.50         4.0009
   408.64         4.0310
   408.78         4.0416
   408.92         4.0311
   409.06         3.9988
   409.20         3.9466
   409.34         3.8812
   409.48         3.8111
   409.62         3.7439
   409.76         3.6843
   409.90         3.6348
   410.04         3.5968
   410.18         3.5711
   410.32         3.5570
   410.46         3.5528
   410.60         3.5544
   410.74         3.5566
   410.88         3.5544
   411.02         3.5444
   411.16         3.5248
   411.30         3.4967
   411.44         3.4629
   411.58         3.4267
   411.72         3.3915
   411.86         3.3597
   412.00         3.3320
   412.14         3.3076
   412.28         3.2843
   412.42         3.2604
   412.56         3.2349
   412.70         3.2089
   412.84         3.1841
   412.98         3.1613
   413.12         3.1389
   413.26         3.1145
   413.40         3.0869
   413.54         3.0563
   413.68         3.0229
   413.82         2.9861
   413.96         2.9449
   414.10         2.8986
   414.24         2.8474
   414.38         2.7922
   414.52         2.7359
   414.66         2.6832
   414.80         2.6397
   414.94         2.6109
   415.08         2.6008
   415.22         2.6110
   415.36         2.6403
   415.50         2.6847
   415.64         2.7388
   415.78         2.7978
   415.92         2.8575
   416.06         2.9133
   416.20         2.9603
   416.34         2.9943
   416.48         3.0133
   416.62         3.0174
   416.76         3.0088
   416.90         2.9907
   417.04         2.9677
   417.18         2.9454
   417.32         2.9293
   417.46         2.9235
   417.60         2.9295
   417.74         2.9475
   417.88         2.9764
   418.02         3.0154
   418.16         3.0630
   418.30         3.1166
   418.44         3.1718
   418.58         3.2232
   418.72         3.2659
   418.86         3.2975
   419.00         3.3170
   419.14         3.3251
   419.28         3.3242
   419.42         3.3191
   419.56         3.3155
   419.70         3.3183
   419.84         3.3304
   419.98         3.3527
   420.12         3.3841
   420.26         3.4213
   420.40         3.4611
   420.54         3.5020
   420.68         3.5445
   420.82         3.5908
   420.96         3.6432
   421.10         3.7027
   421.24         3.7682
   421.38         3.8345
   421.52         3.8941
   421.66         3.9407
   421.80         3.9724
   421.94         3.9913
   422.08         4.0003
   422.22         4.0019
   422.36         3.9979
   422.50         3.9914
   422.64         3.9859
   422.78         3.9853
   422.92         3.9942
   423.06         4.0183
   423.20         4.0633
   423.34         4.1318
   423.48         4.2213
   423.62         4.3238
   423.76         4.4279
   423.90         4.5220
   424.04         4.5972
   424.18         4.6503
   424.32         4.6829
   424.46         4.6983
   424.60         4.6995
   424.74         4.6879
   424.88         4.6648
   425.02         4.6335
   425.16         4.6005
   425.30         4.5743
   425.44         4.5631
   425.58         4.5724
   425.72         4.6021
   425.86         4.6465
   426.00         4.6938
   426.14         4.7299
   426.28         4.7432
   426.42         4.7275
   426.56         4.6842
   426.70         4.6204
   426.84         4.5462
   426.98         4.4719
   427.12         4.4066
   427.26         4.3576
   427.40         4.3289
   427.54         4.3217
   427.68         4.3346
   427.82         4.3629
   427.96         4.3977
   428.10         4.4286
   428.24         4.4461
   428.38         4.4437
   428.52         4.4195
   428.66         4.3752
   428.80         4.3153
   428.94         4.2458
   429.08         4.1725
   429.22         4.0992
   429.36         4.0264
   429.50         3.9518
   429.64         3.8723
   429.78         3.7864
   429.92         3.6950
   430.06         3.6026
   430.20         3.5177
   430.34         3.4532
   430.48         3.4251
   430.62         3.4494
   430.76         3.5378
   430.90         3.6941
   431.04         3.9124
   431.18         4.1764
   431.32         4.4621
   431.46         4.7432
   431.60         4.9980
   431.74         5.2127
   431.88         5.3804
   432.02         5.4996
   432.16         5.5760
   432.30         5.6211
   432.44         5.6500
   432.58         5.6761
   432.72         5.7083
   432.86         5.7501
   433.00         5.8014
   433.14         5.8590
   433.28         5.9169
   433.42         5.9683
   433.56         6.0079
   433.70         6.0331
   433.84         6.0447
   433.98         6.0461
   434.12         6.0434
   434.26         6.0438
   434.40         6.0522
   434.54         6.0694
   434.68         6.0941
   434.82         6.1237
   434.96         6.1548
   435.10         6.1843
   435.24         6.2107
   435.38         6.2355
   435.52         6.2629
   435.66         6.2968
   435.80         6.3395
   435.94         6.3899
   436.08         6.4438
   436.22         6.4933
   436.36         6.5285
   436.50         6.5409
   436.64         6.5265
   436.78         6.4862
   436.92         6.4231
   437.06         6.3391
   437.20         6.2340
   437.34         6.1079
   437.48         5.9639
   437.62         5.8088
   437.76         5.6504
   437.90         5.4960
   438.04         5.3518
   438.18         5.2229
   438.32         5.1148
   438.46         5.0348
   438.60         4.9906
   438.74         4.9865
   438.88         5.0226
   439.02         5.0957
   439.16         5.1977
   439.30         5.3145
   439.44         5.4276
   439.58         5.5193
   439.72         5.5788
   439.86         5.6047
   440.00         5.6043
   440.14         5.5877
   440.28         5.5630
   440.42         5.5362
   440.56         5.5130
   440.70         5.5002
   440.84         5.5043
   440.98         5.5291
   441.12         5.5752
   441.26         5.6394
   441.40         5.7157
   441.54         5.7976
   441.68         5.8782
   441.82         5.9518
   441.96         6.0150
   442.10         6.0670
   442.24         6.1079
   442.38         6.1374
   442.52         6.1551
   442.66         6.1616
   442.80         6.1586
   442.94         6.1485
   443.08         6.1345
   443.22         6.1213
   443.36         6.1145
   443.50         6.1195
   443.64         6.1411
   443.78         6.1837
   443.92         6.2495
   444.06         6.3364
   444.20         6.4369
   444.34         6.5397
   444.48         6.6330
   444.62         6.7055
   444.76         6.7477
   444.90         6.7540
   445.04         6.7241
   445.18         6.6633
   445.32         6.5801
   445.46         6.4838
   445.60         6.3839
   445.74         6.2918
   445.88         6.2201
   446.02         6.1804
   446.16         6.1805
   446.30         6.2235
   446.44         6.3077
   446.58         6.4278
   446.72         6.5738
   446.86         6.7319
   447.00         6.8882
   447.14         7.0320
   447.28         7.1566
   447.42         7.2591
   447.56         7.3382
   447.70         7.3928
   447.84         7.4223
   447.98         7.4264
   448.12         7.4054
   448.26         7.3602
   448.40         7.2939
   448.54         7.2135
   448.68         7.1291
   448.82         7.0510
   448.96         6.9877
   449.10         6.9462
   449.24         6.9326
   449.38         6.9503
   449.52         6.9996
   449.66         7.0805
   449.80         7.1910
   449.94         7.3248
   450.08         7.4692
   450.22         7.6085
   450.36         7.7282
   450.50         7.8179
   450.64         7.8722
   450.78         7.8912
   450.92         7.8803
   451.06         7.8480
   451.20         7.8029
   451.34         7.7502
   451.48         7.6904
   451.62         7.6210
   451.76         7.5397
   451.90         7.4460
   452.04         7.3393
   452.18         7.2196
   452.32         7.0902
   452.46         6.9581
   452.60         6.8318
   452.74         6.7201
   452.88         6.6317
   453.02         6.5749
   453.16         6.5562
   453.30         6.5776
   453.44         6.6363
   453.58         6.7239
   453.72         6.8273
   453.86         6.9325
   454.00         7.0273
   454.14         7.1031
   454.28         7.1567
   454.42         7.1908
   454.56         7.2112
   454.70         7.2253
   454.84         7.2407
   454.98         7.2644
   455.12         7.3002
   455.26         7.3468
   455.40         7.4004
   455.54         7.4571
   455.68         7.5141
   455.82         7.5673
   455.96         7.6116
   456.10         7.6442
   456.24         7.6644
   456.38         7.6728
   456.52         7.6718
   456.66         7.6634
   456.80         7.6492
   456.94         7.6310
   457.08         7.6113
   457.22         7.5916
   457.36         7.5719
   457.50         7.5519
   457.64         7.5326
   457.78         7.5163
   457.92         7.5065
   458.06         7.5062
   458.20         7.5154
   458.34         7.5316
   458.48         7.5507
   458.62         7.5697
   458.76         7.5860
   458.90         7.5966
   459.04         7.5982
   459.18         7.5884
   459.32         7.5672
   459.46         7.5389
   459.60         7.5125
   459.74         7.4982
   459.88         7.5041
   460.02         7.5350
   460.16         7.5925
   460.30         7.6740
   460.44         7.7739
   460.58         7.8844
   460.72         7.9973
   460.86         8.1063
   461.00         8.2071
   461.14         8.2968
   461.28         8.3737
   461.42         8.4367
   461.56         8.4852
   461.70         8.5198
   461.84         8.5424
   461.98         8.5560
   462.12         8.5633
   462.26         8.5644
   462.40         8.5557
   462.54         8.5319
   462.68         8.4885
   462.82         8.4240
   462.96         8.3404
   463.10         8.2419
   463.24         8.1323
   463.38         8.0141
   463.52         7.8901
   463.66         7.7636
   463.80         7.6397
   463.94         7.5251
   464.08         7.4263
   464.22         7.3482
   464.36         7.2937
   464.50         7.2645
   464.64         7.2622
   464.78         7.2882
   464.92         7.3419
   465.06         7.4192
   465.20         7.5127
   465.34         7.6122
   465.48         7.7055
   465.62         7.7796
   465.76         7.8238
   465.90         7.8329
   466.04         7.8088
   466.18         7.7584
   466.32         7.6926
   466.46         7.6240
   466.60         7.5641
   466.74         7.5200
   466.88         7.4949
   467.02         7.4900
   467.16         7.5061
   467.30         7.5418
   467.44         7.5917
   467.58         7.6462
   467.72         7.6947
   467.86         7.7294
   468.00         7.7457
   468.14         7.7433
   468.28         7.7264
   468.42         7.7034
   468.56         7.6825
   468.70         7.6668
   468.84         7.6548
   468.98         7.6439
   469.12         7.6317
   469.26         7.6160
   469.40         7.5949
   469.54         7.5688
   469.68         7.5401
   469.82         7.5118
   469.96         7.4862
   470.10         7.4652
   470.24         7.4507
   470.38         7.4445
   470.52         7.4493
   470.66         7.4687
   470.80         7.5053
   470.94         7.5601
   471.08         7.6310
   471.22         7.7132
   471.36         7.8012
   471.50         7.8909
   471.64         7.9780
   471.78         8.0565
   471.92         8.1188
   472.06         8.1584
   472.20         8.1723
   472.34         8.1610
   472.48         8.1284
   472.62         8.0809
   472.76         8.0267
   472.90         7.9749
   473.04         7.9342
   473.18         7.9124
   473.32         7.9139
   473.46         7.9392
   473.60         7.9859
   473.74         8.0499
   473.88         8.1252
   474.02         8.2041
   474.16         8.2766
   474.30         8.3330
   474.44         8.3668
   474.58         8.3772
   474.72         8.3682
   474.86         8.3458
   475.00         8.3153
   475.14         8.2801
   475.28         8.2433
   475.42         8.2076
   475.56         8.1757
   475.70         8.1517
   475.84         8.1402
   475.98         8.1445
   476.12         8.1667
   476.26         8.2072
   476.40         8.2646
   476.54         8.3355
   476.68         8.4160
   476.82         8.5020
   476.96         8.5892
   477.10         8.6721
   477.24         8.7441
   477.38         8.7981
   477.52         8.8276
   477.66         8.8276
   477.80         8.7972
   477.94         8.7405
   478.08         8.6665
   478.22         8.5878
   478.36         8.5172
   478.50         8.4646
   478.64         8.4355
   478.78         8.4317
   478.92         8.4521
   479.06         8.4936
   479.20         8.5520
   479.34         8.6202
   479.48         8.6897
   479.62         8.7518
   479.76         8.8003
   479.90         8.8323
   480.04         8.8475
   480.18         8.8480
   480.32         8.8380
   480.46         8.8237
   480.60         8.8120
   480.74         8.8092
   480.88         8.8182
   481.02         8.8377
   481.16         8.8623
   481.30         8.8860
   481.44         8.9045
   481.58         8.9157
   481.72         8.9181
   481.86         8.9095
   482.00         8.8891
   482.14         8.8585
   482.28         8.8215
   482.42         8.7826
   482.56         8.7461
   482.70         8.7145
   482.84         8.6894
   482.98         8.6720
   483.12         8.6626
   483.26         8.6607
   483.40         8.6648
   483.54         8.6731
   483.68         8.6831
   483.82         8.6937
   483.96         8.7059
   484.10         8.7199
   484.24         8.7332
   484.38         8.7419
   484.52         8.7428
   484.66         8.7341
   484.80         8.7130
   484.94         8.6744
   485.08         8.6142
   485.22         8.5308
   485.36         8.4267
   485.50         8.3085
   485.64         8.1850
   485.78         8.0645
   485.92         7.9532
   486.06         7.8544
   486.20         7.7698
   486.34         7.7010
   486.48         7.6502
   486.62         7.6193
   486.76         7.6086
   486.90         7.6184
   487.04         7.6487
   487.18         7.6978
   487.32         7.7606
   487.46         7.8290
   487.60         7.8957
   487.74         7.9559
   487.88         8.0064
   488.02         8.0435
   488.16         8.0652
   488.30         8.0730
   488.44         8.0718
   488.58         8.0691
   488.72         8.0737
   488.86         8.0943
   489.00         8.1372
   489.14         8.2051
   489.28         8.2963
   489.42         8.4060
   489.56         8.5270
   489.70         8.6493
   489.84         8.7608
   489.98         8.8502
   490.12         8.9104
   490.26         8.9401
   490.40         8.9430
   490.54         8.9257
   490.68         8.8936
   490.82         8.8503
   490.96         8.7964
   491.10         8.7305
   491.24         8.6520
   491.38         8.5619
   491.52         8.4643
   491.66         8.3659
   491.80         8.2762
   491.94         8.2054
   492.08         8.1624
   492.22         8.1525
   492.36         8.1760
   492.50         8.2308
   492.64         8.3116
   492.78         8.4092
   492.92         8.5124
   493.06         8.6111
   493.20         8.6971
   493.34         8.7644
   493.48         8.8111
   493.62         8.8407
   493.76         8.8605
   493.90         8.8786
   494.04         8.9021
   494.18         8.9366
   494.32         8.9854
   494.46         9.0474
   494.60         9.1158
   494.74         9.1794
   494.88         9.2280
   495.02         9.2559
   495.16         9.2615
   495.30         9.2469
   495.44         9.2171
   495.58         9.1784
   495.72         9.1369
   495.86         9.0959
   496.00         9.0566
   496.14         9.0201
   496.28         8.9880
   496.42         8.9627
   496.56         8.9464
   496.70         8.9386
   496.84         8.9357
   496.98         8.9318
   497.12         8.9205
   497.26         8.8963
   497.40         8.8574
   497.54         8.8060
   497.68         8.7462
   497.82         8.6826
   497.96         8.6191
   498.10         8.5589
   498.24         8.5052
   498.38         8.4633
   498.52         8.4392
   498.66         8.4373
   498.80         8.4581
   498.94         8.4984
   499.08         8.5514
   499.22         8.6071
   499.36         8.6536
   499.50         8.6800
   499.64         8.6789
   499.78         8.6477
   499.92         8.5887
   500.06         8.5077
   500.20         8.4114
   500.34         8.3058
   500.48         8.1959
   500.62         8.0860
   500.76         7.9803
   500.90         7.8838
   501.04         7.8006
   501.18         7.7330
   501.32         7.6819
   501.46         7.6480
   501.60         7.6310
   501.74         7.6304
   501.88         7.6461
   502.02         7.6786
   502.16         7.7295
   502.30         7.8012
   502.44         7.8939
   502.58         8.0031
   502.72         8.1204
   502.86         8.2352
   503.00         8.3352
   503.14         8.4106
   503.28         8.4568
   503.42         8.4753
   503.56         8.4707
   503.70         8.4492
   503.84         8.4159
   503.98         8.3768
   504.12         8.3376
   504.26         8.3028
   504.40         8.2771
   504.54         8.2654
   504.68         8.2717
   504.82         8.2982
   504.96         8.3445
   505.10         8.4078
   505.24         8.4831
   505.38         8.5644
   505.52         8.6445
   505.66         8.7173
   505.80         8.7803
   505.94         8.8327
   506.08         8.8726
   506.22         8.8959
   506.36         8.8981
   506.50         8.8778
   506.64         8.8379
   506.78         8.7826
   506.92         8.7154
   507.06         8.6391
   507.20         8.5568
   507.34         8.4722
   507.48         8.3885
   507.62         8.3091
   507.76         8.2378
   507.90         8.1781
   508.04         8.1338
   508.18         8.1091
   508.32         8.1084
   508.46         8.1338
   508.60         8.1824
   508.74         8.2470
   508.88         8.3179
   509.02         8.3859
   509.16         8.4438
   509.30         8.4863
   509.44         8.5095
   509.58         8.5121
   509.72         8.4961
   509.86         8.4655
   510.00         8.4248
   510.14         8.3795
   510.28         8.3358
   510.42         8.2999
   510.56         8.2768
   510.70         8.2704
   510.84         8.2816
   510.98         8.3083
   511.12         8.3448
   511.26         8.3841
   511.40         8.4196
   511.54         8.4456
   511.68         8.4578
   511.82         8.4531
   511.96         8.4292
   512.10         8.3869
   512.24         8.3299
   512.38         8.2647
   512.52         8.1997
   512.66         8.1440
   512.80         8.1042
   512.94         8.0842
   513.08         8.0849
   513.22         8.1046
   513.36         8.1377
   513.50         8.1755
   513.64         8.2080
   513.78         8.2264
   513.92         8.2256
   514.06         8.2040
   514.20         8.1633
   514.34         8.1084
   514.48         8.0469
   514.62         7.9877
   514.76         7.9390
   514.90         7.9058
   515.04         7.8903
   515.18         7.8909
   515.32         7.9016
   515.46         7.9117
   515.60         7.9088
   515.74         7.8815
   515.88         7.8212
   516.02         7.7226
   516.16         7.5846
   516.30         7.4125
   516.44         7.2193
   516.58         7.0233
   516.72         6.8446
   516.86         6.7013
   517.00         6.6065
   517.14         6.5640
   517.28         6.5680
   517.42         6.6083
   517.56         6.6754
   517.70         6.7608
   517.84         6.8561
   517.98         6.9523
   518.12         7.0424
   518.26         7.1235
   518.40         7.1974
   518.54         7.2692
   518.68         7.3441
   518.82         7.4281
   518.96         7.5275
   519.10         7.6451
   519.24         7.7764
   519.38         7.9102
   519.52         8.0306
   519.66         8.1222
   519.80         8.1746
   519.94         8.1876
   520.08         8.1707
   520.22         8.1369
   520.36         8.0960
   520.50         8.0543
   520.64         8.0181
   520.78         7.9945
   520.92         7.9915
   521.06         8.0152
   521.20         8.0670
   521.34         8.1412
   521.48         8.2258
   521.62         8.3062
   521.76         8.3696
   521.90         8.4077
   522.04         8.4177
   522.18         8.4025
   522.32         8.3700
   522.46         8.3317
   522.60         8.3004
   522.74         8.2869
   522.88         8.2983
   523.02         8.3377
   523.16         8.4066
   523.30         8.5041
   523.44         8.6240
   523.58         8.7550
   523.72         8.8822
   523.86         8.9904
   524.00         9.0675
   524.14         9.1075
   524.28         9.1113
   524.42         9.0840
   524.56         9.0338
   524.70         8.9706
   524.84         8.9048
   524.98         8.8443
   525.12         8.7920
   525.26         8.7459
   525.40         8.7002
   525.54         8.6471
   525.68         8.5790
   525.82         8.4888
   525.96         8.3715
   526.10         8.2279
   526.24         8.0652
   526.38         7.8962
   526.52         7.7378
   526.66         7.6091
   526.80         7.5277
   526.94         7.5050
   527.08         7.5450
   527.22         7.6451
   527.36         7.7955
   527.50         7.9813
   527.64         8.1849
   527.78         8.3911
   527.92         8.5893
   528.06         8.7738
   528.20         8.9418
   528.34         9.0911
   528.48         9.2191
   528.62         9.3230
   528.76         9.4006
   528.90         9.4502
   529.04         9.4723
   529.18         9.4708
   529.32         9.4525
   529.46         9.4246
   529.60         9.3952
   529.74         9.3731
   529.88         9.3670
   530.02         9.3846
   530.16         9.4294
   530.30         9.5002
   530.44         9.5920
   530.58         9.6964
   530.72         9.8014
   530.86         9.8939
   531.00         9.9627
   531.14         9.9998
   531.28         10.0015
   531.42         9.9684
   531.56         9.9027
   531.70         9.8065
   531.84         9.6837
   531.98         9.5416
   532.12         9.3894
   532.26         9.2377
   532.40         9.0984
   532.54         8.9834
   532.68         8.9011
   532.82         8.8549
   532.96         8.8438
   533.10         8.8644
   533.24         8.9106
   533.38         8.9743
   533.52         9.0460
   533.66         9.1157
   533.80         9.1739
   533.94         9.2145
   534.08         9.2364
   534.22         9.2438
   534.36         9.2473
   534.50         9.2616
   534.64         9.3000
   534.78         9.3699
   534.92         9.4733
   535.06         9.6056
   535.20         9.7559
   535.34         9.9092
   535.48         10.0502
   535.62         10.1654
   535.76         10.2437
   535.90         10.2766
   536.04         10.2591
   536.18         10.1923
   536.32         10.0851
   536.46         9.9521
   536.60         9.8108
   536.74         9.6782
   536.88         9.5689
   537.02         9.4930
   537.16         9.4551
   537.30         9.4536
   537.44         9.4828
   537.58         9.5340
   537.72         9.5959
   537.86         9.6561
   538.00         9.7030
   538.14         9.7279
   538.28         9.7251
   538.42         9.6921
   538.56         9.6290
   538.70         9.5406
   538.84         9.4359
   538.98         9.3250
   539.12         9.2158
   539.26         9.1124
   539.40         9.0159
   539.54         8.9261
   539.68         8.8433
   539.82         8.7685
   539.96         8.7040
   540.10         8.6544
   540.24         8.6250
   540.38         8.6198
   540.52         8.6416
   540.66         8.6923
   540.80         8.7715
   540.94         8.8765
   541.08         9.0015
   541.22         9.1386
   541.36         9.2802
   541.50         9.4184
   541.64         9.5441
   541.78         9.6468
   541.92         9.7178
   542.06         9.7530
   542.20         9.7529
   542.34         9.7206
   542.48         9.6623
   542.62         9.5868
   542.76         9.5065
   542.90         9.4343
   543.04         9.3821
   543.18         9.3587
   543.32         9.3673
   543.46         9.4051
   543.60         9.4651
   543.74         9.5388
   543.88         9.6199
   544.02         9.7037
   544.16         9.7850
   544.30         9.8554
   544.44         9.9065
   544.58         9.9332
   544.72         9.9362
   544.86         9.9198
   545.00         9.8914
   545.14         9.8592
   545.28         9.8310
   545.42         9.8119
   545.56         9.8029
   545.70         9.8013
   545.84         9.8029
   545.98         9.8033
   546.12         9.7999
   546.26         9.7929
   546.40         9.7831
   546.54         9.7696
   546.68         9.7494
   546.82         9.7192
   546.96         9.6775
   547.10         9.6258
   547.24         9.5686
   547.38         9.5120
   547.52         9.4601
   547.66         9.4148
   547.80         9.3772
   547.94         9.3492
   548.08         9.3330
   548.22         9.3305
   548.36         9.3427
   548.50         9.3697
   548.64         9.4102
   548.78         9.4618
   548.92         9.5217
   549.06         9.5875
   549.20         9.6564
   549.34         9.7244
   549.48         9.7862
   549.62         9.8361
   549.76         9.8695
   549.90         9.8846
   550.04         9.8802
   550.18         9.8549
   550.32         9.8091
   550.46         9.7464
   550.60         9.6729
   550.74         9.5966
   550.88         9.5268
   551.02         9.4722
   551.16         9.4387
   551.30         9.4288
   551.44         9.4422
   551.58         9.4760
   551.72         9.5244
   551.86         9.5788
   552.00         9.6317
   552.14         9.6784
   552.28         9.7163
   552.42         9.7436
   552.56         9.7590
   552.70         9.7620
   552.84         9.7545
   552.98         9.7414
   553.12         9.7289
   553.26         9.7227
   553.40         9.7267
   553.54         9.7425
   553.68         9.7698
   553.82         9.8078
   553.96         9.8564
   554.10         9.9141
   554.24         9.9778
   554.38         10.0434
   554.52         10.1067
   554.66         10.1635
   554.80         10.2092
   554.94         10.2400
   555.08         10.2534
   555.22         10.2495
   555.36         10.2298
   555.50         10.1964
   555.64         10.1521
   555.78         10.0987
   555.92         10.0385
   556.06         9.9760
   556.20         9.9163
   556.34         9.8645
   556.48         9.8242
   556.62         9.7973
   556.76         9.7833
   556.90         9.7809
   557.04         9.7885
   557.18         9.8048
   557.32         9.8273
   557.46         9.8523
   557.60         9.8738
   557.74         9.8843
   557.88         9.8768
   558.02         9.8465
   558.16         9.7921
   558.30         9.7161
   558.44         9.6255
   558.58         9.5306
   558.72         9.4423
   558.86         9.3691
   559.00         9.3159
   559.14         9.2842
   559.28         9.2730
   559.42         9.2804
   559.56         9.3054
   559.70         9.3479
   559.84         9.4061
   559.98         9.4759
   560.12         9.5535
   560.26         9.6359
   560.40         9.7197
   560.54         9.7998
   560.68         9.8709
   560.82         9.9292
   560.96         9.9726
   561.10         10.0003
   561.24         10.0114
   561.38         10.0036
   561.52         9.9744
   561.66         9.9241
   561.80         9.8582
   561.94         9.7870
   562.08         9.7223
   562.22         9.6739
   562.36         9.6475
   562.50         9.6437
   562.64         9.6597
   562.78         9.6908
   562.92         9.7302
   563.06         9.7699
   563.20         9.8037
   563.34         9.8288
   563.48         9.8447
   563.62         9.8516
   563.76         9.8495
   563.90         9.8386
   564.04         9.8202
   564.18         9.7985
   564.32         9.7791
   564.46         9.7664
   564.60         9.7615
   564.74         9.7621
   564.88         9.7628
   565.02         9.7576
   565.16         9.7420
   565.30         9.7142
   565.44         9.6745
   565.58         9.6258
   565.72         9.5729
   565.86         9.5215
   566.00         9.4773
   566.14         9.4469
   566.28         9.4361
   566.42         9.4491
   566.56         9.4879
   566.70         9.5519
   566.84         9.6374
   566.98         9.7377
   567.12         9.8435
   567.26         9.9452
   567.40         10.0338
   567.54         10.1029
   567.68         10.1490
   567.82         10.1706
   567.96         10.1684
   568.10         10.1459
   568.24         10.1093
   568.38         10.0665
   568.52         10.0248
   568.66         9.9910
   568.80         9.9698
   568.94         9.9625
   569.08         9.9664
   569.22         9.9757
   569.36         9.9843
   569.50         9.9862
   569.64         9.9755
   569.78         9.9467
   569.92         9.8967
   570.06         9.8259
   570.20         9.7384
   570.34         9.6414
   570.48         9.5456
   570.62         9.4629
   570.76         9.4036
   570.90         9.3744
   571.04         9.3786
   571.18         9.4167
   571.32         9.4869
   571.46         9.5848
   571.60         9.7036
   571.74         9.8350
   571.88         9.9700
   572.02         10.1001
   572.16         10.2167
   572.30         10.3122
   572.44         10.3826
   572.58         10.4276
   572.72         10.4497
   572.86         10.4530
   573.00         10.4418
   573.14         10.4199
   573.28         10.3901
   573.42         10.3556
   573.56         10.3197
   573.70         10.2854
   573.84         10.2541
   573.98         10.2262
   574.12         10.2009
   574.26         10.1755
   574.40         10.1478
   574.54         10.1170
   574.68         10.0853
   574.82         10.0555
   574.96         10.0301
   575.10         10.0099
   575.24         9.9940
   575.38         9.9822
   575.52         9.9769
   575.66         9.9811
   575.80         9.9977
   575.94         10.0285
   576.08         10.0727
   576.22         10.1267
   576.36         10.1857
   576.50         10.2459
   576.64         10.3043
   576.78         10.3563
   576.92         10.3954
   577.06         10.4150
   577.20         10.4093
   577.34         10.3741
   577.48         10.3065
   577.62         10.2076
   577.76         10.0849
   577.90         9.9511
   578.04         9.8210
   578.18         9.7077
   578.32         9.6211
   578.46         9.5668
   578.60         9.5464
   578.74         9.5571
   578.88         9.5952
   579.02         9.6571
   579.16         9.7373
   579.30         9.8272
   579.44         9.9151
   579.58         9.9904
   579.72         10.0471
   579.86         10.0843
   580.00         10.1050
   580.14         10.1154
   580.28         10.1230
   580.42         10.1329
   580.56         10.1467
   580.70         10.1650
   580.84         10.1896
   580.98         10.2231
   581.12         10.2663
   581.26         10.3186
   581.40         10.3792
   581.54         10.4478
   581.68         10.5223
   581.82         10.5984
   581.96         10.6709
   582.10         10.7349
   582.24         10.7874
   582.38         10.8266
   582.52         10.8514
   582.66         10.8608
   582.80         10.8552
   582.94         10.8363
   583.08         10.8080
   583.22         10.7757
   583.36         10.7452
   583.50         10.7201
   583.64         10.7013
   583.78         10.6879
   583.92         10.6793
   584.06         10.6749
   584.20         10.6728
   584.34         10.6691
   584.48         10.6593
   584.62         10.6383
   584.76         10.6030
   584.90         10.5536
   585.04         10.4938
   585.18         10.4291
   585.32         10.3650
   585.46         10.3072
   585.60         10.2605
   585.74         10.2289
   585.88         10.2145
   586.02         10.2176
   586.16         10.2377
   586.30         10.2740
   586.44         10.3239
   586.58         10.3821
   586.72         10.4408
   586.86         10.4916
   587.00         10.5274
   587.14         10.5433
   587.28         10.5374
   587.42         10.5101
   587.56         10.4612
   587.70         10.3849
   587.84         10.2705
   587.98         10.1097
   588.12         9.9029
   588.26         9.6564
   588.40         9.3786
   588.54         9.0806
   588.68         8.7788
   588.82         8.4957
   588.96         8.2552
   589.10         8.0776
   589.24         7.9774
   589.38         7.9633
   589.52         8.0378
   589.66         8.1962
   589.80         8.4258
   589.94         8.7078
   590.08         9.0181
   590.22         9.3292
   590.36         9.6143
   590.50         9.8557
   590.64         10.0471
   590.78         10.1882
   590.92         10.2805
   591.06         10.3295
   591.20         10.3468
   591.34         10.3471
   591.48         10.3418
   591.62         10.3380
   591.76         10.3384
   591.90         10.3429
   592.04         10.3505
   592.18         10.3590
   592.32         10.3653
   592.46         10.3675
   592.60         10.3655
   592.74         10.3595
   592.88         10.3490
   593.02         10.3342
   593.16         10.3173
   593.30         10.3012
   593.44         10.2882
   593.58         10.2797
   593.72         10.2758
   593.86         10.2758
   594.00         10.2782
   594.14         10.2810
   594.28         10.2821
   594.42         10.2792
   594.56         10.2715
   594.70         10.2605
   594.84         10.2498
   594.98         10.2443
   595.12         10.2490
   595.26         10.2657
   595.40         10.2921
   595.54         10.3250
   595.68         10.3621
   595.82         10.4027
   595.96         10.4465
   596.10         10.4913
   596.24         10.5341
   596.38         10.5714
   596.52         10.5994
   596.66         10.6141
   596.80         10.6125
   596.94         10.5943
   597.08         10.5611
   597.22         10.5144
   597.36         10.4562
   597.50         10.3899
   597.64         10.3196
   597.78         10.2492
   597.92         10.1821
   598.06         10.1226
   598.20         10.0764
   598.34         10.0480
   598.48         10.0390
   598.62         10.0468
   598.76         10.0666
   598.90         10.0943
   599.04         10.1258
   599.18         10.1561
   599.32         10.1810
   599.46         10.1980
   599.60         10.2050
   599.74         10.2001
   599.88         10.1837
   600.02         10.1590
   600.16         10.1300
   600.30         10.0990
   600.44         10.0677
   600.58         10.0371
   600.72         10.0083
   600.86         9.9810
   601.00         9.9542
   601.14         9.9273
   601.28         9.9010
   601.42         9.8776
   601.56         9.8595
   601.70         9.8490
   601.84         9.8481
   601.98         9.8591
   602.12         9.8833
   602.26         9.9205
   602.40         9.9700
   602.54         10.0294
   602.68         10.0954
   602.82         10.1636
   602.96         10.2302
   603.10         10.2922
   603.24         10.3483
   603.38         10.3982
   603.52         10.4424
   603.66         10.4818
   603.80         10.5177
   603.94         10.5507
   604.08         10.5806
   604.22         10.6058
   604.36         10.6245
   604.50         10.6335
   604.64         10.6309
   604.78         10.6167
   604.92         10.5924
   605.06         10.5605
   605.20         10.5233
   605.34         10.4829
   605.48         10.4424
   605.62         10.4058
   605.76         10.3779
   605.90         10.3630
   606.04         10.3627
   606.18         10.3758
   606.32         10.3992
   606.46         10.4289
   606.60         10.4594
   606.74         10.4847
   606.88         10.4993
   607.02         10.4993
   607.16         10.4836
   607.30         10.4532
   607.44         10.4102
   607.58         10.3575
   607.72         10.2983
   607.86         10.2364
   608.00         10.1768
   608.14         10.1252
   608.28         10.0857
   608.42         10.0593
   608.56         10.0446
   608.70         10.0384
   608.84         10.0363
   608.98         10.0331
   609.12         10.0242
   609.26         10.0072
   609.40         9.9828
   609.54         9.9537
   609.68         9.9243
   609.82         9.8994
   609.96         9.8828
   610.10         9.8779
   610.24         9.8868
   610.38         9.9088
   610.52         9.9417
   610.66         9.9819
   610.80         10.0238
   610.94         10.0605
   611.08         10.0856
   611.22         10.0964
   611.36         10.0929
   611.50         10.0760
   611.64         10.0482
   611.78         10.0145
   611.92         9.9812
   612.06         9.9539
   612.20         9.9358
   612.34         9.9263
   612.48         9.9210
   612.62         9.9151
   612.76         9.9064
   612.90         9.8941
   613.04         9.8774
   613.18         9.8564
   613.32         9.8328
   613.46         9.8098
   613.60         9.7919
   613.74         9.7838
   613.88         9.7893
   614.02         9.8091
   614.16         9.8407
   614.30         9.8806
   614.44         9.9250
   614.58         9.9695
   614.72         10.0087
   614.86         10.0356
   615.00         10.0426
   615.14         10.0254
   615.28         9.9852
   615.42         9.9272
   615.56         9.8566
   615.70         9.7774
   615.84         9.6939
   615.98         9.6112
   616.12         9.5354
   616.26         9.4727
   616.40         9.4286
   616.54         9.4075
   616.68         9.4117
   616.82         9.4411
   616.96         9.4941
   617.10         9.5674
   617.24         9.6561
   617.38         9.7526
   617.52         9.8482
   617.66         9.9345
   617.80         10.0047
   617.94         10.0539
   618.08         10.0792
   618.22         10.0803
   618.36         10.0601
   618.50         10.0249
   618.64         9.9834
   618.78         9.9446
   618.92         9.9157
   619.06         9.9016
   619.20         9.9056
   619.34         9.9289
   619.48         9.9705
   619.62         10.0271
   619.76         10.0937
   619.90         10.1634
   620.04         10.2283
   620.18         10.2797
   620.32         10.3094
   620.46         10.3122
   620.60         10.2877
   620.74         10.2398
   620.88         10.1745
   621.02         10.0968
   621.16         10.0111
   621.30         9.9228
   621.44         9.8377
   621.58         9.7627
   621.72         9.7043
   621.86         9.6653
   622.00         9.6441
   622.14         9.6369
   622.28         9.6409
   622.42         9.6539
   622.56         9.6737
   622.70         9.6966
   622.84         9.7186
   622.98         9.7360
   623.12         9.7467
   623.26         9.7492
   623.40         9.7427
   623.54         9.7271
   623.68         9.7050
   623.82         9.6806
   623.96         9.6581
   624.10         9.6390
   624.24         9.6221
   624.38         9.6048
   624.52         9.5841
   624.66         9.5587
   624.80         9.5290
   624.94         9.4967
   625.08         9.4622
   625.22         9.4235
   625.36         9.3790
   625.50         9.3297
   625.64         9.2801
   625.78         9.2361
   625.92         9.2040
   626.06         9.1898
   626.20         9.1978
   626.34         9.2287
   626.48         9.2786
   626.62         9.3405
   626.76         9.4059
   626.90         9.4673
   627.04         9.5177
   627.18         9.5523
   627.32         9.5689
   627.46         9.5698
   627.60         9.5608
   627.74         9.5492
   627.88         9.5420
   628.02         9.5450
   628.16         9.5616
   628.30         9.5926
   628.44         9.6360
   628.58         9.6873
   628.72         9.7402
   628.86         9.7878
   629.00         9.8235
   629.14         9.8422
   629.28         9.8418
   629.42         9.8232
   629.56         9.7897
   629.70         9.7478
   629.84         9.7063
   629.98         9.6727
   630.12         9.6518
   630.26         9.6449
   630.40         9.6495
   630.54         9.6607
   630.68         9.6717
   630.82         9.6768
   630.96         9.6725
   631.10         9.6582
   631.24         9.6351
   631.38         9.6068
   631.52         9.5792
   631.66         9.5582
   631.80         9.5487
   631.94         9.5541
   632.08         9.5757
   632.22         9.6134
   632.36         9.6636
   632.50         9.7192
   632.64         9.7716
   632.78         9.8136
   632.92         9.8406
   633.06         9.8505
   633.20         9.8427
   633.34         9.8183
   633.48         9.7821
   633.62         9.7410
   633.76         9.7019
   633.90         9.6702
   634.04         9.6500
   634.18         9.6431
   634.32         9.6480
   634.46         9.6615
   634.60         9.6798
   634.74         9.6985
   634.88         9.7107
   635.02         9.7096
   635.16         9.6907
   635.30         9.6541
   635.44         9.6028
   635.58         9.5412
   635.72         9.4756
   635.86         9.4130
   636.00         9.3611
   636.14         9.3273
   636.28         9.3174
   636.42         9.3338
   636.56         9.3756
   636.70         9.4379
   636.84         9.5125
   636.98         9.5907
   637.12         9.6657
   637.26         9.7319
   637.40         9.7850
   637.54         9.8227
   637.68         9.8460
   637.82         9.8580
   637.96         9.8624
   638.10         9.8617
   638.24         9.8573
   638.38         9.8508
   638.52         9.8440
   638.66         9.8382
   638.80         9.8332
   638.94         9.8275
   639.08         9.8196
   639.22         9.8093
   639.36         9.7980
   639.50         9.7877
   639.64         9.7802
   639.78         9.7762
   639.92         9.7752
   640.06         9.7761
   640.20         9.7776
   640.34         9.7784
   640.48         9.7772
   640.62         9.7722
   640.76         9.7618
   640.90         9.7452
   641.04         9.7245
   641.18         9.7034
   641.32         9.6850
   641.46         9.6720
   641.60         9.6678
   641.74         9.6751
   641.88         9.6932
   642.02         9.7185
   642.16         9.7464
   642.30         9.7744
   642.44         9.8010
   642.58         9.8243
   642.72         9.8419
   642.86         9.8518
   643.00         9.8537
   643.14         9.8490
   643.28         9.8406
   643.42         9.8325
   643.56         9.8287
   643.70         9.8312
   643.84         9.8387
   643.98         9.8474
   644.12         9.8537
   644.26         9.8552
   644.40         9.8498
   644.54         9.8370
   644.68         9.8198
   644.82         9.8031
   644.96         9.7907
   645.10         9.7826
   645.24         9.7775
   645.38         9.7757
   645.52         9.7790
   645.66         9.7896
   645.80         9.8074
   645.94         9.8299
   646.08         9.8541
   646.22         9.8775
   646.36         9.8976
   646.50         9.9146
   646.64         9.9308
   646.78         9.9483
   646.92         9.9673
   647.06         9.9863
   647.20         10.0036
   647.34         10.0180
   647.48         10.0276
   647.62         10.0304
   647.76         10.0248
   647.90         10.0108
   648.04         9.9883
   648.18         9.9554
   648.32         9.9089
   648.46         9.8463
   648.60         9.7682
   648.74         9.6786
   648.88         9.5837
   649.02         9.4904
   649.16         9.4068
   649.30         9.3405
   649.44         9.2977
   649.58         9.2829
   649.72         9.2989
   649.86         9.3459
   650.00         9.4214
   650.14         9.5196
   650.28         9.6316
   650.42         9.7471
   650.56         9.8563
   650.70         9.9511
   650.84         10.0266
   650.98         10.0821
   651.12         10.1197
   651.26         10.1439
   651.40         10.1594
   651.54         10.1696
   651.68         10.1767
   651.82         10.1818
   651.96         10.1851
   652.10         10.1857
   652.24         10.1826
   652.38         10.1757
   652.52         10.1655
   652.66         10.1539
   652.80         10.1437
   652.94         10.1374
   653.08         10.1365
   653.22         10.1419
   653.36         10.1531
   653.50         10.1684
   653.64         10.1857
   653.78         10.2029
   653.92         10.2180
   654.06         10.2281
   654.20         10.2297
   654.34         10.2199
   654.48         10.1973
   654.62         10.1620
   654.76         10.1153
   654.90         10.0580
   655.04         9.9891
   655.18         9.9073
   655.32         9.8151
   655.46         9.7189
   655.60         9.6258
   655.74         9.5421
   655.88         9.4732
   656.02         9.4238
   656.16         9.3975
   656.30         9.3956
   656.44         9.4179
   656.58         9.4632
   656.72         9.5282
   656.86         9.6075
   657.00         9.6945
   657.14         9.7828
   657.28         9.8668
   657.42         9.9416
   657.56         10.0042
   657.70         10.0546
   657.84         10.0958
   657.98         10.1300
   658.12         10.1554
   658.26         10.1667
   658.40         10.1602
   658.54         10.1367
   658.68         10.1002
   658.82         10.0568
   658.96         10.0146
   659.10         9.9818
   659.24         9.9639
   659.38         9.9629
   659.52         9.9771
   659.66         10.0033
   659.80         10.0380
   659.94         10.0778
   660.08         10.1185
   660.22         10.1552
   660.36         10.1834
   660.50         10.1997
   660.64         10.2041
   660.78         10.1999
   660.92         10.1929
   661.06         10.1889
   661.20         10.1909
   661.34         10.1993
   661.48         10.2130
   661.62         10.2291
   661.76         10.2439
   661.90         10.2522
   662.04         10.2494
   662.18         10.2320
   662.32         10.2000
   662.46         10.1571
   662.60         10.1082
   662.74         10.0577
   662.88         10.0098
   663.02         9.9680
   663.16         9.9350
   663.30         9.9113
   663.44         9.8959
   663.58         9.8875
   663.72         9.8855
   663.86         9.8894
   664.00         9.8979
   664.14         9.9094
   664.28         9.9218
   664.42         9.9336
   664.56         9.9435
   664.70         9.9513
   664.84         9.9581
   664.98         9.9646
   665.12         9.9701
   665.26         9.9727
   665.40         9.9702
   665.54         9.9612
   665.68         9.9453
   665.82         9.9240
   665.96         9.9002
   666.10         9.8776
   666.24         9.8594
   666.38         9.8478
   666.52         9.8425
   666.66         9.8417
   666.80         9.8445
   666.94         9.8507
   667.08         9.8596
   667.22         9.8698
   667.36         9.8801
   667.50         9.8894
   667.64         9.8972
   667.78         9.9045
   667.92         9.9131
   668.06         9.9252
   668.20         9.9420
   668.34         9.9627
   668.48         9.9849
   668.62         10.0047
   668.76         10.0184
   668.90         10.0240
   669.04         10.0201
   669.18         10.0061
   669.32         9.9832
   669.46         9.9548
   669.60         9.9245
   669.74         9.8955
   669.88         9.8701
   670.02         9.8498
   670.16         9.8346
   670.30         9.8230
   670.44         9.8130
   670.58         9.8017
   670.72         9.7870
   670.86         9.7679
   671.00         9.7454
   671.14         9.7228
   671.28         9.7046
   671.42         9.6947
   671.56         9.6956
   671.70         9.7084
   671.84         9.7324
   671.98         9.7667
   672.12         9.8089
   672.26         9.8552
   672.40         9.9011
   672.54         9.9418
   672.68         9.9725
   672.82         9.9900
   672.96         9.9926
   673.10         9.9811
   673.24         9.9578
   673.38         9.9267
   673.52         9.8925
   673.66         9.8596
   673.80         9.8308
   673.94         9.8073
   674.08         9.7891
   674.22         9.7763
   674.36         9.7691
   674.50         9.7680
   674.64         9.7737
   674.78         9.7865
   674.92         9.8059
   675.06         9.8312
   675.20         9.8608
   675.34         9.8925
   675.48         9.9235
   675.62         9.9504
   675.76         9.9706
   675.90         9.9820
   676.04         9.9834
   676.18         9.9745
   676.32         9.9562
   676.46         9.9309
   676.60         9.9026
   676.74         9.8764
   676.88         9.8571
   677.02         9.8477
   677.16         9.8480
   677.30         9.8549
   677.44         9.8645
   677.58         9.8740
   677.72         9.8813
   677.86         9.8857
   678.00         9.8866
   678.14         9.8839
   678.28         9.8780
   678.42         9.8701
   678.56         9.8626
   678.70         9.8577
   678.84         9.8575
   678.98         9.8628
   679.12         9.8732
   679.26         9.8867
   679.40         9.9007
   679.54         9.9133
   679.68         9.9228
   679.82         9.9283
   679.96         9.9307
   680.10         9.9319
   680.24         9.9336
   680.38         9.9360
   680.52         9.9387
   680.66         9.9404
   680.80         9.9391
   680.94         9.9340
   681.08         9.9254
   681.22         9.9142
   681.36         9.9014
   681.50         9.8877
   681.64         9.8734
   681.78         9.8589
   681.92         9.8453
   682.06         9.8339
   682.20         9.8248
   682.34         9.8175
   682.48         9.8116
   682.62         9.8061
   682.76         9.7998
   682.90         9.7901
   683.04         9.7738
   683.18         9.7493
   683.32         9.7166
   683.46         9.6770
   683.60         9.6337
   683.74         9.5914
   683.88         9.5544
   684.02         9.5267
   684.16         9.5114
   684.30         9.5098
   684.44         9.5211
   684.58         9.5427
   684.72         9.5703
   684.86         9.5987
   685.00         9.6223
   685.14         9.6364
   685.28         9.6372
   685.42         9.6226
   685.56         9.5897
   685.70         9.5353
   685.84         9.4566
   685.98         9.3520
   686.12         9.2218
   686.26         9.0685
   686.40         8.8969
   686.54         8.7144
   686.68         8.5313
   686.82         8.3589
   686.96         8.2080
   687.10         8.0888
   687.24         8.0101
   687.38         7.9777
   687.52         7.9924
   687.66         8.0504
   687.80         8.1445
   687.94         8.2650
   688.08         8.3991
   688.22         8.5331
   688.36         8.6551
   688.50         8.7574
   688.64         8.8368
   688.78         8.8932
   688.92         8.9287
   689.06         8.9467
   689.20         8.9519
   689.34         8.9493
   689.48         8.9431
   689.62         8.9374
   689.76         8.9352
   689.90         8.9390
   690.04         8.9501
   690.18         8.9689
   690.32         8.9945
   690.46         9.0256
   690.60         9.0607
   690.74         9.0977
   690.88         9.1344
   691.02         9.1697
   691.16         9.2024
   691.30         9.2312
   691.44         9.2543
   691.58         9.2701
   691.72         9.2779
   691.86         9.2780
   692.00         9.2711
   692.14         9.2590
   692.28         9.2439
   692.42         9.2284
   692.56         9.2149
   692.70         9.2055
   692.84         9.2014
   692.98         9.2041
   693.12         9.2150
   693.26         9.2339
   693.40         9.2588
   693.54         9.2871
   693.68         9.3163
   693.82         9.3436
   693.96         9.3665
   694.10         9.3836
   694.24         9.3946
   694.38         9.4002
   694.52         9.4014
   694.66         9.3998
   694.80         9.3968
   694.94         9.3935
   695.08         9.3915
   695.22         9.3919
   695.36         9.3953
   695.50         9.4023
   695.64         9.4139
   695.78         9.4302
   695.92         9.4504
   696.06         9.4739
   696.20         9.5008
   696.34         9.5297
   696.48         9.5565
   696.62         9.5752
   696.76         9.5794
   696.90         9.5652
   697.04         9.5330
   697.18         9.4866
   697.32         9.4318
   697.46         9.3753
   697.60         9.3236
   697.74         9.2820
   697.88         9.2541
   698.02         9.2420
   698.16         9.2471
   698.30         9.2690
   698.44         9.3049
   698.58         9.3509
   698.72         9.4018
   698.86         9.4506
   699.00         9.4894
   699.14         9.5121
   699.28         9.5150
   699.42         9.4979
   699.56         9.4644
   699.70         9.4203
   699.84         9.3718
   699.98         9.3239
   700.12         9.2806
   700.26         9.2447
   700.40         9.2171
   700.54         9.1976
   700.68         9.1860
   700.82         9.1826
   700.96         9.1866
   701.10         9.1959
   701.24         9.2065
   701.38         9.2139
   701.52         9.2144
   701.66         9.2069
   701.80         9.1917
   701.94         9.1701
   702.08         9.1444
   702.22         9.1184
   702.36         9.0963
   702.50         9.0805
   702.64         9.0713
   702.78         9.0677
   702.92         9.0694
   703.06         9.0774
   703.20         9.0939
   703.34         9.1202
   703.48         9.1560
   703.62         9.1994
   703.76         9.2478
   703.90         9.2982
   704.04         9.3467
   704.18         9.3898
   704.32         9.4250
   704.46         9.4518
   704.60         9.4708
   704.74         9.4819
   704.88         9.4854
   705.02         9.4819
   705.16         9.4720
   705.30         9.4571
   705.44         9.4389
   705.58         9.4185
   705.72         9.3959
   705.86         9.3718
   706.00         9.3489
   706.14         9.3309
   706.28         9.3206
   706.42         9.3186
   706.56         9.3240
   706.70         9.3364
   706.84         9.3565
   706.98         9.3842
   707.12         9.4166
   707.26         9.4474
   707.40         9.4699
   707.54         9.4796
   707.68         9.4742
   707.82         9.4530
   707.96         9.4169
   708.10         9.3685
   708.24         9.3122
   708.38         9.2542
   708.52         9.2017
   708.66         9.1607
   708.80         9.1340
   708.94         9.1228
   709.08         9.1262
   709.22         9.1429
   709.36         9.1698
   709.50         9.2019
   709.64         9.2322
   709.78         9.2540
   709.92         9.2629
   710.06         9.2576
   710.20         9.2398
   710.34         9.2123
   710.48         9.1783
   710.62         9.1409
   710.76         9.1026
   710.90         9.0664
   711.04         9.0354
   711.18         9.0124
   711.32         8.9978
   711.46         8.9906
   711.60         8.9899
   711.74         8.9945
   711.88         9.0026
   712.02         9.0125
   712.16         9.0231
   712.30         9.0345
   712.44         9.0486
   712.58         9.0674
   712.72         9.0921
   712.86         9.1220
   713.00         9.1546
   713.14         9.1859
   713.28         9.2127
   713.42         9.2326
   713.56         9.2443
   713.70         9.2470
   713.84         9.2401
   713.98         9.2250
   714.12         9.2051
   714.26         9.1833
   714.40         9.1618
   714.54         9.1429
   714.68         9.1292
   714.82         9.1229
   714.96         9.1252
   715.10         9.1354
   715.24         9.1495
   715.38         9.1631
   715.52         9.1733
   715.66         9.1785
   715.80         9.1776
   715.94         9.1707
   716.08         9.1584
   716.22         9.1414
   716.36         9.1201
   716.50         9.0950
   716.64         9.0672
   716.78         9.0360
   716.92         9.0007
   717.06         8.9615
   717.20         8.9189
   717.34         8.8716
   717.48         8.8178
   717.62         8.7571
   717.76         8.6902
   717.90         8.6197
   718.04         8.5490
   718.18         8.4823
   718.32         8.4245
   718.46         8.3802
   718.60         8.3534
   718.74         8.3458
   718.88         8.3565
   719.02         8.3844
   719.16         8.4279
   719.30         8.4827
   719.44         8.5423
   719.58         8.6011
   719.72         8.6562
   719.86         8.7069
   720.00         8.7545
   720.14         8.8020
   720.28         8.8523
   720.42         8.9071
   720.56         8.9668
   720.70         9.0311
   720.84         9.0999
   720.98         9.1718
   721.12         9.2432
   721.26         9.3093
   721.40         9.3655
   721.54         9.4082
   721.68         9.4353
   721.82         9.4457
   721.96         9.4408
   722.10         9.4247
   722.24         9.4024
   722.38         9.3780
   722.52         9.3534
   722.66         9.3284
   722.80         9.3024
   722.94         9.2759
   723.08         9.2511
   723.22         9.2288
   723.36         9.2085
   723.50         9.1906
   723.64         9.1768
   723.78         9.1683
   723.92         9.1648
   724.06         9.1642
   724.20         9.1641
   724.34         9.1631
   724.48         9.1610
   724.62         9.1572
   724.76         9.1498
   724.90         9.1363
   725.04         9.1160
   725.18         9.0904
   725.32         9.0621
   725.46         9.0343
   725.60         9.0098
   725.74         8.9900
   725.88         8.9752
   726.02         8.9653
   726.16         8.9602
   726.30         8.9581
   726.44         8.9555
   726.58         8.9487
   726.72         8.9361
   726.86         8.9179
   727.00         8.8948
   727.14         8.8675
   727.28         8.8370
   727.42         8.8051
   727.56         8.7741
   727.70         8.7461
   727.84         8.7210
   727.98         8.6972
   728.12         8.6731
   728.26         8.6479
   728.40         8.6219
   728.54         8.5972
   728.68         8.5763
   728.82         8.5610
   728.96         8.5531
   729.10         8.5536
   729.24         8.5628
   729.38         8.5809
   729.52         8.6072
   729.66         8.6399
   729.80         8.6771
   729.94         8.7165
   730.08         8.7558
   730.22         8.7925
   730.36         8.8242
   730.50         8.8490
   730.64         8.8666
   730.78         8.8777
   730.92         8.8835
   731.06         8.8854
   731.20         8.8830
   731.34         8.8751
   731.48         8.8604
   731.62         8.8389
   731.76         8.8112
   731.90         8.7782
   732.04         8.7417
   732.18         8.7042
   732.32         8.6686
   732.46         8.6385
   732.60         8.6168
   732.74         8.6061
   732.88         8.6073
   733.02         8.6206
   733.16         8.6446
   733.30         8.6777
   733.44         8.7183
   733.58         8.7654
   733.72         8.8170
   733.86         8.8693
   734.00         8.9182
   734.14         8.9600
   734.28         8.9915
   734.42         9.0090
   734.56         9.0100
   734.70         8.9942
   734.84         8.9648
   734.98         8.9263
   735.12         8.8824
   735.26         8.8363
   735.40         8.7916
   735.54         8.7516
   735.68         8.7190
   735.82         8.6947
   735.96         8.6792
   736.10         8.6737
   736.24         8.6786
   736.38         8.6924
   736.52         8.7124
   736.66         8.7360
   736.80         8.7615
   736.94         8.7875
   737.08         8.8130
   737.22         8.8378
   737.36         8.8612
   737.50         8.8802
   737.64         8.8900
   737.78         8.8856
   737.92         8.8646
   738.06         8.8281
   738.20         8.7794
   738.34         8.7236
   738.48         8.6675
   738.62         8.6185
   738.76         8.5823
   738.90         8.5621
   739.04         8.5580
   739.18         8.5691
   739.32         8.5934
   739.46         8.6284
   739.60         8.6692
   739.74         8.7100
   739.88         8.7441
   740.02         8.7661
   740.16         8.7730
   740.30         8.7651
   740.44         8.7448
   740.58         8.7157
   740.72         8.6819
   740.86         8.6469
   741.00         8.6128
   741.14         8.5812
   741.28         8.5528
   741.42         8.5287
   741.56         8.5107
   741.70         8.5016
   741.84         8.5033
   741.98         8.5154
   742.12         8.5358
   742.26         8.5607
   742.40         8.5860
   742.54         8.6078
   742.68         8.6236
   742.82         8.6318
   742.96         8.6318
   743.10         8.6236
   743.24         8.6078
   743.38         8.5860
   743.52         8.5607
   743.66         8.5358
   743.80         8.5154
   743.94         8.5033
   744.08         8.5016
   744.22         8.5107
