# File SAO76803
# Wavelength [nm]    Normalized Amplitude
   349.70         4.4997
   349.84         4.4913
   349.98         4.5135
   350.12         4.5572
   350.26         4.6070
   350.40         4.6489
   350.54         4.6761
   350.68         4.6916
   350.82         4.7008
   350.96         4.7056
   351.10         4.7069
   351.24         4.7056
   351.38         4.7008
   351.52         4.6916
   351.66         4.6761
   351.80         4.6489
   351.94         4.6070
   352.08         4.5572
   352.22         4.5135
   352.36         4.4913
   352.50         4.4997
   352.64         4.5429
   352.78         4.6235
   352.92         4.7441
   353.06         4.9076
   353.20         5.1132
   353.34         5.3508
   353.48         5.5931
   353.62         5.8068
   353.76         5.9705
   353.90         6.0785
   354.04         6.1361
   354.18         6.1535
   354.32         6.1353
   354.46         6.0787
   354.60         5.9867
   354.74         5.8723
   354.88         5.7500
   355.02         5.6291
   355.16         5.5115
   355.30         5.3941
   355.44         5.2713
   355.58         5.1342
   355.72         4.9751
   355.86         4.7957
   356.00         4.6050
   356.14         4.4130
   356.28         4.2274
   356.42         4.0552
   356.56         3.9063
   356.70         3.7899
   356.84         3.7059
   356.98         3.6463
   357.12         3.6051
   357.26         3.5807
   357.40         3.5650
   357.54         3.5435
   357.68         3.5036
   357.82         3.4389
   357.96         3.3515
   358.10         3.2529
   358.24         3.1644
   358.38         3.1122
   358.52         3.1191
   358.66         3.1973
   358.80         3.3498
   358.94         3.5751
   359.08         3.8669
   359.22         4.2090
   359.36         4.5744
   359.50         4.9309
   359.64         5.2477
   359.78         5.5017
   359.92         5.6788
   360.06         5.7716
   360.20         5.7803
   360.34         5.7176
   360.48         5.6067
   360.62         5.4736
   360.76         5.3417
   360.90         5.2314
   361.04         5.1599
   361.18         5.1390
   361.32         5.1736
   361.46         5.2631
   361.60         5.3993
   361.74         5.5649
   361.88         5.7409
   362.02         5.9108
   362.16         6.0572
   362.30         6.1674
   362.44         6.2426
   362.58         6.2961
   362.72         6.3470
   362.86         6.4153
   363.00         6.5144
   363.14         6.6458
   363.28         6.8008
   363.42         6.9662
   363.56         7.1290
   363.70         7.2754
   363.84         7.3970
   363.98         7.4941
   364.12         7.5672
   364.26         7.6122
   364.40         7.6271
   364.54         7.6227
   364.68         7.6232
   364.82         7.6587
   364.96         7.7578
   365.10         7.9382
   365.24         8.1997
   365.38         8.5248
   365.52         8.8851
   365.66         9.2486
   365.80         9.5859
   365.94         9.8713
   366.08         10.0876
   366.22         10.2291
   366.36         10.2983
   366.50         10.3041
   366.64         10.2506
   366.78         10.1346
   366.92         9.9602
   367.06         9.7452
   367.20         9.5135
   367.34         9.2833
   367.48         9.0603
   367.62         8.8423
   367.76         8.6275
   367.90         8.4222
   368.04         8.2426
   368.18         8.1029
   368.32         8.0100
   368.46         7.9639
   368.60         7.9620
   368.74         8.0058
   368.88         8.0990
   369.02         8.2403
   369.16         8.4183
   369.30         8.6115
   369.44         8.7973
   369.58         8.9562
   369.72         9.0679
   369.86         9.1144
   370.00         9.0885
   370.14         8.9990
   370.28         8.8681
   370.42         8.7225
   370.56         8.5845
   370.70         8.4651
   370.84         8.3612
   370.98         8.2624
   371.12         8.1577
   371.26         8.0390
   371.40         7.9050
   371.54         7.7545
   371.68         7.5829
   371.82         7.3859
   371.96         7.1653
   372.10         6.9280
   372.24         6.6830
   372.38         6.4399
   372.52         6.2073
   372.66         5.9938
   372.80         5.8025
   372.94         5.6311
   373.08         5.4731
   373.22         5.3229
   373.36         5.1800
   373.50         5.0453
   373.64         4.9200
   373.78         4.8086
   373.92         4.7200
   374.06         4.6635
   374.20         4.6450
   374.34         4.6687
   374.48         4.7342
   374.62         4.8327
   374.76         4.9499
   374.90         5.0742
   375.04         5.1994
   375.18         5.3229
   375.32         5.4445
   375.46         5.5627
   375.60         5.6755
   375.74         5.7821
   375.88         5.8840
   376.02         5.9854
   376.16         6.0908
   376.30         6.2099
   376.44         6.3581
   376.58         6.5489
   376.72         6.7881
   376.86         7.0747
   377.00         7.3990
   377.14         7.7415
   377.28         8.0814
   377.42         8.4034
   377.56         8.6940
   377.70         8.9374
   377.84         9.1143
   377.98         9.2078
   378.12         9.2084
   378.26         9.1154
   378.40         8.9338
   378.54         8.6739
   378.68         8.3500
   378.82         7.9802
   378.96         7.5876
   379.10         7.2002
   379.24         6.8489
   379.38         6.5639
   379.52         6.3660
   379.66         6.2618
   379.80         6.2460
   379.94         6.3058
   380.08         6.4208
   380.22         6.5632
   380.36         6.7033
   380.50         6.8132
   380.64         6.8707
   380.78         6.8608
   380.92         6.7757
   381.06         6.6133
   381.20         6.3771
   381.34         6.0775
   381.48         5.7328
   381.62         5.3676
   381.76         5.0061
   381.90         4.6666
   382.04         4.3582
   382.18         4.0839
   382.32         3.8460
   382.46         3.6479
   382.60         3.4933
   382.74         3.3806
   382.88         3.2983
   383.02         3.2316
   383.16         3.1738
   383.30         3.1296
   383.44         3.1061
   383.58         3.1076
   383.72         3.1386
   383.86         3.2032
   384.00         3.3028
   384.14         3.4350
   384.28         3.5933
   384.42         3.7697
   384.56         3.9555
   384.70         4.1400
   384.84         4.3115
   384.98         4.4625
   385.12         4.5900
   385.26         4.6917
   385.40         4.7640
   385.54         4.8047
   385.68         4.8184
   385.82         4.8146
   385.96         4.7989
   386.10         4.7714
   386.24         4.7334
   386.38         4.6912
   386.52         4.6518
   386.66         4.6193
   386.80         4.5953
   386.94         4.5790
   387.08         4.5702
   387.22         4.5708
   387.36         4.5840
   387.50         4.6141
   387.64         4.6670
   387.78         4.7493
   387.92         4.8686
   388.06         5.0344
   388.20         5.2582
   388.34         5.5478
   388.48         5.9029
   388.62         6.3153
   388.76         6.7705
   388.90         7.2489
   389.04         7.7279
   389.18         8.1830
   389.32         8.5896
   389.46         8.9285
   389.60         9.1884
   389.74         9.3679
   389.88         9.4739
   390.02         9.5182
   390.16         9.5189
   390.30         9.5010
   390.44         9.4921
   390.58         9.5114
   390.72         9.5618
   390.86         9.6298
   391.00         9.6897
   391.14         9.7153
   391.28         9.6881
   391.42         9.5970
   391.56         9.4347
   391.70         9.1962
   391.84         8.8775
   391.98         8.4783
   392.12         8.0045
   392.26         7.4695
   392.40         6.8951
   392.54         6.3100
   392.68         5.7455
   392.82         5.2322
   392.96         4.7957
   393.10         4.4540
   393.24         4.2177
   393.38         4.0944
   393.52         4.0900
   393.66         4.2089
   393.80         4.4516
   393.94         4.8094
   394.08         5.2620
   394.22         5.7801
   394.36         6.3325
   394.50         6.8905
   394.64         7.4306
   394.78         7.9340
   394.92         8.3836
   395.06         8.7617
   395.20         9.0486
   395.34         9.2239
   395.48         9.2700
   395.62         9.1758
   395.76         8.9400
   395.90         8.5734
   396.04         8.1009
   396.18         7.5601
   396.32         7.0002
   396.46         6.4766
   396.60         6.0444
   396.74         5.7516
   396.88         5.6355
   397.02         5.7202
   397.16         6.0122
   397.30         6.5000
   397.44         7.1560
   397.58         7.9420
   397.72         8.8141
   397.86         9.7270
   398.00         10.6383
   398.14         11.5118
   398.28         12.3180
   398.42         13.0366
   398.56         13.6597
   398.70         14.1889
   398.84         14.6356
   398.98         15.0171
   399.12         15.3499
   399.26         15.6426
   399.40         15.8951
   399.54         16.1050
   399.68         16.2743
   399.82         16.4084
   399.96         16.5130
   400.10         16.5969
   400.24         16.6732
   400.38         16.7556
   400.52         16.8545
   400.66         16.9769
   400.80         17.1258
   400.94         17.2985
   401.08         17.4883
   401.22         17.6868
   401.36         17.8852
   401.50         18.0724
   401.64         18.2322
   401.78         18.3449
   401.92         18.3898
   402.06         18.3501
   402.20         18.2195
   402.34         18.0045
   402.48         17.7236
   402.62         17.4079
   402.76         17.0956
   402.90         16.8205
   403.04         16.6020
   403.18         16.4423
   403.32         16.3289
   403.46         16.2415
   403.60         16.1632
   403.74         16.0892
   403.88         16.0294
   404.02         15.9984
   404.16         16.0043
   404.30         16.0449
   404.44         16.1093
   404.58         16.1823
   404.72         16.2519
   404.86         16.3152
   405.00         16.3738
   405.14         16.4232
   405.28         16.4484
   405.42         16.4290
   405.56         16.3505
   405.70         16.2115
   405.84         16.0203
   405.98         15.7941
   406.12         15.5626
   406.26         15.3629
   406.40         15.2242
   406.54         15.1546
   406.68         15.1414
   406.82         15.1647
   406.96         15.2121
   407.10         15.2813
   407.24         15.3777
   407.38         15.5114
   407.52         15.6939
   407.66         15.9348
   407.80         16.2405
   407.94         16.6146
   408.08         17.0529
   408.22         17.5375
   408.36         18.0364
   408.50         18.5074
   408.64         18.9092
   408.78         19.2085
   408.92         19.3812
   409.06         19.4145
   409.20         19.3135
   409.34         19.1050
   409.48         18.8307
   409.62         18.5342
   409.76         18.2520
   409.90         18.0134
   410.04         17.8392
   410.18         17.7416
   410.32         17.7229
   410.46         17.7735
   410.60         17.8703
   410.74         17.9830
   410.88         18.0835
   411.02         18.1512
   411.16         18.1741
   411.30         18.1484
   411.44         18.0776
   411.58         17.9708
   411.72         17.8394
   411.86         17.6927
   412.00         17.5341
   412.14         17.3599
   412.28         17.1648
   412.42         16.9496
   412.56         16.7227
   412.70         16.4965
   412.84         16.2850
   412.98         16.0972
   413.12         15.9300
   413.26         15.7715
   413.40         15.6129
   413.54         15.4552
   413.68         15.3020
   413.82         15.1533
   413.96         15.0053
   414.10         14.8542
   414.24         14.6979
   414.38         14.5354
   414.52         14.3685
   414.66         14.2067
   414.80         14.0677
   414.94         13.9737
   415.08         13.9435
   415.22         13.9852
   415.36         14.0935
   415.50         14.2521
   415.64         14.4402
   415.78         14.6402
   415.92         14.8395
   416.06         15.0275
   416.20         15.1889
   416.34         15.3044
   416.48         15.3584
   416.62         15.3427
   416.76         15.2588
   416.90         15.1160
   417.04         14.9310
   417.18         14.7294
   417.32         14.5424
   417.46         14.3983
   417.60         14.3159
   417.74         14.3035
   417.88         14.3617
   418.02         14.4845
   418.16         14.6625
   418.30         14.8827
   418.44         15.1222
   418.58         15.3479
   418.72         15.5275
   418.86         15.6404
   419.00         15.6800
   419.14         15.6503
   419.28         15.5643
   419.42         15.4459
   419.56         15.3266
   419.70         15.2407
   419.84         15.2159
   419.98         15.2653
   420.12         15.3872
   420.26         15.5684
   420.40         15.7899
   420.54         16.0356
   420.68         16.2980
   420.82         16.5764
   420.96         16.8714
   421.10         17.1772
   421.24         17.4780
   421.38         17.7484
   421.52         17.9556
   421.66         18.0704
   421.80         18.0812
   421.94         17.9974
   422.08         17.8427
   422.22         17.6433
   422.36         17.4211
   422.50         17.1963
   422.64         16.9914
   422.78         16.8355
   422.92         16.7617
   423.06         16.8032
   423.20         16.9885
   423.34         17.3315
   423.48         17.8190
   423.62         18.4098
   423.76         19.0420
   423.90         19.6470
   424.04         20.1675
   424.18         20.5704
   424.32         20.8476
   424.46         21.0047
   424.60         21.0498
   424.74         20.9881
   424.88         20.8231
   425.02         20.5683
   425.16         20.2581
   425.30         19.9454
   425.44         19.6879
   425.58         19.5331
   425.72         19.5066
   425.86         19.6050
   426.00         19.7930
   426.14         20.0119
   426.28         20.1980
   426.42         20.3014
   426.56         20.2971
   426.70         20.1897
   426.84         20.0034
   426.98         19.7682
   427.12         19.5164
   427.26         19.2811
   427.40         19.0924
   427.54         18.9764
   427.68         18.9516
   427.82         19.0218
   427.96         19.1690
   428.10         19.3564
   428.24         19.5407
   428.38         19.6813
   428.52         19.7459
   428.66         19.7161
   428.80         19.5893
   428.94         19.3768
   429.08         19.1000
   429.22         18.7821
   429.36         18.4376
   429.50         18.0668
   429.64         17.6618
   429.78         17.2196
   429.92         16.7475
   430.06         16.2657
   430.20         15.8062
   430.34         15.4155
   430.48         15.1535
   430.62         15.0857
   430.76         15.2677
   430.90         15.7286
   431.04         16.4585
   431.18         17.4061
   431.32         18.4857
   431.46         19.5932
   431.60         20.6324
   431.74         21.5363
   431.88         22.2662
   432.02         22.8057
   432.16         23.1641
   432.30         23.3791
   432.44         23.5082
   432.58         23.6104
   432.72         23.7286
   432.86         23.8852
   433.00         24.0876
   433.14         24.3309
   433.28         24.5975
   433.42         24.8627
   433.56         25.1018
   433.70         25.2960
   433.84         25.4376
   433.98         25.5316
   434.12         25.5925
   434.26         25.6448
   434.40         25.7150
   434.54         25.8195
   434.68         25.9618
   434.82         26.1332
   434.96         26.3193
   435.10         26.5071
   435.24         26.6920
   435.38         26.8824
   435.52         27.0974
   435.66         27.3570
   435.80         27.6687
   435.94         28.0236
   436.08         28.3972
   436.22         28.7485
   436.36         29.0247
   436.50         29.1757
   436.64         29.1714
   436.78         29.0078
   436.92         28.7025
   437.06         28.2789
   437.20         27.7489
   437.34         27.1170
   437.48         26.3984
   437.62         25.6283
   437.76         24.8511
   437.90         24.1089
   438.04         23.4365
   438.18         22.8604
   438.32         22.4026
   438.46         22.0865
   438.60         21.9355
   438.74         21.9608
   438.88         22.1541
   439.02         22.4921
   439.16         22.9407
   439.30         23.4486
   439.44         23.9442
   439.58         24.3526
   439.72         24.6178
   439.86         24.7198
   440.00         24.6828
   440.14         24.5598
   440.28         24.4049
   440.42         24.2585
   440.56         24.1516
   440.70         24.1141
   440.84         24.1721
   440.98         24.3388
   441.12         24.6081
   441.26         24.9557
   441.40         25.3459
   441.54         25.7411
   441.68         26.1089
   441.82         26.4256
   441.96         26.6766
   442.10         26.8600
   442.24         26.9852
   442.38         27.0640
   442.52         27.1067
   442.66         27.1236
   442.80         27.1249
   442.94         27.1172
   443.08         27.1058
   443.22         27.1039
   443.36         27.1324
   443.50         27.2106
   443.64         27.3492
   443.78         27.5512
   443.92         27.8178
   444.06         28.1435
   444.20         28.5091
   444.34         28.8820
   444.48         29.2218
   444.62         29.4874
   444.76         29.6431
   444.90         29.6626
   445.04         29.5347
   445.18         29.2708
   445.32         28.9026
   445.46         28.4743
   445.60         28.0322
   445.74         27.6227
   445.88         27.2923
   446.02         27.0819
   446.16         27.0168
   446.30         27.1031
   446.44         27.3360
   446.58         27.7037
   446.72         28.1816
   446.86         28.7274
   447.00         29.2900
   447.14         29.8278
   447.28         30.3185
   447.42         30.7574
   447.56         31.1496
   447.70         31.5016
   447.84         31.8179
   447.98         32.0976
   448.12         32.3341
   448.26         32.5162
   448.40         32.6327
   448.54         32.6826
   448.68         32.6786
   448.82         32.6409
   448.96         32.5922
   449.10         32.5595
   449.24         32.5714
   449.38         32.6503
   449.52         32.8086
   449.66         33.0585
   449.80         33.4132
   449.94         33.8709
   450.08         34.4031
   450.22         34.9595
   450.36         35.4841
   450.50         35.9300
   450.64         36.2636
   450.78         36.4692
   450.92         36.5483
   451.06         36.5137
   451.20         36.3851
   451.34         36.1798
   451.48         35.9042
   451.62         35.5591
   451.76         35.1494
   451.90         34.6841
   452.04         34.1735
   452.18         33.6310
   452.32         33.0756
   452.46         32.5338
   452.60         32.0386
   452.74         31.6225
   452.88         31.3098
   453.02         31.1182
   453.16         31.0608
   453.30         31.1401
   453.44         31.3433
   453.58         31.6395
   453.72         31.9812
   453.86         32.3175
   454.00         32.6079
   454.14         32.8268
   454.28         32.9672
   454.42         33.0414
   454.56         33.0759
   454.70         33.1057
   454.84         33.1640
   454.98         33.2750
   455.12         33.4512
   455.26         33.6887
   455.40         33.9661
   455.54         34.2596
   455.68         34.5584
   455.82         34.8565
   455.96         35.1402
   456.10         35.3928
   456.24         35.6044
   456.38         35.7756
   456.52         35.9167
   456.66         36.0389
   456.80         36.1445
   456.94         36.2300
   457.08         36.2923
   457.22         36.3278
   457.36         36.3284
   457.50         36.2834
   457.64         36.1882
   457.78         36.0527
   457.92         35.8989
   458.06         35.7488
   458.20         35.6165
   458.34         35.5041
   458.48         35.4023
   458.62         35.2989
   458.76         35.1883
   458.90         35.0722
   459.04         34.9515
   459.18         34.8229
   459.32         34.6833
   459.46         34.5405
   459.60         34.4204
   459.74         34.3620
   459.88         34.4041
   460.02         34.5715
   460.16         34.8684
   460.30         35.2818
   460.44         35.7867
   460.58         36.3482
   460.72         36.9251
   460.86         37.4809
   461.00         37.9898
   461.14         38.4372
   461.28         38.8192
   461.42         39.1373
   461.56         39.3931
   461.70         39.5875
   461.84         39.7256
   461.98         39.8187
   462.12         39.8795
   462.26         39.9141
   462.40         39.9163
   462.54         39.8679
   462.68         39.7495
   462.82         39.5535
   462.96         39.2888
   463.10         38.9720
   463.24         38.6160
   463.38         38.2270
   463.52         37.8067
   463.66         37.3588
   463.80         36.8952
   463.94         36.4383
   464.08         36.0181
   464.22         35.6640
   464.36         35.3972
   464.50         35.2319
   464.64         35.1805
   464.78         35.2572
   464.92         35.4709
   465.06         35.8130
   465.20         36.2568
   465.34         36.7611
   465.48         37.2707
   465.62         37.7198
   465.76         38.0454
   465.90         38.2061
   466.04         38.1904
   466.18         38.0161
   466.32         37.7268
   466.46         37.3837
   466.60         37.0483
   466.74         36.7666
   466.88         36.5604
   467.02         36.4365
   467.16         36.4006
   467.30         36.4572
   467.44         36.5966
   467.58         36.7880
   467.72         36.9910
   467.86         37.1728
   468.00         37.3118
   468.14         37.3957
   468.28         37.4262
   468.42         37.4227
   468.56         37.4096
   468.70         37.4001
   468.84         37.3944
   468.98         37.3862
   469.12         37.3643
   469.26         37.3125
   469.40         37.2204
   469.54         37.0912
   469.68         36.9395
   469.82         36.7866
   469.96         36.6526
   470.10         36.5528
   470.24         36.4977
   470.38         36.4929
   470.52         36.5435
   470.66         36.6556
   470.80         36.8353
   470.94         37.0916
   471.08         37.4255
   471.22         37.8220
   471.36         38.2543
   471.50         38.6902
   471.64         39.0926
   471.78         39.4199
   471.92         39.6400
   472.06         39.7419
   472.20         39.7325
   472.34         39.6291
   472.48         39.4571
   472.62         39.2500
   472.76         39.0464
   472.90         38.8837
   473.04         38.7934
   473.18         38.8003
   473.32         38.9149
   473.46         39.1276
   473.60         39.4122
   473.74         39.7347
   473.88         40.0602
   474.02         40.3584
   474.16         40.6053
   474.30         40.7849
   474.44         40.8902
   474.58         40.9273
   474.72         40.9132
   474.86         40.8668
   475.00         40.8007
   475.14         40.7210
   475.28         40.6312
   475.42         40.5314
   475.56         40.4176
   475.70         40.2876
   475.84         40.1483
   475.98         40.0107
   476.12         39.8849
   476.26         39.7831
   476.40         39.7212
   476.54         39.7163
   476.68         39.7823
   476.82         39.9277
   476.96         40.1531
   477.10         40.4491
   477.24         40.7967
   477.38         41.1716
   477.52         41.5408
   477.66         41.8639
   477.80         42.1028
   477.94         42.2344
   478.08         42.2565
   478.22         42.1874
   478.36         42.0596
   478.50         41.9105
   478.64         41.7747
   478.78         41.6816
   478.92         41.6554
   479.06         41.7152
   479.20         41.8681
   479.34         42.1026
   479.48         42.3905
   479.62         42.6952
   479.76         42.9793
   479.90         43.2145
   480.04         43.3845
   480.18         43.4814
   480.32         43.5076
   480.46         43.4763
   480.60         43.4091
   480.74         43.3325
   480.88         43.2696
   481.02         43.2299
   481.16         43.2093
   481.30         43.1998
   481.44         43.1989
   481.58         43.2084
   481.72         43.2241
   481.86         43.2341
   482.00         43.2253
   482.14         43.1885
   482.28         43.1215
   482.42         43.0301
   482.56         42.9220
   482.70         42.8030
   482.84         42.6767
   482.98         42.5452
   483.12         42.4128
   483.26         42.2888
   483.40         42.1864
   483.54         42.1161
   483.68         42.0809
   483.82         42.0808
   483.96         42.1201
   484.10         42.2022
   484.24         42.3141
   484.38         42.4274
   484.52         42.5174
   484.66         42.5682
   484.80         42.5608
   484.94         42.4696
   485.08         42.2743
   485.22         41.9710
   485.36         41.5751
   485.50         41.1157
   485.64         40.6319
   485.78         40.1646
   485.92         39.7439
   486.06         39.3857
   486.20         39.0973
   486.34         38.8852
   486.48         38.7592
   486.62         38.7300
   486.76         38.7988
   486.90         38.9556
   487.04         39.1889
   487.18         39.4882
   487.32         39.8343
   487.46         40.1964
   487.60         40.5438
   487.74         40.8554
   487.88         41.1131
   488.02         41.2955
   488.16         41.3882
   488.30         41.3964
   488.44         41.3438
   488.58         41.2677
   488.72         41.2176
   488.86         41.2417
   489.00         41.3752
   489.14         41.6335
   489.28         42.0105
   489.42         42.4879
   489.56         43.0401
   489.70         43.6265
   489.84         44.1917
   489.98         44.6760
   490.12         45.0311
   490.26         45.2322
   490.40         45.2832
   490.54         45.2060
   490.68         45.0274
   490.82         44.7691
   490.96         44.4408
   491.10         44.0442
   491.24         43.5848
   491.38         43.0791
   491.52         42.5523
   491.66         42.0396
   491.80         41.5839
   491.94         41.2301
   492.08         41.0181
   492.22         40.9670
   492.36         41.0724
   492.50         41.3186
   492.64         41.6807
   492.78         42.1183
   492.92         42.5826
   493.06         43.0270
   493.20         43.4120
   493.34         43.7095
   493.48         43.9096
   493.62         44.0290
   493.76         44.1069
   493.90         44.1909
   494.04         44.3229
   494.18         44.5271
   494.32         44.8084
   494.46         45.1535
   494.60         45.5261
   494.74         45.8694
   494.88         46.1277
   495.02         46.2678
   495.16         46.2846
   495.30         46.1922
   495.44         46.0165
   495.58         45.7921
   495.72         45.5538
   495.86         45.3257
   496.00         45.1233
   496.14         44.9599
   496.28         44.8481
   496.42         44.7986
   496.56         44.8151
   496.70         44.8857
   496.84         44.9838
   496.98         45.0800
   497.12         45.1440
   497.26         45.1443
   497.40         45.0644
   497.54         44.9126
   497.68         44.7096
   497.82         44.4757
   497.96         44.2266
   498.10         43.9741
   498.24         43.7325
   498.38         43.5216
   498.52         43.3634
   498.66         43.2772
   498.80         43.2714
   498.94         43.3398
   499.08         43.4638
   499.22         43.6120
   499.36         43.7381
   499.50         43.7941
   499.64         43.7462
   499.78         43.5843
   499.92         43.3245
   500.06         42.9986
   500.20         42.6368
   500.34         42.2560
   500.48         41.8629
   500.62         41.4643
   500.76         41.0707
   500.90         40.6978
   501.04         40.3629
   501.18         40.0796
   501.32         39.8558
   501.46         39.6961
   501.60         39.6032
   501.74         39.5782
   501.88         39.6199
   502.02         39.7295
   502.16         39.9184
   502.30         40.2028
   502.44         40.5862
   502.58         41.0461
   502.72         41.5398
   502.86         42.0147
   503.00         42.4159
   503.14         42.7033
   503.28         42.8654
   503.42         42.9143
   503.56         42.8763
   503.70         42.7821
   503.84         42.6578
   503.98         42.5249
   504.12         42.4062
   504.26         42.3253
   504.40         42.3030
   504.54         42.3547
   504.68         42.4922
   504.82         42.7208
   504.96         43.0349
   505.10         43.4173
   505.24         43.8408
   505.38         44.2709
   505.52         44.6710
   505.66         45.0134
   505.80         45.2902
   505.94         45.5045
   506.08         45.6514
   506.22         45.7147
   506.36         45.6752
   506.50         45.5226
   506.64         45.2685
   506.78         44.9421
   506.92         44.5708
   507.06         44.1733
   507.20         43.7654
   507.34         43.3646
   507.48         42.9870
   507.62         42.6456
   507.76         42.3525
   507.90         42.1189
   508.04         41.9574
   508.18         41.8851
   508.32         41.9210
   508.46         42.0746
   508.60         42.3344
   508.74         42.6677
   508.88         43.0311
   509.02         43.3833
   509.16         43.6910
   509.30         43.9257
   509.44         44.0610
   509.58         44.0823
   509.72         43.9937
   509.86         43.8146
   510.00         43.5741
   510.14         43.3084
   510.28         43.0575
   510.42         42.8561
   510.56         42.7290
   510.70         42.6947
   510.84         42.7633
   510.98         42.9247
   511.12         43.1460
   511.26         43.3807
   511.40         43.5826
   511.54         43.7192
   511.68         43.7725
   511.82         43.7285
   511.96         43.5798
   512.10         43.3369
   512.24         43.0300
   512.38         42.6988
   512.52         42.3843
   512.66         42.1204
   512.80         41.9265
   512.94         41.8062
   513.08         41.7532
   513.22         41.7539
   513.36         41.7850
   513.50         41.8151
   513.64         41.8127
   513.78         41.7568
   513.92         41.6440
   514.06         41.4837
   514.20         41.2918
   514.34         41.0878
   514.48         40.8985
   514.62         40.7562
   514.76         40.6870
   514.90         40.7014
   515.04         40.7927
   515.18         40.9395
   515.32         41.1074
   515.46         41.2469
   515.60         41.2992
   515.74         41.2109
   515.88         40.9437
   516.02         40.4775
   516.16         39.8113
   516.30         38.9704
   516.44         38.0153
   516.58         37.0358
   516.72         36.1314
   516.86         35.3952
   517.00         34.8959
   517.14         34.6564
   517.28         34.6522
   517.42         34.8352
   517.56         35.1577
   517.70         35.5788
   517.84         36.0566
   517.98         36.5459
   518.12         37.0068
   518.26         37.4199
   518.40         37.7946
   518.54         38.1576
   518.68         38.5375
   518.82         38.9625
   518.96         39.4598
   519.10         40.0387
   519.24         40.6714
   519.38         41.2931
   519.52         41.8189
   519.66         42.1699
   519.80         42.3013
   519.94         42.2212
   520.08         41.9862
   520.22         41.6759
   520.36         41.3574
   520.50         41.0751
   520.64         40.8661
   520.78         40.7679
   520.92         40.8140
   521.06         41.0248
   521.20         41.3922
   521.34         41.8723
   521.48         42.3923
   521.62         42.8710
   521.76         43.2409
   521.90         43.4611
   522.04         43.5226
   522.18         43.4450
   522.32         43.2708
   522.46         43.0599
   522.60         42.8800
   522.74         42.7943
   522.88         42.8449
   523.02         43.0489
   523.16         43.4083
   523.30         43.9136
   523.44         44.5317
   523.58         45.2022
   523.72         45.8487
   523.86         46.3924
   524.00         46.7705
   524.14         46.9530
   524.28         46.9452
   524.42         46.7753
   524.56         46.4837
   524.70         46.1196
   524.84         45.7356
   524.98         45.3775
   525.12         45.0721
   525.26         44.8190
   525.40         44.5910
   525.54         44.3439
   525.68         44.0319
   525.82         43.6140
   525.96         43.0601
   526.10         42.3649
   526.24         41.5572
   526.38         40.6983
   526.52         39.8735
   526.66         39.1816
   526.80         38.7144
   526.94         38.5348
   527.08         38.6676
   527.22         39.1021
   527.36         39.7963
   527.50         40.6839
   527.64         41.6843
   527.78         42.7206
   527.92         43.7333
   528.06         44.6827
   528.20         45.5433
   528.34         46.2976
   528.48         46.9298
   528.62         47.4272
   528.76         47.7820
   528.90         47.9917
   529.04         48.0637
   529.18         48.0197
   529.32         47.8915
   529.46         47.7135
   529.60         47.5228
   529.74         47.3621
   529.88         47.2772
   530.02         47.3088
   530.16         47.4810
   530.30         47.7933
   530.44         48.2241
   530.58         48.7334
   530.72         49.2657
   530.86         49.7601
   531.00         50.1638
   531.14         50.4363
   531.28         50.5518
   531.42         50.5009
   531.56         50.2837
   531.70         49.9019
   531.84         49.3657
   531.98         48.7053
   532.12         47.9663
   532.26         47.2049
   532.40         46.4841
   532.54         45.8651
   532.68         45.3946
   532.82         45.0983
   532.96         44.9833
   533.10         45.0416
   533.24         45.2518
   533.38         45.5802
   533.52         45.9850
   533.66         46.4194
   533.80         46.8353
   533.94         47.1926
   534.08         47.4698
   534.22         47.6689
   534.36         47.8191
   534.50         47.9699
   534.64         48.1677
   534.78         48.4380
   534.92         48.7877
   535.06         49.2081
   535.20         49.6705
   535.34         50.1309
   535.48         50.5419
   535.62         50.8628
   535.76         51.0599
   535.90         51.1025
   536.04         50.9681
   536.18         50.6562
   536.32         50.1957
   536.46         49.6401
   536.60         49.0548
   536.74         48.5062
   536.88         48.0531
   537.02         47.7391
   537.16         47.5865
   537.30         47.5947
   537.44         47.7461
   537.58         48.0099
   537.72         48.3392
   537.86         48.6764
   538.00         48.9642
   538.14         49.1562
   538.28         49.2198
   538.42         49.1335
   538.56         48.8880
   538.70         48.4967
   538.84         47.9984
   538.98         47.4431
   539.12         46.8745
   539.26         46.3205
   539.40         45.7925
   539.54         45.2947
   539.68         44.8316
   539.82         44.4115
   539.96         44.0485
   540.10         43.7658
   540.24         43.5890
   540.38         43.5372
   540.52         43.6229
   540.66         43.8526
   540.80         44.2207
   540.94         44.7085
   541.08         45.2865
   541.22         45.9195
   541.36         46.5749
   541.50         47.2242
   541.64         47.8342
   541.78         48.3610
   541.92         48.7613
   542.06         49.0089
   542.20         49.1004
   542.34         49.0473
   542.48         48.8707
   542.62         48.6033
   542.76         48.2894
   542.90         47.9789
   543.04         47.7206
   543.18         47.5557
   543.32         47.5047
   543.46         47.5615
   543.60         47.7011
   543.74         47.8912
   543.88         48.1080
   544.02         48.3392
   544.16         48.5677
   544.30         48.7588
   544.44         48.8700
   544.58         48.8803
   544.72         48.8014
   544.86         48.6663
   545.00         48.5155
   545.14         48.3889
   545.28         48.3181
   545.42         48.3182
   545.56         48.3852
   545.70         48.4993
   545.84         48.6296
   545.98         48.7414
   546.12         48.8090
   546.26         48.8236
   546.40         48.7882
   546.54         48.7063
   546.68         48.5742
   546.82         48.3858
   546.96         48.1433
   547.10         47.8648
   547.24         47.5826
   547.38         47.3287
   547.52         47.1210
   547.66         46.9619
   547.80         46.8474
   547.94         46.7751
   548.08         46.7473
   548.22         46.7686
   548.36         46.8419
   548.50         46.9662
   548.64         47.1371
   548.78         47.3474
   548.92         47.5894
   549.06         47.8536
   549.20         48.1271
   549.34         48.3950
   549.48         48.6392
   549.62         48.8382
   549.76         48.9763
   549.90         49.0490
   550.04         49.0540
   550.18         48.9843
   550.32         48.8362
   550.46         48.6174
   550.60         48.3495
   550.74         48.0668
   550.88         47.8111
   551.02         47.6218
   551.16         47.5245
   551.30         47.5280
   551.44         47.6271
   551.58         47.8041
   551.72         48.0284
   551.86         48.2633
   552.00         48.4787
   552.14         48.6557
   552.28         48.7839
   552.42         48.8583
   552.56         48.8766
   552.70         48.8362
   552.84         48.7414
   552.98         48.6137
   553.12         48.4857
   553.26         48.3877
   553.40         48.3404
   553.54         48.3520
   553.68         48.4183
   553.82         48.5314
   553.96         48.6878
   554.10         48.8846
   554.24         49.1132
   554.38         49.3611
   554.52         49.6152
   554.66         49.8600
   554.80         50.0757
   554.94         50.2418
   555.08         50.3426
   555.22         50.3711
   555.36         50.3284
   555.50         50.2251
   555.64         50.0743
   555.78         49.8840
   555.92         49.6635
   556.06         49.4284
   556.20         49.1978
   556.34         48.9890
   556.48         48.8164
   556.62         48.6910
   556.76         48.6168
   556.90         48.5905
   557.04         48.6074
   557.18         48.6610
   557.32         48.7396
   557.46         48.8258
   557.60         48.8954
   557.74         48.9195
   557.88         48.8717
   558.02         48.7352
   558.16         48.5050
   558.30         48.1887
   558.44         47.8114
   558.58         47.4138
   558.72         47.0385
   558.86         46.7207
   559.00         46.4862
   559.14         46.3503
   559.28         46.3155
   559.42         46.3752
   559.56         46.5209
   559.70         46.7453
   559.84         47.0349
   559.98         47.3715
   560.12         47.7375
   560.26         48.1149
   560.40         48.4824
   560.54         48.8152
   560.68         49.0895
   560.82         49.2886
   560.96         49.4041
   561.10         49.4362
   561.24         49.3903
   561.38         49.2705
   561.52         49.0777
   561.66         48.8192
   561.80         48.5189
   561.94         48.2174
   562.08         47.9631
   562.22         47.7979
   562.36         47.7446
   562.50         47.8046
   562.64         47.9651
   562.78         48.2004
   562.92         48.4742
   563.06         48.7489
   563.20         48.9910
   563.34         49.1778
   563.48         49.3000
   563.62         49.3575
   563.76         49.3532
   563.90         49.2879
   564.04         49.1655
   564.18         49.0019
   564.32         48.8254
   564.46         48.6655
   564.60         48.5421
   564.74         48.4596
   564.88         48.4043
   565.02         48.3537
   565.16         48.2883
   565.30         48.1947
   565.44         48.0651
   565.58         47.9012
   565.72         47.7123
   565.86         47.5093
   566.00         47.3097
   566.14         47.1415
   566.28         47.0364
   566.42         47.0179
   566.56         47.0987
   566.70         47.2849
   566.84         47.5733
   566.98         47.9456
   567.12         48.3689
   567.26         48.8034
   567.40         49.2085
   567.54         49.5485
   567.68         49.7981
   567.82         49.9454
   567.96         49.9911
   568.10         49.9494
   568.24         49.8451
   568.38         49.7080
   568.52         49.5683
   568.66         49.4563
   568.80         49.3971
   568.94         49.3992
   569.08         49.4486
   569.22         49.5180
   569.36         49.5806
   569.50         49.6122
   569.64         49.5869
   569.78         49.4781
   569.92         49.2677
   570.06         48.9531
   570.20         48.5485
   570.34         48.0857
   570.48         47.6118
   570.62         47.1793
   570.76         46.8345
   570.90         46.6092
   571.04         46.5223
   571.18         46.5849
   571.32         46.7996
   571.46         47.1586
   571.60         47.6411
   571.74         48.2130
   571.88         48.8347
   572.02         49.4651
   572.16         50.0582
   572.30         50.5684
   572.44         50.9643
   572.58         51.2368
   572.72         51.3949
   572.86         51.4585
   573.00         51.4516
   573.14         51.3949
   573.28         51.3036
   573.42         51.1905
   573.56         51.0674
   573.70         50.9449
   573.84         50.8308
   573.98         50.7288
   574.12         50.6354
   574.26         50.5386
   574.40         50.4251
   574.54         50.2901
   574.68         50.1378
   574.82         49.9774
   574.96         49.8177
   575.10         49.6645
   575.24         49.5198
   575.38         49.3868
   575.52         49.2751
   575.66         49.1959
   575.80         49.1604
   575.94         49.1802
   576.08         49.2612
   576.22         49.4001
   576.36         49.5866
   576.50         49.8079
   576.64         50.0474
   576.78         50.2798
   576.92         50.4700
   577.06         50.5799
   577.20         50.5785
   577.34         50.4443
   577.48         50.1650
   577.62         49.7450
   577.76         49.2148
   577.90         48.6257
   578.04         48.0379
   578.18         47.5107
   578.32         47.0924
   578.46         46.8166
   578.60         46.6982
   578.74         46.7337
   578.88         46.9107
   579.02         47.2148
   579.16         47.6257
   579.30         48.1086
   579.44         48.6129
   579.58         49.0870
   579.72         49.4962
   579.86         49.8269
   580.00         50.0814
   580.14         50.2723
   580.28         50.4179
   580.42         50.5321
   580.56         50.6199
   580.70         50.6846
   580.84         50.7370
   580.98         50.7947
   581.12         50.8718
   581.26         50.9768
   581.40         51.1165
   581.54         51.2961
   581.68         51.5130
   581.82         51.7564
   581.96         52.0081
   582.10         52.2489
   582.24         52.4656
   582.38         52.6492
   582.52         52.7925
   582.66         52.8922
   582.80         52.9492
   582.94         52.9679
   583.08         52.9571
   583.22         52.9305
   583.36         52.9059
   583.50         52.8961
   583.64         52.8994
   583.78         52.9046
   583.92         52.9005
   584.06         52.8781
   584.20         52.8269
   584.34         52.7353
   584.48         52.5927
   584.62         52.3883
   584.76         52.1162
   584.90         51.7861
   585.04         51.4249
   585.18         51.0662
   585.32         50.7406
   585.46         50.4713
   585.60         50.2731
   585.74         50.1570
   585.88         50.1323
   586.02         50.1999
   586.16         50.3496
   586.30         50.5681
   586.44         50.8387
   586.58         51.1357
   586.72         51.4287
   586.86         51.6868
   587.00         51.8827
   587.14         51.9996
   587.28         52.0319
   587.42         51.9823
   587.56         51.8536
   587.70         51.6278
   587.84         51.2591
   587.98         50.7052
   588.12         49.9585
   588.26         49.0411
   588.40         47.9872
   588.54         46.8381
   588.68         45.6541
   588.82         44.5190
   588.96         43.5272
   589.10         42.7650
   589.24         42.3007
   589.38         42.1786
   589.52         42.4128
   589.66         42.9863
   589.80         43.8530
   589.94         44.9379
   590.08         46.1438
   590.22         47.3605
   590.36         48.4791
   590.50         49.4211
   590.64         50.1556
   590.78         50.6819
   590.92         51.0080
   591.06         51.1548
   591.20         51.1667
   591.34         51.1018
   591.48         51.0105
   591.62         50.9284
   591.76         50.8773
   591.90         50.8642
   592.04         50.8868
   592.18         50.9394
   592.32         51.0146
   592.46         51.1022
   592.60         51.1908
   592.74         51.2672
   592.88         51.3186
   593.02         51.3368
   593.16         51.3236
   593.30         51.2907
   593.44         51.2520
   593.58         51.2156
   593.72         51.1803
   593.86         51.1391
   594.00         51.0866
   594.14         51.0208
   594.28         50.9394
   594.42         50.8378
   594.56         50.7154
   594.70         50.5826
   594.84         50.4574
   594.98         50.3574
   595.12         50.2974
   595.26         50.2849
   595.40         50.3185
   595.54         50.3926
   595.68         50.5016
   595.82         50.6422
   595.96         50.8084
   596.10         50.9856
   596.24         51.1546
   596.38         51.2998
   596.52         51.4085
   596.66         51.4677
   596.80         51.4689
   596.94         51.4163
   597.08         51.3230
   597.22         51.1991
   597.36         51.0502
   597.50         50.8832
   597.64         50.7088
   597.78         50.5399
   597.92         50.3873
   598.06         50.2621
   598.20         50.1801
   598.34         50.1560
   598.48         50.1949
   598.62         50.2866
   598.76         50.4138
   598.90         50.5629
   599.04         50.7225
   599.18         50.8777
   599.32         51.0187
   599.46         51.1430
   599.60         51.2411
   599.74         51.2926
   599.88         51.2826
   600.02         51.2158
   600.16         51.1076
   600.30         50.9708
   600.44         50.8146
   600.58         50.6463
   600.72         50.4739
   600.86         50.3046
   601.00         50.1414
   601.14         49.9847
   601.28         49.8387
   601.42         49.7154
   601.56         49.6273
   601.70         49.5804
   601.84         49.5744
   601.98         49.6072
   602.12         49.6755
   602.26         49.7765
   602.40         49.9125
   602.54         50.0856
   602.68         50.2904
   602.82         50.5125
   602.96         50.7346
   603.10         50.9433
   603.24         51.1298
   603.38         51.2874
   603.52         51.4123
   603.66         51.5052
   603.80         51.5758
   603.94         51.6377
   604.08         51.6986
   604.22         51.7569
   604.36         51.8065
   604.50         51.8411
   604.64         51.8581
   604.78         51.8601
   604.92         51.8509
   605.06         51.8307
   605.20         51.7978
   605.34         51.7529
   605.48         51.6994
   605.62         51.6432
   605.76         51.5935
   605.90         51.5610
   606.04         51.5558
   606.18         51.5857
   606.32         51.6530
   606.46         51.7514
   606.60         51.8640
   606.74         51.9674
   606.88         52.0400
   607.02         52.0653
   607.16         52.0330
   607.30         51.9403
   607.44         51.7899
   607.58         51.5871
   607.72         51.3389
   607.86         51.0556
   608.00         50.7509
   608.14         50.4439
   608.28         50.1576
   608.42         49.9137
   608.56         49.7287
   608.70         49.6094
   608.84         49.5490
   608.98         49.5273
   609.12         49.5213
   609.26         49.5158
   609.40         49.5016
   609.54         49.4725
   609.68         49.4281
   609.82         49.3765
   609.96         49.3298
   610.10         49.2993
   610.24         49.2949
   610.38         49.3239
   610.52         49.3885
   610.66         49.4855
   610.80         49.6043
   610.94         49.7257
   611.08         49.8254
   611.22         49.8831
   611.36         49.8853
   611.50         49.8231
   611.64         49.6954
   611.78         49.5160
   611.92         49.3098
   612.06         49.1018
   612.20         48.9124
   612.34         48.7498
   612.48         48.6040
   612.62         48.4596
   612.76         48.3122
   612.90         48.1659
   613.04         48.0264
   613.18         47.9022
   613.32         47.8052
   613.46         47.7465
   613.60         47.7369
   613.74         47.7867
   613.88         47.9001
   614.02         48.0731
   614.16         48.2945
   614.30         48.5482
   614.44         48.8156
   614.58         49.0748
   614.72         49.3008
   614.86         49.4640
   615.00         49.5340
   615.14         49.4947
   615.28         49.3581
   615.42         49.1524
   615.56         48.9019
   615.70         48.6240
   615.84         48.3317
   615.98         48.0369
   616.12         47.7571
   616.26         47.5170
   616.40         47.3425
   616.54         47.2553
   616.68         47.2703
   616.82         47.3945
   616.96         47.6256
   617.10         47.9537
   617.24         48.3615
   617.38         48.8204
   617.52         49.2913
   617.66         49.7334
   617.80         50.1144
   617.94         50.4098
   618.08         50.5986
   618.22         50.6690
   618.36         50.6258
   618.50         50.4921
   618.64         50.3059
   618.78         50.1077
   618.92         49.9303
   619.06         49.8000
   619.20         49.7399
   619.34         49.7672
   619.48         49.8885
   619.62         50.0975
   619.76         50.3774
   619.90         50.7017
   620.04         51.0341
   620.18         51.3340
   620.32         51.5624
   620.46         51.6895
   620.60         51.7029
   620.74         51.6097
   620.88         51.4267
   621.02         51.1712
   621.16         50.8617
   621.30         50.5195
   621.44         50.1679
   621.58         49.8339
   621.72         49.5455
   621.86         49.3188
   622.00         49.1507
   622.14         49.0281
   622.28         48.9418
   622.42         48.8909
   622.56         48.8739
   622.70         48.8820
   622.84         48.9022
   622.98         48.9231
   623.12         48.9381
   623.26         48.9444
   623.40         48.9380
   623.54         48.9159
   623.68         48.8843
   623.82         48.8566
   623.96         48.8414
   624.10         48.8357
   624.24         48.8275
   624.38         48.8012
   624.52         48.7423
   624.66         48.6422
   624.80         48.5027
   624.94         48.3352
   625.08         48.1471
   625.22         47.9310
   625.36         47.6756
   625.50         47.3849
   625.64         47.0826
   625.78         46.8040
   625.92         46.5850
   626.06         46.4549
   626.20         46.4328
   626.34         46.5230
   626.48         46.7136
   626.62         46.9776
   626.76         47.2820
   626.90         47.5953
   627.04         47.8885
   627.18         48.1345
   627.32         48.3140
   627.46         48.4233
   627.60         48.4737
   627.74         48.4843
   627.88         48.4768
   628.02         48.4772
   628.16         48.5108
   628.30         48.5935
   628.44         48.7283
   628.58         48.9037
   628.72         49.0995
   628.86         49.2944
   629.00         49.4673
   629.14         49.5984
   629.28         49.6745
   629.42         49.6914
   629.56         49.6546
   629.70         49.5783
   629.84         49.4845
   629.98         49.3985
   630.12         49.3401
   630.26         49.3179
   630.40         49.3259
   630.54         49.3453
   630.68         49.3526
   630.82         49.3280
   630.96         49.2615
   631.10         49.1530
   631.24         49.0094
   631.38         48.8469
   631.52         48.6903
   631.66         48.5670
   631.80         48.5017
   631.94         48.5122
   632.08         48.6076
   632.22         48.7895
   632.36         49.0459
   632.50         49.3467
   632.64         49.6519
   632.78         49.9248
   632.92         50.1370
   633.06         50.2709
   633.20         50.3193
   633.34         50.2864
   633.48         50.1892
   633.62         50.0570
   633.76         49.9203
   633.90         49.8024
   634.04         49.7198
   634.18         49.6831
   634.32         49.6926
   634.46         49.7364
   634.60         49.7958
   634.74         49.8496
   634.88         49.8738
   635.02         49.8410
   635.16         49.7302
   635.30         49.5388
   635.44         49.2821
   635.58         48.9856
   635.72         48.6805
   635.86         48.4012
   636.00         48.1820
   636.14         48.0543
   636.28         48.0380
   636.42         48.1366
   636.56         48.3394
   636.70         48.6261
   636.84         48.9665
   636.98         49.3233
   637.12         49.6606
   637.26         49.9525
   637.40         50.1823
   637.54         50.3435
   637.68         50.4399
   637.82         50.4844
   637.96         50.4965
   638.10         50.4934
   638.24         50.4843
   638.38         50.4720
   638.52         50.4584
   638.66         50.4458
   638.80         50.4315
   638.94         50.4063
   639.08         50.3634
   639.22         50.3059
   639.36         50.2414
   639.50         50.1764
   639.64         50.1167
   639.78         50.0680
   639.92         50.0342
   640.06         50.0156
   640.20         50.0108
   640.34         50.0170
   640.48         50.0295
   640.62         50.0441
   640.76         50.0563
   640.90         50.0608
   641.04         50.0572
   641.18         50.0528
   641.32         50.0564
   641.46         50.0735
   641.60         50.1120
   641.74         50.1823
   641.88         50.2856
   642.02         50.4070
   642.16         50.5266
   642.30         50.6330
   642.44         50.7233
   642.58         50.7969
   642.72         50.8496
   642.86         50.8757
   643.00         50.8753
   643.14         50.8561
   643.28         50.8293
   643.42         50.8063
   643.56         50.7995
   643.70         50.8166
   643.84         50.8506
   643.98         50.8836
   644.12         50.8991
   644.26         50.8874
   644.40         50.8435
   644.54         50.7673
   644.68         50.6698
   644.82         50.5720
   644.96         50.4924
   645.10         50.4361
   645.24         50.3978
   645.38         50.3738
   645.52         50.3662
   645.66         50.3796
   645.80         50.4128
   645.94         50.4557
   646.08         50.4957
   646.22         50.5219
   646.36         50.5245
   646.50         50.5021
   646.64         50.4713
   646.78         50.4567
   646.92         50.4732
   647.06         50.5201
   647.20         50.5907
   647.34         50.6778
   647.48         50.7726
   647.62         50.8641
   647.76         50.9438
   647.90         51.0070
   648.04         51.0452
   648.18         51.0400
   648.32         50.9657
   648.46         50.7986
   648.60         50.5288
   648.74         50.1664
   648.88         49.7366
   649.02         49.2727
   649.16         48.8179
   649.30         48.4223
   649.44         48.1317
   649.58         47.9775
   649.72         47.9799
   649.86         48.1499
   650.00         48.4831
   650.14         48.9553
   650.28         49.5235
   650.42         50.1326
   650.56         50.7239
   650.70         51.2460
   650.84         51.6673
   650.98         51.9802
   651.12         52.1979
   651.26         52.3462
   651.40         52.4522
   651.54         52.5364
   651.68         52.6121
   651.82         52.6875
   651.96         52.7641
   652.10         52.8337
   652.24         52.8846
   652.38         52.9103
   652.52         52.9105
   652.66         52.8871
   652.80         52.8450
   652.94         52.7933
   653.08         52.7434
   653.22         52.7062
   653.36         52.6889
   653.50         52.6928
   653.64         52.7132
   653.78         52.7417
   653.92         52.7683
   654.06         52.7809
   654.20         52.7663
   654.34         52.7126
   654.48         52.6123
   654.62         52.4643
   654.76         52.2724
   654.90         52.0392
   655.04         51.7546
   655.18         51.4001
   655.32         50.9729
   655.46         50.4962
   655.60         50.0094
   655.74         49.5531
   655.88         49.1607
   656.02         48.8580
   656.16         48.6638
   656.30         48.5903
   656.44         48.6421
   656.58         48.8171
   656.72         49.1056
   656.86         49.4881
   657.00         49.9346
   657.14         50.4103
   657.28         50.8819
   657.42         51.3171
   657.56         51.6890
   657.70         51.9863
   657.84         52.2194
   657.98         52.4078
   658.12         52.5561
   658.26         52.6519
   658.40         52.6792
   658.54         52.6316
   658.68         52.5167
   658.82         52.3584
   658.96         52.1927
   659.10         52.0557
   659.24         51.9724
   659.38         51.9511
   659.52         51.9855
   659.66         52.0614
   659.80         52.1621
   659.94         52.2702
   660.08         52.3668
   660.22         52.4333
   660.36         52.4577
   660.50         52.4388
   660.64         52.3861
   660.78         52.3209
   660.92         52.2725
   661.06         52.2678
   661.20         52.3219
   661.34         52.4356
   661.48         52.6008
   661.62         52.7991
   661.76         53.0016
   661.90         53.1760
   662.04         53.2932
   662.18         53.3310
   662.32         53.2790
   662.46         53.1429
   662.60         52.9429
   662.74         52.7061
   662.88         52.4608
   663.02         52.2353
   663.16         52.0503
   663.30         51.9141
   663.44         51.8255
   663.58         51.7780
   663.72         51.7637
   663.86         51.7764
   664.00         51.8144
   664.14         51.8787
   664.28         51.9671
   664.42         52.0722
   664.56         52.1841
   664.70         52.2925
   664.84         52.3892
   664.98         52.4684
   665.12         52.5217
   665.26         52.5365
   665.40         52.4997
   665.54         52.4042
   665.68         52.2529
   665.82         52.0583
   665.96         51.8399
   666.10         51.6215
   666.24         51.4264
   666.38         51.2727
   666.52         51.1666
   666.66         51.1036
   666.80         51.0763
   666.94         51.0798
   667.08         51.1109
   667.22         51.1671
   667.36         51.2456
   667.50         51.3436
   667.64         51.4583
   667.78         51.5863
   667.92         51.7267
   668.06         51.8813
   668.20         52.0501
   668.34         52.2250
   668.48         52.3896
   668.62         52.5242
   668.76         52.6118
   668.90         52.6410
   669.04         52.6081
   669.18         52.5180
   669.32         52.3863
   669.46         52.2365
   669.60         52.0900
   669.74         51.9602
   669.88         51.8517
   670.02         51.7625
   670.16         51.6871
   670.30         51.6166
   670.44         51.5395
   670.58         51.4465
   670.72         51.3352
   670.86         51.2118
   671.00         51.0898
   671.14         50.9891
   671.28         50.9310
   671.42         50.9305
   671.56         50.9934
   671.70         51.1173
   671.84         51.2915
   671.98         51.4992
   672.12         51.7202
   672.26         51.9332
   672.40         52.1201
   672.54         52.2673
   672.68         52.3651
   672.82         52.4098
   672.96         52.4043
   673.10         52.3552
   673.24         52.2725
   673.38         52.1692
   673.52         52.0558
   673.66         51.9386
   673.80         51.8194
   673.94         51.6978
   674.08         51.5739
   674.22         51.4504
   674.36         51.3326
   674.50         51.2297
   674.64         51.1552
   674.78         51.1236
   674.92         51.1431
   675.06         51.2128
   675.20         51.3269
   675.34         51.4760
   675.48         51.6478
   675.62         51.8263
   675.76         51.9926
   675.90         52.1305
   676.04         52.2293
   676.18         52.2852
   676.32         52.2986
   676.46         52.2730
   676.60         52.2164
   676.74         52.1433
   676.88         52.0721
   677.02         52.0219
   677.16         52.0029
   677.30         52.0113
   677.44         52.0339
   677.58         52.0571
   677.72         52.0749
   677.86         52.0872
   678.00         52.0923
   678.14         52.0876
   678.28         52.0719
   678.42         52.0457
   678.56         52.0125
   678.70         51.9810
   678.84         51.9622
   678.98         51.9639
   679.12         51.9894
   679.26         52.0383
   679.40         52.1061
   679.54         52.1838
   679.68         52.2590
   679.82         52.3202
   679.96         52.3649
   680.10         52.4018
   680.24         52.4416
   680.38         52.4894
   680.52         52.5436
   680.66         52.5987
   680.80         52.6473
   680.94         52.6824
   681.08         52.7004
   681.22         52.7047
   681.36         52.7024
   681.50         52.6975
   681.64         52.6888
   681.78         52.6716
   681.92         52.6419
   682.06         52.5992
   682.20         52.5467
   682.34         52.4896
   682.48         52.4325
   682.62         52.3773
   682.76         52.3207
   682.90         52.2527
   683.04         52.1615
   683.18         52.0394
   683.32         51.8843
   683.46         51.7015
   683.60         51.5028
   683.74         51.3053
   683.88         51.1276
   684.02         50.9860
   684.16         50.8916
   684.30         50.8483
   684.44         50.8536
   684.58         50.9002
   684.72         50.9777
   684.86         51.0711
   685.00         51.1619
   685.14         51.2315
   685.28         51.2636
   685.42         51.2393
   685.56         51.1305
   685.70         50.9029
   685.84         50.5274
   685.98         49.9888
   686.12         49.2877
   686.26         48.4403
   686.40         47.4798
   686.54         46.4560
   686.68         45.4309
   686.82         44.4729
   686.96         43.6492
   687.10         43.0202
   687.24         42.6321
   687.38         42.5092
   687.52         42.6479
   687.66         43.0171
   687.80         43.5632
   687.94         44.2172
   688.08         44.9017
   688.22         45.5449
   688.36         46.0972
   688.50         46.5372
   688.64         46.8661
   688.78         47.0999
   688.92         47.2634
   689.06         47.3859
   689.20         47.4947
   689.34         47.6119
   689.48         47.7511
   689.62         47.9145
   689.76         48.0951
   689.90         48.2815
   690.04         48.4618
   690.18         48.6252
   690.32         48.7640
   690.46         48.8756
   690.60         48.9621
   690.74         49.0287
   690.88         49.0853
   691.02         49.1446
   691.16         49.2164
   691.30         49.3048
   691.44         49.4065
   691.58         49.5131
   691.72         49.6142
   691.86         49.7015
   692.00         49.7701
   692.14         49.8153
   692.28         49.8326
   692.42         49.8225
   692.56         49.7901
   692.70         49.7419
   692.84         49.6856
   692.98         49.6332
   693.12         49.5980
   693.26         49.5875
   693.40         49.6011
   693.54         49.6319
   693.68         49.6697
   693.82         49.7043
   693.96         49.7294
   694.10         49.7420
   694.24         49.7423
   694.38         49.7335
   694.52         49.7207
   694.66         49.7075
   694.80         49.6961
   694.94         49.6902
   695.08         49.6963
   695.22         49.7217
   695.36         49.7723
   695.50         49.8530
   695.64         49.9664
   695.78         50.1107
   695.92         50.2784
   696.06         50.4593
   696.20         50.6447
   696.34         50.8270
   696.48         50.9937
   696.62         51.1227
   696.76         51.1876
   696.90         51.1701
   697.04         51.0674
   697.18         50.8925
   697.32         50.6687
   697.46         50.4249
   697.60         50.1910
   697.74         49.9931
   697.88         49.8493
   698.02         49.7670
   698.16         49.7454
   698.30         49.7792
   698.44         49.8594
   698.58         49.9716
   698.72         50.0966
   698.86         50.2127
   699.00         50.2982
   699.14         50.3354
   699.28         50.3152
   699.42         50.2419
   699.56         50.1314
   699.70         50.0050
   699.84         49.8816
   699.98         49.7738
   700.12         49.6888
   700.26         49.6283
   700.40         49.5858
   700.54         49.5467
   700.68         49.5000
   700.82         49.4459
   700.96         49.3907
   701.10         49.3367
   701.24         49.2771
   701.38         49.2017
   701.52         49.1064
   701.66         48.9959
   701.80         48.8810
   701.94         48.7747
   702.08         48.6921
   702.22         48.6470
   702.36         48.6474
   702.50         48.6944
   702.64         48.7819
   702.78         48.8961
   702.92         49.0223
   703.06         49.1524
   703.20         49.2886
   703.34         49.4394
   703.48         49.6068
   703.62         49.7813
   703.76         49.9507
   703.90         50.1070
   704.04         50.2441
   704.18         50.3559
   704.32         50.4385
   704.46         50.4925
   704.60         50.5203
   704.74         50.5221
   704.88         50.4968
   705.02         50.4455
   705.16         50.3746
   705.30         50.2918
   705.44         50.2049
   705.58         50.1220
   705.72         50.0455
   705.86         49.9716
   706.00         49.8969
   706.14         49.8230
   706.28         49.7577
   706.42         49.7098
   706.56         49.6850
   706.70         49.6870
   706.84         49.7240
   706.98         49.8060
   707.12         49.9337
   707.26         50.0940
   707.40         50.2653
   707.54         50.4246
   707.68         50.5530
   707.82         50.6350
   707.96         50.6582
   708.10         50.6160
   708.24         50.5103
   708.38         50.3532
   708.52         50.1659
   708.66         49.9736
   708.80         49.8004
   708.94         49.6658
   709.08         49.5826
   709.22         49.5574
   709.36         49.5924
   709.50         49.6821
   709.64         49.8088
   709.78         49.9467
   709.92         50.0698
   710.06         50.1605
   710.20         50.2120
   710.34         50.2270
   710.48         50.2121
   710.62         50.1738
   710.76         50.1203
   710.90         50.0641
   711.04         50.0170
   711.18         49.9890
   711.32         49.9881
   711.46         50.0165
   711.60         50.0684
   711.74         50.1324
   711.88         50.1965
   712.02         50.2479
   712.16         50.2736
   712.30         50.2666
   712.44         50.2331
   712.58         50.1917
   712.72         50.1668
   712.86         50.1797
   713.00         50.2421
   713.14         50.3532
   713.28         50.5014
   713.42         50.6700
   713.56         50.8397
   713.70         50.9884
   713.84         51.0937
   713.98         51.1377
   714.12         51.1105
   714.26         51.0127
   714.40         50.8573
   714.54         50.6660
   714.68         50.4658
   714.82         50.2861
   714.96         50.1523
   715.10         50.0806
   715.24         50.0742
   715.38         50.1213
   715.52         50.2000
   715.66         50.2858
   715.80         50.3566
   715.94         50.3936
   716.08         50.3830
   716.22         50.3166
   716.36         50.1903
   716.50         50.0064
   716.64         49.7737
   716.78         49.5044
   716.92         49.2112
   717.06         48.9039
   717.20         48.5850
   717.34         48.2515
   717.48         47.8969
   717.62         47.5123
   717.76         47.0908
   717.90         46.6333
   718.04         46.1494
   718.18         45.6572
   718.32         45.1813
   718.46         44.7480
   718.60         44.3828
   718.74         44.1085
   718.88         43.9401
   719.02         43.8834
   719.16         43.9371
   719.30         44.0925
   719.44         44.3321
   719.58         44.6314
   719.72         44.9635
   719.86         45.3071
   720.00         45.6521
   720.14         46.0009
   720.28         46.3629
   720.42         46.7497
   720.56         47.1718
   720.70         47.6356
   720.84         48.1434
   720.98         48.6935
   721.12         49.2750
   721.26         49.8657
   721.40         50.4368
   721.54         50.9588
   721.68         51.4086
   721.82         51.7693
   721.96         52.0277
   722.10         52.1751
   722.24         52.2103
   722.38         52.1398
   722.52         51.9775
   722.66         51.7432
   722.80         51.4602
   722.94         51.1496
   723.08         50.8282
   723.22         50.5124
   723.36         50.2214
   723.50         49.9736
   723.64         49.7814
   723.78         49.6495
   723.92         49.5778
   724.06         49.5614
   724.20         49.5887
   724.34         49.6402
   724.48         49.6941
   724.62         49.7362
   724.76         49.7620
   724.90         49.7708
   725.04         49.7634
   725.18         49.7406
   725.32         49.7018
   725.46         49.6457
   725.60         49.5727
   725.74         49.4892
   725.88         49.4074
   726.02         49.3387
   726.16         49.2872
   726.30         49.2483
   726.44         49.2116
   726.58         49.1638
   726.72         49.0923
   726.86         48.9886
   727.00         48.8533
   727.14         48.6974
   727.28         48.5349
   727.42         48.3739
   727.56         48.2166
   727.70         48.0629
   727.84         47.9124
   727.98         47.7626
   728.12         47.6106
   728.26         47.4527
   728.40         47.2844
   728.54         47.1017
   728.68         46.9055
   728.82         46.7032
   728.96         46.5071
   729.10         46.3317
   729.24         46.1917
   729.38         46.0994
   729.52         46.0630
   729.66         46.0888
   729.80         46.1776
   729.94         46.3213
   730.08         46.5048
   730.22         46.7096
   730.36         46.9151
   730.50         47.1026
   730.64         47.2591
   730.78         47.3776
   730.92         47.4575
   731.06         47.5033
   731.20         47.5233
   731.34         47.5263
   731.48         47.5182
   731.62         47.5016
   731.76         47.4788
   731.90         47.4536
   732.04         47.4323
   732.18         47.4222
   732.32         47.4291
   732.46         47.4563
   732.60         47.5050
   732.74         47.5768
   732.88         47.6734
   733.02         47.7958
   733.16         47.9434
   733.30         48.1117
   733.44         48.2909
   733.58         48.4683
   733.72         48.6316
   733.86         48.7701
   734.00         48.8714
   734.14         48.9219
   734.28         48.9119
   734.42         48.8387
   734.56         48.7070
   734.70         48.5277
   734.84         48.3162
   734.98         48.0911
   735.12         47.8738
   735.26         47.6829
   735.40         47.5291
   735.54         47.4144
   735.68         47.3362
   735.82         47.2900
   735.96         47.2714
   736.10         47.2779
   736.24         47.3101
   736.38         47.3715
   736.52         47.4631
   736.66         47.5791
   736.80         47.7109
   736.94         47.8510
   737.08         47.9940
   737.22         48.1329
   737.36         48.2572
   737.50         48.3525
   737.64         48.4025
   737.78         48.3925
   737.92         48.3126
   738.06         48.1612
   738.20         47.9488
   738.34         47.6969
   738.48         47.4336
   738.62         47.1867
   738.76         46.9799
   738.90         46.8304
   739.04         46.7475
   739.18         46.7320
   739.32         46.7806
   739.46         46.8867
   739.60         47.0392
   739.74         47.2210
   739.88         47.4088
   740.02         47.5755
   740.16         47.6966
   740.30         47.7570
   740.44         47.7512
   740.58         47.6815
   740.72         47.5577
   740.86         47.3958
   741.00         47.2136
   741.14         47.0256
   741.28         46.8417
   741.42         46.6689
   741.56         46.5172
   741.70         46.3990
   741.84         46.3200
   741.98         46.2778
   742.12         46.2661
   742.26         46.2771
   742.40         46.3024
   742.54         46.3321
   742.68         46.3561
   742.82         46.3685
   742.96         46.3685
   743.10         46.3561
   743.24         46.3321
   743.38         46.3024
   743.52         46.2771
   743.66         46.2661
   743.80         46.2778
   743.94         46.3200
   744.08         46.3990
   744.22         46.5172
