# File SAO87716
# Wavelength [nm]    Normalized Amplitude
   349.70         49.9651
   349.84         49.8534
   349.98         49.6885
   350.12         49.4818
   350.26         49.2502
   350.40         49.0139
   350.54         48.7922
   350.68         48.5992
   350.82         48.4466
   350.96         48.3471
   351.10         48.3122
   351.24         48.3471
   351.38         48.4466
   351.52         48.5992
   351.66         48.7922
   351.80         49.0139
   351.94         49.2502
   352.08         49.4818
   352.22         49.6885
   352.36         49.8534
   352.50         49.9651
   352.64         50.0202
   352.78         50.0176
   352.92         49.9567
   353.06         49.8449
   353.20         49.6996
   353.34         49.5421
   353.48         49.3934
   353.62         49.2745
   353.76         49.2024
   353.90         49.1854
   354.04         49.2207
   354.18         49.2968
   354.32         49.4007
   354.46         49.5201
   354.60         49.6448
   354.74         49.7668
   354.88         49.8802
   355.02         49.9768
   355.16         50.0434
   355.30         50.0643
   355.44         50.0256
   355.58         49.9226
   355.72         49.7610
   355.86         49.5504
   356.00         49.2998
   356.14         49.0207
   356.28         48.7249
   356.42         48.4181
   356.56         48.1029
   356.70         47.7822
   356.84         47.4663
   356.98         47.1724
   357.12         46.9165
   357.26         46.7063
   357.40         46.5365
   357.54         46.3953
   357.68         46.2738
   357.82         46.1671
   357.96         46.0747
   358.10         45.9955
   358.24         45.9272
   358.38         45.8702
   358.52         45.8270
   358.66         45.8000
   358.80         45.7919
   358.94         45.8072
   359.08         45.8490
   359.22         45.9171
   359.36         46.0067
   359.50         46.1077
   359.64         46.2035
   359.78         46.2749
   359.92         46.3075
   360.06         46.2970
   360.20         46.2525
   360.34         46.1882
   360.48         46.1176
   360.62         46.0506
   360.76         45.9922
   360.90         45.9515
   361.04         45.9395
   361.18         45.9578
   361.32         45.9989
   361.46         46.0533
   361.60         46.1112
   361.74         46.1626
   361.88         46.2019
   362.02         46.2288
   362.16         46.2448
   362.30         46.2551
   362.44         46.2731
   362.58         46.3184
   362.72         46.4065
   362.86         46.5422
   363.00         46.7201
   363.14         46.9249
   363.28         47.1360
   363.42         47.3358
   363.56         47.5119
   363.70         47.6506
   363.84         47.7412
   363.98         47.7833
   364.12         47.7876
   364.26         47.7734
   364.40         47.7648
   364.54         47.7841
   364.68         47.8499
   364.82         47.9774
   364.96         48.1732
   365.10         48.4305
   365.24         48.7256
   365.38         49.0230
   365.52         49.2805
   365.66         49.4588
   365.80         49.5327
   365.94         49.4958
   366.08         49.3561
   366.22         49.1324
   366.36         48.8511
   366.50         48.5407
   366.64         48.2299
   366.78         47.9480
   366.92         47.7272
   367.06         47.5973
   367.20         47.5767
   367.34         47.6731
   367.48         47.8791
   367.62         48.1780
   367.76         48.5591
   367.90         49.0174
   368.04         49.5454
   368.18         50.1358
   368.32         50.7934
   368.46         51.5290
   368.60         52.3401
   368.74         53.2128
   368.88         54.1436
   369.02         55.1379
   369.16         56.1894
   369.30         57.2724
   369.44         58.3518
   369.58         59.4025
   369.72         60.4246
   369.86         61.4287
   370.00         62.4075
   370.14         63.3294
   370.28         64.1639
   370.42         64.9102
   370.56         65.6069
   370.70         66.3201
   370.84         67.1073
   370.98         67.9766
   371.12         68.8773
   371.26         69.7407
   371.40         70.5366
   371.54         71.2904
   371.68         72.0518
   371.82         72.8702
   371.96         73.7942
   372.10         74.8477
   372.24         75.9946
   372.38         77.1354
   372.52         78.1353
   372.66         78.8855
   372.80         79.3666
   372.94         79.6582
   373.08         79.8932
   373.22         80.1981
   373.36         80.6465
   373.50         81.2462
   373.64         81.9563
   373.78         82.7110
   373.92         83.4343
   374.06         84.0500
   374.20         84.4929
   374.34         84.7132
   374.48         84.6777
   374.62         84.3723
   374.76         83.8086
   374.90         83.0562
   375.04         82.2661
   375.18         81.6393
   375.32         81.3674
   375.46         81.5782
   375.60         82.2883
   375.74         83.3788
   375.88         84.6136
   376.02         85.7037
   376.16         86.4007
   376.30         86.5692
   376.44         86.2215
   376.58         85.5171
   376.72         84.7239
   376.86         84.1464
   377.00         84.0447
   377.14         84.5849
   377.28         85.8314
   377.42         87.7684
   377.56         90.3202
   377.70         93.3594
   377.84         96.7092
   377.98         100.1502
   378.12         103.4278
   378.26         106.2618
   378.40         108.3765
   378.54         109.5508
   378.68         109.6705
   378.82         108.7590
   378.96         106.9651
   379.10         104.5272
   379.24         101.7350
   379.38         98.8962
   379.52         96.3121
   379.66         94.2521
   379.80         92.9349
   379.94         92.5172
   380.08         93.0748
   380.22         94.5832
   380.36         96.9088
   380.50         99.8249
   380.64         103.0396
   380.78         106.2283
   380.92         109.0849
   381.06         111.3799
   381.20         112.9987
   381.34         113.9456
   381.48         114.3136
   381.62         114.2333
   381.76         113.8220
   381.90         113.1522
   382.04         112.2383
   382.18         111.0361
   382.32         109.4597
   382.46         107.4296
   382.60         104.9260
   382.74         102.0176
   382.88         98.8665
   383.02         95.7070
   383.16         92.8061
   383.30         90.4176
   383.44         88.7528
   383.58         87.9683
   383.72         88.1454
   383.86         89.2664
   384.00         91.2100
   384.14         93.7666
   384.28         96.6652
   384.42         99.6055
   384.56         102.2977
   384.70         104.5095
   384.84         106.1012
   384.98         107.0410
   385.12         107.4021
   385.26         107.3327
   385.40         107.0052
   385.54         106.5771
   385.68         106.1697
   385.82         105.8610
   385.96         105.6904
   386.10         105.6693
   386.24         105.7892
   386.38         106.0291
   386.52         106.3533
   386.66         106.7124
   386.80         107.0571
   386.94         107.3470
   387.08         107.5518
   387.22         107.6392
   387.36         107.5470
   387.50         107.1647
   387.64         106.3545
   387.78         105.0020
   387.92         103.0688
   388.06         100.6189
   388.20         97.8067
   388.34         94.8469
   388.48         91.9851
   388.62         89.4718
   388.76         87.5364
   388.90         86.3598
   389.04         86.0500
   389.18         86.6238
   389.32         88.0089
   389.46         90.0637
   389.60         92.5966
   389.74         95.3857
   389.88         98.1950
   390.02         100.7988
   390.16         103.0181
   390.30         104.7577
   390.44         106.0198
   390.58         106.8839
   390.72         107.4593
   390.86         107.8421
   391.00         108.1001
   391.14         108.2775
   391.28         108.4001
   391.42         108.4798
   391.56         108.5211
   391.70         108.5249
   391.84         108.4815
   391.98         108.3571
   392.12         108.0946
   392.26         107.6321
   392.40         106.9297
   392.54         105.9833
   392.68         104.8289
   392.82         103.5452
   392.96         102.2468
   393.10         101.0638
   393.24         100.1173
   393.38         99.5026
   393.52         99.2760
   393.66         99.4497
   393.80         99.9954
   393.94         100.8532
   394.08         101.9383
   394.22         103.1482
   394.36         104.3688
   394.50         105.4829
   394.64         106.3939
   394.78         107.0545
   394.92         107.4678
   395.06         107.6598
   395.20         107.6458
   395.34         107.4117
   395.48         106.8997
   395.62         106.0013
   395.76         104.5794
   395.90         102.5221
   396.04         99.8024
   396.18         96.5086
   396.32         92.8357
   396.46         89.0571
   396.60         85.4849
   396.74         82.4239
   396.88         80.1304
   397.02         78.7863
   397.16         78.4885
   397.30         79.2425
   397.44         80.9575
   397.58         83.4521
   397.72         86.4814
   397.86         89.7675
   398.00         93.0224
   398.14         95.9840
   398.28         98.4657
   398.42         100.3874
   398.56         101.7765
   398.70         102.7339
   398.84         103.3736
   398.98         103.7815
   399.12         104.0125
   399.26         104.0966
   399.40         104.0494
   399.54         103.8843
   399.68         103.6222
   399.82         103.2932
   399.96         102.9278
   400.10         102.5498
   400.24         102.1741
   400.38         101.8112
   400.52         101.4702
   400.66         101.1603
   400.80         100.8937
   400.94         100.6822
   401.08         100.5297
   401.22         100.4298
   401.36         100.3625
   401.50         100.3001
   401.64         100.2213
   401.78         100.1169
   401.92         99.9878
   402.06         99.8434
   402.20         99.6933
   402.34         99.5464
   402.48         99.4114
   402.62         99.2930
   402.76         99.1933
   402.90         99.1196
   403.04         99.0856
   403.18         99.1039
   403.32         99.1773
   403.46         99.2958
   403.60         99.4379
   403.74         99.5773
   403.88         99.6919
   404.02         99.7700
   404.16         99.8137
   404.30         99.8317
   404.44         99.8313
   404.58         99.8189
   404.72         99.8015
   404.86         99.7869
   405.00         99.7842
   405.14         99.7990
   405.28         99.8298
   405.42         99.8705
   405.56         99.9141
   405.70         99.9499
   405.84         99.9618
   405.98         99.9307
   406.12         99.8402
   406.26         99.6856
   406.40         99.4763
   406.54         99.2284
   406.68         98.9598
   406.82         98.6937
   406.96         98.4560
   407.10         98.2678
   407.24         98.1384
   407.38         98.0644
   407.52         98.0337
   407.66         98.0297
   407.80         98.0345
   407.94         98.0301
   408.08         97.9986
   408.22         97.9226
   408.36         97.7813
   408.50         97.5435
   408.64         97.1602
   408.78         96.5597
   408.92         95.6461
   409.06         94.3173
   409.20         92.5125
   409.34         90.2520
   409.48         87.6436
   409.62         84.8598
   409.76         82.1086
   409.90         79.6113
   410.04         77.5852
   410.18         76.2162
   410.32         75.6312
   410.46         75.8816
   410.60         76.9390
   410.74         78.6995
   410.88         80.9920
   411.02         83.5901
   411.16         86.2413
   411.30         88.7043
   411.44         90.7835
   411.58         92.3515
   411.72         93.3658
   411.86         93.8668
   412.00         93.9441
   412.14         93.7052
   412.28         93.2575
   412.42         92.7001
   412.56         92.1248
   412.70         91.6116
   412.84         91.2217
   412.98         90.9946
   413.12         90.9465
   413.26         91.0713
   413.40         91.3405
   413.54         91.7087
   413.68         92.1275
   413.82         92.5546
   413.96         92.9540
   414.10         93.2932
   414.24         93.5459
   414.38         93.7029
   414.52         93.7824
   414.66         93.8176
   414.80         93.8394
   414.94         93.8650
   415.08         93.8975
   415.22         93.9322
   415.36         93.9623
   415.50         93.9821
   415.64         93.9899
   415.78         93.9868
   415.92         93.9711
   416.06         93.9310
   416.20         93.8496
   416.34         93.7140
   416.48         93.5149
   416.62         93.2435
   416.76         92.8945
   416.90         92.4740
   417.04         92.0066
   417.18         91.5304
   417.32         91.0822
   417.46         90.6955
   417.60         90.4039
   417.74         90.2346
   417.88         90.2055
   418.02         90.3217
   418.16         90.5721
   418.30         90.9270
   418.44         91.3414
   418.58         91.7638
   418.72         92.1460
   418.86         92.4524
   419.00         92.6627
   419.14         92.7661
   419.28         92.7594
   419.42         92.6552
   419.56         92.4832
   419.70         92.2784
   419.84         92.0695
   419.98         91.8778
   420.12         91.7239
   420.26         91.6240
   420.40         91.5847
   420.54         91.6033
   420.68         91.6676
   420.82         91.7566
   420.96         91.8445
   421.10         91.9064
   421.24         91.9213
   421.38         91.8713
   421.52         91.7459
   421.66         91.5488
   421.80         91.2955
   421.94         91.0068
   422.08         90.6982
   422.22         90.3733
   422.36         90.0340
   422.50         89.6907
   422.64         89.3643
   422.78         89.0778
   422.92         88.8477
   423.06         88.6797
   423.20         88.5718
   423.34         88.5192
   423.48         88.5173
   423.62         88.5609
   423.76         88.6445
   423.90         88.7634
   424.04         88.9088
   424.18         89.0665
   424.32         89.2198
   424.46         89.3502
   424.60         89.4389
   424.74         89.4708
   424.88         89.4438
   425.02         89.3728
   425.16         89.2787
   425.30         89.1783
   425.44         89.0790
   425.58         88.9809
   425.72         88.8826
   425.86         88.7829
   426.00         88.6795
   426.14         88.5671
   426.28         88.4393
   426.42         88.2933
   426.56         88.1312
   426.70         87.9574
   426.84         87.7798
   426.98         87.6095
   427.12         87.4593
   427.26         87.3401
   427.40         87.2615
   427.54         87.2314
   427.68         87.2522
   427.82         87.3188
   427.96         87.4206
   428.10         87.5432
   428.24         87.6702
   428.38         87.7830
   428.52         87.8619
   428.66         87.8912
   428.80         87.8632
   428.94         87.7760
   429.08         87.6290
   429.22         87.4213
   429.36         87.1551
   429.50         86.8404
   429.64         86.4953
   429.78         86.1456
   429.92         85.8202
   430.06         85.5441
   430.20         85.3333
   430.34         85.1939
   430.48         85.1294
   430.62         85.1428
   430.76         85.2323
   430.90         85.3868
   431.04         85.5852
   431.18         85.8023
   431.32         86.0131
   431.46         86.1952
   431.60         86.3305
   431.74         86.4091
   431.88         86.4331
   432.02         86.4116
   432.16         86.3492
   432.30         86.2349
   432.44         86.0393
   432.58         85.7130
   432.72         85.1800
   432.86         84.3444
   433.00         83.1245
   433.14         81.4884
   433.28         79.4768
   433.42         77.2012
   433.56         74.8235
   433.70         72.5352
   433.84         70.5322
   433.98         68.9827
   434.12         68.0082
   434.26         67.6792
   434.40         68.0122
   434.54         68.9654
   434.68         70.4410
   434.82         72.2974
   434.96         74.3660
   435.10         76.4700
   435.24         78.4451
   435.38         80.1630
   435.52         81.5576
   435.66         82.6330
   435.80         83.4404
   435.94         84.0469
   436.08         84.5083
   436.22         84.8597
   436.36         85.1196
   436.50         85.2934
   436.64         85.3863
   436.78         85.4172
   436.92         85.4170
   437.06         85.4110
   437.20         85.4071
   437.34         85.3938
   437.48         85.3486
   437.62         85.2467
   437.76         85.0704
   437.90         84.8172
   438.04         84.5006
   438.18         84.1427
   438.32         83.7667
   438.46         83.3964
   438.60         83.0577
   438.74         82.7762
   438.88         82.5715
   439.02         82.4534
   439.16         82.4237
   439.30         82.4787
   439.44         82.6046
   439.58         82.7740
   439.72         82.9526
   439.86         83.1121
   440.00         83.2378
   440.14         83.3286
   440.28         83.3875
   440.42         83.4120
   440.56         83.3914
   440.70         83.3064
   440.84         83.1402
   440.98         82.8875
   441.12         82.5568
   441.26         82.1678
   441.40         81.7449
   441.54         81.3117
   441.68         80.8893
   441.82         80.4984
   441.96         80.1559
   442.10         79.8721
   442.24         79.6524
   442.38         79.4982
   442.52         79.4058
   442.66         79.3652
   442.80         79.3627
   442.94         79.3826
   443.08         79.4111
   443.22         79.4385
   443.36         79.4631
   443.50         79.4933
   443.64         79.5408
   443.78         79.6131
   443.92         79.7134
   444.06         79.8417
   444.20         79.9970
   444.34         80.1800
   444.48         80.3910
   444.62         80.6255
   444.76         80.8750
   444.90         81.1282
   445.04         81.3716
   445.18         81.5927
   445.32         81.7824
   445.46         81.9331
   445.60         82.0330
   445.74         82.0673
   445.88         82.0245
   446.02         81.9000
   446.16         81.6940
   446.30         81.4128
   446.44         81.0716
   446.58         80.6925
   446.72         80.2996
   446.86         79.9030
   447.00         79.4955
   447.14         79.0687
   447.28         78.6275
   447.42         78.1932
   447.56         77.7916
   447.70         77.4403
   447.84         77.1461
   447.98         76.9099
   448.12         76.7297
   448.26         76.6042
   448.40         76.5381
   448.54         76.5428
   448.68         76.6282
   448.82         76.7938
   448.96         77.0278
   449.10         77.3074
   449.24         77.6007
   449.38         77.8719
   449.52         78.0853
   449.66         78.2207
   449.80         78.2826
   449.94         78.2899
   450.08         78.2613
   450.22         78.2013
   450.36         78.1059
   450.50         77.9775
   450.64         77.8309
   450.78         77.6810
   450.92         77.5296
   451.06         77.3681
   451.20         77.1881
   451.34         76.9882
   451.48         76.7780
   451.62         76.5759
   451.76         76.4060
   451.90         76.2918
   452.04         76.2459
   452.18         76.2690
   452.32         76.3554
   452.46         76.4974
   452.60         76.6832
   452.74         76.8921
   452.88         77.0953
   453.02         77.2634
   453.16         77.3777
   453.30         77.4313
   453.44         77.4226
   453.58         77.3534
   453.72         77.2309
   453.86         77.0669
   454.00         76.8764
   454.14         76.6754
   454.28         76.4721
   454.42         76.2637
   454.56         76.0426
   454.70         75.8035
   454.84         75.5505
   454.98         75.2997
   455.12         75.0743
   455.26         74.8959
   455.40         74.7780
   455.54         74.7257
   455.68         74.7429
   455.82         74.8354
   455.96         75.0016
   456.10         75.2243
   456.24         75.4756
   456.38         75.7260
   456.52         75.9524
   456.66         76.1398
   456.80         76.2752
   456.94         76.3396
   457.08         76.3091
   457.22         76.1676
   457.36         75.9177
   457.50         75.5768
   457.64         75.1674
   457.78         74.7141
   457.92         74.2476
   458.06         73.8024
   458.20         73.4136
   458.34         73.1138
   458.48         72.9272
   458.62         72.8664
   458.76         72.9325
   458.90         73.1171
   459.04         73.4031
   459.18         73.7668
   459.32         74.1820
   459.46         74.6186
   459.60         75.0423
   459.74         75.4219
   459.88         75.7378
   460.02         75.9839
   460.16         76.1605
   460.30         76.2703
   460.44         76.3187
   460.58         76.3096
   460.72         76.2414
   460.86         76.1141
   461.00         75.9371
   461.14         75.7261
   461.28         75.4966
   461.42         75.2605
   461.56         75.0252
   461.70         74.7926
   461.84         74.5616
   461.98         74.3327
   462.12         74.1073
   462.26         73.8837
   462.40         73.6594
   462.54         73.4369
   462.68         73.2287
   462.82         73.0529
   462.96         72.9249
   463.10         72.8534
   463.24         72.8443
   463.38         72.9048
   463.52         73.0418
   463.66         73.2533
   463.80         73.5233
   463.94         73.8249
   464.08         74.1313
   464.22         74.4212
   464.36         74.6799
   464.50         74.8985
   464.64         75.0717
   464.78         75.1964
   464.92         75.2720
   465.06         75.3020
   465.20         75.2938
   465.34         75.2521
   465.48         75.1747
   465.62         75.0560
   465.76         74.8934
   465.90         74.6939
   466.04         74.4753
   466.18         74.2550
   466.32         74.0465
   466.46         73.8641
   466.60         73.7200
   466.74         73.6183
   466.88         73.5551
   467.02         73.5250
   467.16         73.5256
   467.30         73.5584
   467.44         73.6245
   467.58         73.7187
   467.72         73.8314
   467.86         73.9532
   468.00         74.0765
   468.14         74.1976
   468.28         74.3180
   468.42         74.4421
   468.56         74.5703
   468.70         74.6936
   468.84         74.7977
   468.98         74.8740
   469.12         74.9217
   469.26         74.9428
   469.40         74.9435
   469.54         74.9302
   469.68         74.9037
   469.82         74.8576
   469.96         74.7825
   470.10         74.6692
   470.24         74.5127
   470.38         74.3152
   470.52         74.0844
   470.66         73.8308
   470.80         73.5646
   470.94         73.2970
   471.08         73.0408
   471.22         72.8076
   471.36         72.6060
   471.50         72.4436
   471.64         72.3243
   471.78         72.2440
   471.92         72.1924
   472.06         72.1561
   472.20         72.1203
   472.34         72.0747
   472.48         72.0147
   472.62         71.9418
   472.76         71.8615
   472.90         71.7796
   473.04         71.7044
   473.18         71.6464
   473.32         71.6157
   473.46         71.6189
   473.60         71.6600
   473.74         71.7387
   473.88         71.8476
   474.02         71.9741
   474.16         72.1048
   474.30         72.2247
   474.44         72.3151
   474.58         72.3586
   474.72         72.3442
   474.86         72.2667
   475.00         72.1257
   475.14         71.9244
   475.28         71.6736
   475.42         71.3879
   475.56         71.0820
   475.70         70.7728
   475.84         70.4769
   475.98         70.2083
   476.12         69.9787
   476.26         69.7988
   476.40         69.6744
   476.54         69.6016
   476.68         69.5691
   476.82         69.5630
   476.96         69.5700
   477.10         69.5790
   477.24         69.5835
   477.38         69.5798
   477.52         69.5643
   477.66         69.5347
   477.80         69.4928
   477.94         69.4442
   478.08         69.3960
   478.22         69.3546
   478.36         69.3249
   478.50         69.3110
   478.64         69.3138
   478.78         69.3307
   478.92         69.3575
   479.06         69.3873
   479.20         69.4081
   479.34         69.4107
   479.48         69.3928
   479.62         69.3539
   479.76         69.2957
   479.90         69.2211
   480.04         69.1337
   480.18         69.0391
   480.32         68.9429
   480.46         68.8490
   480.60         68.7612
   480.74         68.6825
   480.88         68.6125
   481.02         68.5449
   481.16         68.4680
   481.30         68.3681
   481.44         68.2354
   481.58         68.0682
   481.72         67.8702
   481.86         67.6482
   482.00         67.4164
   482.14         67.1923
   482.28         66.9916
   482.42         66.8268
   482.56         66.7060
   482.70         66.6339
   482.84         66.6117
   482.98         66.6329
   483.12         66.6859
   483.26         66.7589
   483.40         66.8387
   483.54         66.9099
   483.68         66.9574
   483.82         66.9680
   483.96         66.9326
   484.10         66.8460
   484.24         66.7031
   484.38         66.4930
   484.52         66.1963
   484.66         65.7835
   484.80         65.2111
   484.94         64.4239
   485.08         63.3733
   485.22         62.0428
   485.36         60.4649
   485.50         58.7205
   485.64         56.9245
   485.78         55.2104
   485.92         53.7132
   486.06         52.5519
   486.20         51.8143
   486.34         51.5483
   486.48         51.7560
   486.62         52.3956
   486.76         53.3912
   486.90         54.6407
   487.04         56.0252
   487.18         57.4210
   487.32         58.7141
   487.46         59.8188
   487.60         60.6939
   487.74         61.3463
   487.88         61.8185
   488.02         62.1670
   488.16         62.4420
   488.30         62.6770
   488.44         62.8922
   488.58         63.0993
   488.72         63.3014
   488.86         63.4956
   489.00         63.6768
   489.14         63.8423
   489.28         63.9938
   489.42         64.1335
   489.56         64.2610
   489.70         64.3724
   489.84         64.4692
   489.98         64.5600
   490.12         64.6548
   490.26         64.7625
   490.40         64.8876
   490.54         65.0300
   490.68         65.1845
   490.82         65.3404
   490.96         65.4797
   491.10         65.5809
   491.24         65.6178
   491.38         65.5612
   491.52         65.3925
   491.66         65.1148
   491.80         64.7510
   491.94         64.3368
   492.08         63.9166
   492.22         63.5383
   492.36         63.2438
   492.50         63.0651
   492.64         63.0176
   492.78         63.0994
   492.92         63.2980
   493.06         63.5916
   493.20         63.9500
   493.34         64.3376
   493.48         64.7198
   493.62         65.0660
   493.76         65.3518
   493.90         65.5620
   494.04         65.6932
   494.18         65.7560
   494.32         65.7663
   494.46         65.7341
   494.60         65.6651
   494.74         65.5664
   494.88         65.4470
   495.02         65.3175
   495.16         65.1907
   495.30         65.0781
   495.44         64.9850
   495.58         64.9102
   495.72         64.8469
   495.86         64.7832
   496.00         64.7065
   496.14         64.6096
   496.28         64.4872
   496.42         64.3392
   496.56         64.1730
   496.70         63.9982
   496.84         63.8257
   496.98         63.6648
   497.12         63.5215
   497.26         63.4021
   497.40         63.3132
   497.54         63.2587
   497.68         63.2358
   497.82         63.2321
   497.96         63.2296
   498.10         63.2098
   498.24         63.1613
   498.38         63.0846
   498.52         62.9865
   498.66         62.8749
   498.80         62.7583
   498.94         62.6442
   499.08         62.5378
   499.22         62.4373
   499.36         62.3360
   499.50         62.2296
   499.64         62.1187
   499.78         62.0076
   499.92         61.8987
   500.06         61.7909
   500.20         61.6776
   500.34         61.5456
   500.48         61.3818
   500.62         61.1773
   500.76         60.9285
   500.90         60.6405
   501.04         60.3297
   501.18         60.0164
   501.32         59.7226
   501.46         59.4729
   501.60         59.2898
   501.74         59.1889
   501.88         59.1751
   502.02         59.2438
   502.16         59.3844
   502.30         59.5792
   502.44         59.8027
   502.58         60.0273
   502.72         60.2274
   502.86         60.3783
   503.00         60.4593
   503.14         60.4617
   503.28         60.3927
   503.42         60.2743
   503.56         60.1439
   503.70         60.0379
   503.84         59.9775
   503.98         59.9715
   504.12         60.0202
   504.26         60.1146
   504.40         60.2332
   504.54         60.3467
   504.68         60.4332
   504.82         60.4867
   504.96         60.5052
   505.10         60.4833
   505.24         60.4180
   505.38         60.3150
   505.52         60.1901
   505.66         60.0622
   505.80         59.9505
   505.94         59.8726
   506.08         59.8417
   506.22         59.8638
   506.36         59.9335
   506.50         60.0392
   506.64         60.1655
   506.78         60.2935
   506.92         60.4078
   507.06         60.4988
   507.20         60.5639
   507.34         60.6066
   507.48         60.6318
   507.62         60.6387
   507.76         60.6262
   507.90         60.6005
   508.04         60.5715
   508.18         60.5402
   508.32         60.4997
   508.46         60.4453
   508.60         60.3747
   508.74         60.2849
   508.88         60.1715
   509.02         60.0326
   509.16         59.8716
   509.30         59.6978
   509.44         59.5290
   509.58         59.3868
   509.72         59.2870
   509.86         59.2374
   510.00         59.2436
   510.14         59.3066
   510.28         59.4167
   510.42         59.5560
   510.56         59.7059
   510.70         59.8476
   510.84         59.9624
   510.98         60.0367
   511.12         60.0644
   511.26         60.0447
   511.40         59.9852
   511.54         59.8998
   511.68         59.8014
   511.82         59.6996
   511.96         59.6048
   512.10         59.5248
   512.24         59.4589
   512.38         59.3969
   512.52         59.3276
   512.66         59.2472
   512.80         59.1589
   512.94         59.0704
   513.08         58.9849
   513.22         58.8984
   513.36         58.8055
   513.50         58.7046
   513.64         58.5967
   513.78         58.4840
   513.92         58.3711
   514.06         58.2624
   514.20         58.1600
   514.34         58.0697
   514.48         58.0039
   514.62         57.9720
   514.76         57.9751
   514.90         58.0102
   515.04         58.0720
   515.18         58.1544
   515.32         58.2492
   515.46         58.3373
   515.60         58.3818
   515.74         58.3388
   515.88         58.1817
   516.02         57.9141
   516.16         57.5615
   516.30         57.1583
   516.44         56.7455
   516.58         56.3694
   516.72         56.0696
   516.86         55.8730
   517.00         55.7937
   517.14         55.8275
   517.28         55.9568
   517.42         56.1582
   517.56         56.4021
   517.70         56.6552
   517.84         56.8890
   517.98         57.0816
   518.12         57.2177
   518.26         57.2912
   518.40         57.3089
   518.54         57.2874
   518.68         57.2450
   518.82         57.1946
   518.96         57.1426
   519.10         57.0916
   519.24         57.0419
   519.38         56.9946
   519.52         56.9550
   519.66         56.9288
   519.80         56.9215
   519.94         56.9370
   520.08         56.9719
   520.22         57.0145
   520.36         57.0532
   520.50         57.0789
   520.64         57.0823
   520.78         57.0542
   520.92         56.9863
   521.06         56.8771
   521.20         56.7364
   521.34         56.5793
   521.48         56.4214
   521.62         56.2759
   521.76         56.1517
   521.90         56.0575
   522.04         56.0011
   522.18         55.9782
   522.32         55.9723
   522.46         55.9657
   522.60         55.9448
   522.74         55.9014
   522.88         55.8324
   523.02         55.7449
   523.16         55.6540
   523.30         55.5733
   523.44         55.5132
   523.58         55.4799
   523.72         55.4731
   523.86         55.4849
   524.00         55.5070
   524.14         55.5354
   524.28         55.5659
   524.42         55.5922
   524.56         55.6099
   524.70         55.6150
   524.84         55.5999
   524.98         55.5611
   525.12         55.5052
   525.26         55.4452
   525.40         55.3915
   525.54         55.3490
   525.68         55.3236
   525.82         55.3201
   525.96         55.3335
   526.10         55.3503
   526.24         55.3530
   526.38         55.3237
   526.52         55.2478
   526.66         55.1198
   526.80         54.9435
   526.94         54.7289
   527.08         54.4924
   527.22         54.2557
   527.36         54.0384
   527.50         53.8551
   527.64         53.7180
   527.78         53.6401
   527.92         53.6306
   528.06         53.6900
   528.20         53.8115
   528.34         53.9805
   528.48         54.1724
   528.62         54.3575
   528.76         54.5102
   528.90         54.6173
   529.04         54.6775
   529.18         54.6955
   529.32         54.6821
   529.46         54.6503
   529.60         54.6085
   529.74         54.5630
   529.88         54.5200
   530.02         54.4832
   530.16         54.4523
   530.30         54.4207
   530.44         54.3753
   530.58         54.2976
   530.72         54.1695
   530.86         53.9842
   531.00         53.7488
   531.14         53.4808
   531.28         53.2038
   531.42         52.9418
   531.56         52.7159
   531.70         52.5399
   531.84         52.4199
   531.98         52.3598
   532.12         52.3628
   532.26         52.4287
   532.40         52.5506
   532.54         52.7130
   532.68         52.8949
   532.82         53.0741
   532.96         53.2323
   533.10         53.3617
   533.24         53.4640
   533.38         53.5465
   533.52         53.6189
   533.66         53.6844
   533.80         53.7404
   533.94         53.7842
   534.08         53.8160
   534.22         53.8378
   534.36         53.8526
   534.50         53.8641
   534.64         53.8770
   534.78         53.8940
   534.92         53.9133
   535.06         53.9266
   535.20         53.9217
   535.34         53.8863
   535.48         53.8123
   535.62         53.6970
   535.76         53.5439
   535.90         53.3628
   536.04         53.1694
   536.18         52.9818
   536.32         52.8171
   536.46         52.6917
   536.60         52.6182
   536.74         52.6038
   536.88         52.6487
   537.02         52.7455
   537.16         52.8812
   537.30         53.0388
   537.44         53.2003
   537.58         53.3470
   537.72         53.4587
   537.86         53.5198
   538.00         53.5270
   538.14         53.4881
   538.28         53.4178
   538.42         53.3334
   538.56         53.2499
   538.70         53.1773
   538.84         53.1193
   538.98         53.0760
   539.12         53.0467
   539.26         53.0295
   539.40         53.0204
   539.54         53.0124
   539.68         52.9988
   539.82         52.9768
   539.96         52.9443
   540.10         52.8974
   540.24         52.8321
   540.38         52.7491
   540.52         52.6582
   540.66         52.5718
   540.80         52.4969
   540.94         52.4361
   541.08         52.3907
   541.22         52.3610
   541.36         52.3443
   541.50         52.3322
   541.64         52.3159
   541.78         52.2904
   541.92         52.2521
   542.06         52.1978
   542.20         52.1246
   542.34         52.0334
   542.48         51.9288
   542.62         51.8168
   542.76         51.7056
   542.90         51.6072
   543.04         51.5345
   543.18         51.4944
   543.32         51.4833
   543.46         51.4931
   543.60         51.5170
   543.74         51.5471
   543.88         51.5726
   544.02         51.5837
   544.16         51.5734
   544.30         51.5412
   544.44         51.4890
   544.58         51.4185
   544.72         51.3335
   544.86         51.2418
   545.00         51.1549
   545.14         51.0828
   545.28         51.0286
   545.42         50.9892
   545.56         50.9580
   545.70         50.9275
   545.84         50.8907
   545.98         50.8439
   546.12         50.7867
   546.26         50.7210
   546.40         50.6486
   546.54         50.5745
   546.68         50.5032
   546.82         50.4365
   546.96         50.3756
   547.10         50.3234
   547.24         50.2851
   547.38         50.2663
   547.52         50.2676
   547.66         50.2837
   547.80         50.3066
   547.94         50.3292
   548.08         50.3477
   548.22         50.3621
   548.36         50.3760
   548.50         50.3943
   548.64         50.4180
   548.78         50.4431
   548.92         50.4638
   549.06         50.4746
   549.20         50.4708
   549.34         50.4468
   549.48         50.3982
   549.62         50.3227
   549.76         50.2212
   549.90         50.0976
   550.04         49.9571
   550.18         49.8072
   550.32         49.6586
   550.46         49.5258
   550.60         49.4225
   550.74         49.3598
   550.88         49.3448
   551.02         49.3774
   551.16         49.4474
   551.30         49.5385
   551.44         49.6345
   551.58         49.7222
   551.72         49.7910
   551.86         49.8336
   552.00         49.8443
   552.14         49.8189
   552.28         49.7542
   552.42         49.6501
   552.56         49.5113
   552.70         49.3489
   552.84         49.1787
   552.98         49.0175
   553.12         48.8792
   553.26         48.7728
   553.40         48.7028
   553.54         48.6680
   553.68         48.6631
   553.82         48.6812
   553.96         48.7197
   554.10         48.7785
   554.24         48.8549
   554.38         48.9442
   554.52         49.0412
   554.66         49.1392
   554.80         49.2304
   554.94         49.3088
   555.08         49.3728
   555.22         49.4243
   555.36         49.4637
   555.50         49.4878
   555.64         49.4900
   555.78         49.4623
   555.92         49.4014
   556.06         49.3081
   556.20         49.1886
   556.34         49.0550
   556.48         48.9222
   556.62         48.8039
   556.76         48.7100
   556.90         48.6479
   557.04         48.6225
   557.18         48.6332
   557.32         48.6753
   557.46         48.7440
   557.60         48.8345
   557.74         48.9411
   557.88         49.0560
   558.02         49.1695
   558.16         49.2721
   558.30         49.3559
   558.44         49.4156
   558.58         49.4496
   558.72         49.4602
   558.86         49.4533
   559.00         49.4333
   559.14         49.4017
   559.28         49.3601
   559.42         49.3117
   559.56         49.2599
   559.70         49.2050
   559.84         49.1444
   559.98         49.0789
   560.12         49.0090
   560.26         48.9311
   560.40         48.8417
   560.54         48.7397
   560.68         48.6263
   560.82         48.5058
   560.96         48.3857
   561.10         48.2763
   561.24         48.1880
   561.38         48.1278
   561.52         48.0966
   561.66         48.0915
   561.80         48.1076
   561.94         48.1355
   562.08         48.1628
   562.22         48.1785
   562.36         48.1740
   562.50         48.1430
   562.64         48.0815
   562.78         47.9871
   562.92         47.8624
   563.06         47.7172
   563.20         47.5644
   563.34         47.4168
   563.48         47.2864
   563.62         47.1832
   563.76         47.1123
   563.90         47.0718
   564.04         47.0570
   564.18         47.0619
   564.32         47.0773
   564.46         47.0934
   564.60         47.1010
   564.74         47.0928
   564.88         47.0667
   565.02         47.0242
   565.16         46.9675
   565.30         46.9002
   565.44         46.8280
   565.58         46.7565
   565.72         46.6878
   565.86         46.6211
   566.00         46.5555
   566.14         46.4928
   566.28         46.4363
   566.42         46.3873
   566.56         46.3464
   566.70         46.3149
   566.84         46.2900
   566.98         46.2694
   567.12         46.2583
   567.26         46.2626
   567.40         46.2859
   567.54         46.3294
   567.68         46.3896
   567.82         46.4597
   567.96         46.5296
   568.10         46.5869
   568.24         46.6214
   568.38         46.6281
   568.52         46.6062
   568.66         46.5577
   568.80         46.4855
   568.94         46.3903
   569.08         46.2711
   569.22         46.1301
   569.36         45.9723
   569.50         45.8051
   569.64         45.6410
   569.78         45.4933
   569.92         45.3694
   570.06         45.2727
   570.20         45.2069
   570.34         45.1762
   570.48         45.1812
   570.62         45.2167
   570.76         45.2757
   570.90         45.3530
   571.04         45.4433
   571.18         45.5385
   571.32         45.6287
   571.46         45.7050
   571.60         45.7598
   571.74         45.7883
   571.88         45.7890
   572.02         45.7669
   572.16         45.7322
   572.30         45.6945
   572.44         45.6579
   572.58         45.6220
   572.72         45.5839
   572.86         45.5406
   573.00         45.4900
   573.14         45.4313
   573.28         45.3655
   573.42         45.2959
   573.56         45.2241
   573.70         45.1486
   573.84         45.0674
   573.98         44.9809
   574.12         44.8935
   574.26         44.8114
   574.40         44.7384
   574.54         44.6791
   574.68         44.6407
   574.82         44.6275
   574.96         44.6365
   575.10         44.6625
   575.24         44.7038
   575.38         44.7612
   575.52         44.8364
   575.66         44.9287
   575.80         45.0331
   575.94         45.1416
   576.08         45.2425
   576.22         45.3224
   576.36         45.3691
   576.50         45.3726
   576.64         45.3256
   576.78         45.2232
   576.92         45.0621
   577.06         44.8413
   577.20         44.5674
   577.34         44.2575
   577.48         43.9318
   577.62         43.6108
   577.76         43.3160
   577.90         43.0648
   578.04         42.8678
   578.18         42.7297
   578.32         42.6480
   578.46         42.6154
   578.60         42.6216
   578.74         42.6535
   578.88         42.6999
   579.02         42.7556
   579.16         42.8186
   579.30         42.8850
   579.44         42.9499
   579.58         43.0107
   579.72         43.0661
   579.86         43.1147
   580.00         43.1544
   580.14         43.1823
   580.28         43.1985
   580.42         43.2058
   580.56         43.2094
   580.70         43.2158
   580.84         43.2293
   580.98         43.2499
   581.12         43.2736
   581.26         43.2969
   581.40         43.3177
   581.54         43.3367
   581.68         43.3539
   581.82         43.3644
   581.96         43.3617
   582.10         43.3436
   582.24         43.3118
   582.38         43.2696
   582.52         43.2236
   582.66         43.1851
   582.80         43.1644
   582.94         43.1667
   583.08         43.1902
   583.22         43.2274
   583.36         43.2694
   583.50         43.3100
   583.64         43.3436
   583.78         43.3650
   583.92         43.3716
   584.06         43.3637
   584.20         43.3412
   584.34         43.3013
   584.48         43.2434
   584.62         43.1731
   584.76         43.1016
   584.90         43.0424
   585.04         43.0064
   585.18         42.9990
   585.32         43.0187
   585.46         43.0582
   585.60         43.1087
   585.74         43.1590
   585.88         43.1983
   586.02         43.2194
   586.16         43.2148
   586.30         43.1715
   586.44         43.0787
   586.58         42.9400
   586.72         42.7706
   586.86         42.5864
   587.00         42.4017
   587.14         42.2303
   587.28         42.0820
   587.42         41.9574
   587.56         41.8450
   587.70         41.7200
   587.84         41.5456
   587.98         41.2831
   588.12         40.9134
   588.26         40.4392
   588.40         39.8702
   588.54         39.2198
   588.68         38.5132
   588.82         37.7926
   588.96         37.1114
   589.10         36.5296
   589.24         36.1065
   589.38         35.8829
   589.52         35.8760
   589.66         36.0826
   589.80         36.4796
   589.94         37.0252
   590.08         37.6656
   590.22         38.3398
   590.36         38.9897
   590.50         39.5711
   590.64         40.0598
   590.78         40.4489
   590.92         40.7337
   591.06         40.9113
   591.20         40.9933
   591.34         41.0079
   591.48         40.9889
   591.62         40.9592
   591.76         40.9300
   591.90         40.9055
   592.04         40.8839
   592.18         40.8605
   592.32         40.8300
   592.46         40.7877
   592.60         40.7325
   592.74         40.6653
   592.88         40.5865
   593.02         40.4987
   593.16         40.4062
   593.30         40.3130
   593.44         40.2229
   593.58         40.1402
   593.72         40.0678
   593.86         40.0068
   594.00         39.9578
   594.14         39.9185
   594.28         39.8839
   594.42         39.8490
   594.56         39.8121
   594.70         39.7744
   594.84         39.7376
   594.98         39.7024
   595.12         39.6687
   595.26         39.6367
   595.40         39.6056
   595.54         39.5745
   595.68         39.5435
   595.82         39.5126
   595.96         39.4818
   596.10         39.4512
   596.24         39.4207
   596.38         39.3904
   596.52         39.3602
   596.66         39.3304
   596.80         39.3007
   596.94         39.2712
   597.08         39.2418
   597.22         39.2126
   597.36         39.1835
   597.50         39.1545
   597.64         39.1256
   597.78         39.0968
   597.92         39.0681
   598.06         39.0393
   598.20         39.0107
   598.34         38.9821
   598.48         38.9527
   598.62         38.9206
   598.76         38.8826
   598.90         38.8370
   599.04         38.7873
   599.18         38.7391
   599.32         38.6960
   599.46         38.6610
   599.60         38.6379
   599.74         38.6281
   599.88         38.6299
   600.02         38.6412
   600.16         38.6598
   600.30         38.6803
   600.44         38.6941
   600.58         38.6927
   600.72         38.6709
   600.86         38.6266
   601.00         38.5602
   601.14         38.4752
   601.28         38.3793
   601.42         38.2824
   601.56         38.1947
   601.70         38.1247
   601.84         38.0735
   601.98         38.0375
   602.12         38.0130
   602.26         37.9966
   602.40         37.9835
   602.54         37.9697
   602.68         37.9524
   602.82         37.9249
   602.96         37.8778
   603.10         37.8077
   603.24         37.7182
   603.38         37.6159
   603.52         37.5097
   603.66         37.4096
   603.80         37.3294
   603.94         37.2855
   604.08         37.2889
   604.22         37.3450
   604.36         37.4558
   604.50         37.6199
   604.64         37.8319
   604.78         38.0837
   604.92         38.3631
   605.06         38.6529
   605.20         38.9322
   605.34         39.1810
   605.48         39.3848
   605.62         39.5382
   605.76         39.6442
   605.90         39.7093
   606.04         39.7426
   606.18         39.7563
   606.32         39.7632
   606.46         39.7754
   606.60         39.7983
   606.74         39.8293
   606.88         39.8643
   607.02         39.8983
   607.16         39.9233
   607.30         39.9302
   607.44         39.9111
   607.58         39.8612
   607.72         39.7809
   607.86         39.6755
   608.00         39.5527
   608.14         39.4187
   608.28         39.2791
   608.42         39.1428
   608.56         39.0196
   608.70         38.9158
   608.84         38.8331
   608.98         38.7699
   609.12         38.7224
   609.26         38.6888
   609.40         38.6696
   609.54         38.6656
   609.68         38.6768
   609.82         38.7027
   609.96         38.7424
   610.10         38.7933
   610.24         38.8507
   610.38         38.9083
   610.52         38.9583
   610.66         38.9914
   610.80         39.0017
   610.94         38.9912
   611.08         38.9646
   611.22         38.9241
   611.36         38.8715
   611.50         38.8107
   611.64         38.7469
   611.78         38.6868
   611.92         38.6360
   612.06         38.5951
   612.20         38.5623
   612.34         38.5372
   612.48         38.5196
   612.62         38.5073
   612.76         38.4993
   612.90         38.4950
   613.04         38.4933
   613.18         38.4934
   613.32         38.4943
   613.46         38.4954
   613.60         38.4959
   613.74         38.4912
   613.88         38.4757
   614.02         38.4469
   614.16         38.4059
   614.30         38.3563
   614.44         38.3019
   614.58         38.2427
   614.72         38.1784
   614.86         38.1134
   615.00         38.0539
   615.14         38.0025
   615.28         37.9600
   615.42         37.9300
   615.56         37.9155
   615.70         37.9167
   615.84         37.9301
   615.98         37.9493
   616.12         37.9666
   616.26         37.9753
   616.40         37.9701
   616.54         37.9478
   616.68         37.9088
   616.82         37.8547
   616.96         37.7856
   617.10         37.7038
   617.24         37.6162
   617.38         37.5338
   617.52         37.4651
   617.66         37.4110
   617.80         37.3679
   617.94         37.3340
   618.08         37.3099
   618.22         37.2951
   618.36         37.2872
   618.50         37.2850
   618.64         37.2888
   618.78         37.2988
   618.92         37.3136
   619.06         37.3304
   619.20         37.3459
   619.34         37.3574
   619.48         37.3640
   619.62         37.3664
   619.76         37.3661
   619.90         37.3643
   620.04         37.3609
   620.18         37.3546
   620.32         37.3462
   620.46         37.3399
   620.60         37.3396
   620.74         37.3457
   620.88         37.3550
   621.02         37.3628
   621.16         37.3658
   621.30         37.3625
   621.44         37.3512
   621.58         37.3324
   621.72         37.3081
   621.86         37.2812
   622.00         37.2553
   622.14         37.2326
   622.28         37.2123
   622.42         37.1910
   622.56         37.1621
   622.70         37.1157
   622.84         37.0457
   622.98         36.9534
   623.12         36.8437
   623.26         36.7219
   623.40         36.5926
   623.54         36.4593
   623.68         36.3244
   623.82         36.1904
   623.96         36.0639
   624.10         35.9544
   624.24         35.8730
   624.38         35.8287
   624.52         35.8257
   624.66         35.8633
   624.80         35.9373
   624.94         36.0407
   625.08         36.1640
   625.22         36.2956
   625.36         36.4263
   625.50         36.5509
   625.64         36.6635
   625.78         36.7536
   625.92         36.8109
   626.06         36.8282
   626.20         36.8040
   626.34         36.7427
   626.48         36.6521
   626.62         36.5369
   626.76         36.3971
   626.90         36.2278
   627.04         36.0223
   627.18         35.7754
   627.32         35.4881
   627.46         35.1704
   627.60         34.8407
   627.74         34.5232
   627.88         34.2426
   628.02         34.0206
   628.16         33.8741
   628.30         33.8116
   628.44         33.8333
   628.58         33.9329
   628.72         34.0990
   628.86         34.3145
   629.00         34.5577
   629.14         34.8048
   629.28         35.0338
   629.42         35.2267
   629.56         35.3715
   629.70         35.4643
   629.84         35.5084
   629.98         35.5128
   630.12         35.4910
   630.26         35.4564
   630.40         35.4193
   630.54         35.3844
   630.68         35.3527
   630.82         35.3232
   630.96         35.2950
   631.10         35.2692
   631.24         35.2478
   631.38         35.2315
   631.52         35.2200
   631.66         35.2136
   631.80         35.2131
   631.94         35.2187
   632.08         35.2307
   632.22         35.2505
   632.36         35.2803
   632.50         35.3190
   632.64         35.3627
   632.78         35.4083
   632.92         35.4510
   633.06         35.4821
   633.20         35.4908
   633.34         35.4645
   633.48         35.3883
   633.62         35.2510
   633.76         35.0516
   633.90         34.8004
   634.04         34.5172
   634.18         34.2274
   634.32         33.9575
   634.46         33.7307
   634.60         33.5660
   634.74         33.4770
   634.88         33.4698
   635.02         33.5409
   635.16         33.6787
   635.30         33.8667
   635.44         34.0839
   635.58         34.3047
   635.72         34.5017
   635.86         34.6443
   636.00         34.7033
   636.14         34.6643
   636.28         34.5384
   636.42         34.3525
   636.56         34.1349
   636.70         33.9105
   636.84         33.7021
   636.98         33.5291
   637.12         33.4056
   637.26         33.3415
   637.40         33.3423
   637.54         33.4071
   637.68         33.5301
   637.82         33.7024
   637.96         33.9108
   638.10         34.1366
   638.24         34.3608
   638.38         34.5653
   638.52         34.7356
   638.66         34.8671
   638.80         34.9670
   638.94         35.0447
   639.08         35.1023
   639.22         35.1390
   639.36         35.1571
   639.50         35.1598
   639.64         35.1495
   639.78         35.1276
   639.92         35.0974
   640.06         35.0625
   640.20         35.0250
   640.34         34.9851
   640.48         34.9416
   640.62         34.8923
   640.76         34.8354
   640.90         34.7713
   641.04         34.7019
   641.18         34.6298
   641.32         34.5604
   641.46         34.4980
   641.60         34.4440
   641.74         34.3995
   641.88         34.3671
   642.02         34.3479
   642.16         34.3398
   642.30         34.3409
   642.44         34.3513
   642.58         34.3713
   642.72         34.3998
   642.86         34.4351
   643.00         34.4728
   643.14         34.5076
   643.28         34.5334
   643.42         34.5438
   643.56         34.5329
   643.70         34.4963
   643.84         34.4334
   643.98         34.3474
   644.12         34.2428
   644.26         34.1240
   644.40         33.9940
   644.54         33.8523
   644.68         33.6995
   644.82         33.5419
   644.96         33.3906
   645.10         33.2556
   645.24         33.1414
   645.38         33.0512
   645.52         32.9873
   645.66         32.9500
   645.80         32.9383
   645.94         32.9497
   646.08         32.9822
   646.22         33.0343
   646.36         33.1041
   646.50         33.1891
   646.64         33.2843
   646.78         33.3813
   646.92         33.4708
   647.06         33.5449
   647.20         33.5994
   647.34         33.6353
   647.48         33.6560
   647.62         33.6629
   647.76         33.6548
   647.90         33.6312
   648.04         33.5956
   648.18         33.5525
   648.32         33.5058
   648.46         33.4594
   648.60         33.4185
   648.74         33.3896
   648.88         33.3781
   649.02         33.3876
   649.16         33.4176
   649.30         33.4626
   649.44         33.5155
   649.58         33.5688
   649.72         33.6177
   649.86         33.6635
   650.00         33.7128
   650.14         33.7722
   650.28         33.8446
   650.42         33.9275
   650.56         34.0166
   650.70         34.1065
   650.84         34.1924
   650.98         34.2705
   651.12         34.3377
   651.26         34.3910
   651.40         34.4285
   651.54         34.4487
   651.68         34.4502
   651.82         34.4312
   651.96         34.3917
   652.10         34.3355
   652.24         34.2691
   652.38         34.2006
   652.52         34.1374
   652.66         34.0837
   652.80         34.0416
   652.94         34.0120
   653.08         33.9954
   653.22         33.9930
   653.36         34.0058
   653.50         34.0332
   653.64         34.0701
   653.78         34.1085
   653.92         34.1395
   654.06         34.1518
   654.20         34.1330
   654.34         34.0727
   654.48         33.9630
   654.62         33.7983
   654.76         33.5738
   654.90         33.2821
   655.04         32.9109
   655.18         32.4491
   655.32         31.8978
   655.46         31.2761
   655.60         30.6179
   655.74         29.9664
   655.88         29.3681
   656.02         28.8682
   656.16         28.5061
   656.30         28.3088
   656.44         28.2886
   656.58         28.4429
   656.72         28.7557
   656.86         29.2007
   657.00         29.7421
   657.14         30.3369
   657.28         30.9392
   657.42         31.5042
   657.56         31.9956
   657.70         32.3933
   657.84         32.6958
   657.98         32.9163
   658.12         33.0705
   658.26         33.1705
   658.40         33.2261
   658.54         33.2463
   658.68         33.2402
   658.82         33.2149
   658.96         33.1746
   659.10         33.1228
   659.24         33.0641
   659.38         33.0040
   659.52         32.9476
   659.66         32.8981
   659.80         32.8565
   659.94         32.8216
   660.08         32.7901
   660.22         32.7593
   660.36         32.7260
   660.50         32.6876
   660.64         32.6431
   660.78         32.5927
   660.92         32.5379
   661.06         32.4803
   661.20         32.4215
   661.34         32.3625
   661.48         32.3032
   661.62         32.2442
   661.76         32.1875
   661.90         32.1353
   662.04         32.0902
   662.18         32.0541
   662.32         32.0257
   662.46         32.0034
   662.60         31.9856
   662.74         31.9703
   662.88         31.9553
   663.02         31.9394
   663.16         31.9231
   663.30         31.9085
   663.44         31.8965
   663.58         31.8883
   663.72         31.8849
   663.86         31.8860
   664.00         31.8886
   664.14         31.8879
   664.28         31.8803
   664.42         31.8639
   664.56         31.8362
   664.70         31.7973
   664.84         31.7489
   664.98         31.6925
   665.12         31.6302
   665.26         31.5626
   665.40         31.4903
   665.54         31.4168
   665.68         31.3469
   665.82         31.2859
   665.96         31.2364
   666.10         31.1981
   666.24         31.1684
   666.38         31.1451
   666.52         31.1263
   666.66         31.1094
   666.80         31.0921
   666.94         31.0750
   667.08         31.0604
   667.22         31.0511
   667.36         31.0498
   667.50         31.0559
   667.64         31.0655
   667.78         31.0753
   667.92         31.0837
   668.06         31.0918
   668.20         31.1002
   668.34         31.1063
   668.48         31.1061
   668.62         31.0957
   668.76         31.0727
   668.90         31.0381
   669.04         30.9968
   669.18         30.9541
   669.32         30.9147
   669.46         30.8839
   669.60         30.8653
   669.74         30.8581
   669.88         30.8568
   670.02         30.8538
   670.16         30.8426
   670.30         30.8203
   670.44         30.7875
   670.58         30.7448
   670.72         30.6928
   670.86         30.6334
   671.00         30.5699
   671.14         30.5067
   671.28         30.4480
   671.42         30.3974
   671.56         30.3571
   671.70         30.3274
   671.84         30.3060
   671.98         30.2894
   672.12         30.2752
   672.26         30.2618
   672.40         30.2478
   672.54         30.2316
   672.68         30.2147
   672.82         30.1994
   672.96         30.1866
   673.10         30.1747
   673.24         30.1625
   673.38         30.1502
   673.52         30.1398
   673.66         30.1324
   673.80         30.1293
   673.94         30.1323
   674.08         30.1420
   674.22         30.1579
   674.36         30.1798
   674.50         30.2081
   674.64         30.2416
   674.78         30.2780
   674.92         30.3147
   675.06         30.3493
   675.20         30.3820
   675.34         30.4163
   675.48         30.4544
   675.62         30.4967
   675.76         30.5416
   675.90         30.5859
   676.04         30.6254
   676.18         30.6546
   676.32         30.6685
   676.46         30.6626
   676.60         30.6320
   676.74         30.5734
   676.88         30.4875
   677.02         30.3807
   677.16         30.2621
   677.30         30.1404
   677.44         30.0246
   677.58         29.9230
   677.72         29.8416
   677.86         29.7850
   678.00         29.7539
   678.14         29.7437
   678.28         29.7485
   678.42         29.7623
   678.56         29.7815
   678.70         29.8059
   678.84         29.8352
   678.98         29.8668
   679.12         29.8951
   679.26         29.9141
   679.40         29.9205
   679.54         29.9143
   679.68         29.8979
   679.82         29.8728
   679.96         29.8384
   680.10         29.7938
   680.24         29.7405
   680.38         29.6827
   680.52         29.6252
   680.66         29.5701
   680.80         29.5190
   680.94         29.4742
   681.08         29.4382
   681.22         29.4122
   681.36         29.3950
   681.50         29.3829
   681.64         29.3723
   681.78         29.3617
   681.92         29.3519
   682.06         29.3449
   682.20         29.3403
   682.34         29.3358
   682.48         29.3277
   682.62         29.3127
   682.76         29.2898
   682.90         29.2607
   683.04         29.2267
   683.18         29.1873
   683.32         29.1405
   683.46         29.0853
   683.60         29.0227
   683.74         28.9549
   683.88         28.8857
   684.02         28.8186
   684.16         28.7569
   684.30         28.7033
   684.44         28.6604
   684.58         28.6296
   684.72         28.6096
   684.86         28.5980
   685.00         28.5925
   685.14         28.5899
   685.28         28.5832
   685.42         28.5592
   685.56         28.4946
   685.70         28.3587
   685.84         28.1226
   685.98         27.7682
   686.12         27.2930
   686.26         26.7103
   686.40         26.0478
   686.54         25.3436
   686.68         24.6422
   686.82         23.9931
   686.96         23.4463
   687.10         23.0434
   687.24         22.8087
   687.38         22.7481
   687.52         22.8501
   687.66         23.0856
   687.80         23.4121
   687.94         23.7805
   688.08         24.1427
   688.22         24.4604
   688.36         24.7123
   688.50         24.8942
   688.64         25.0141
   688.78         25.0846
   688.92         25.1199
   689.06         25.1368
   689.20         25.1528
   689.34         25.1836
   689.48         25.2404
   689.62         25.3276
   689.76         25.4409
   689.90         25.5725
   690.04         25.7151
   690.18         25.8614
   690.32         26.0049
   690.46         26.1410
   690.60         26.2667
   690.74         26.3785
   690.88         26.4732
   691.02         26.5472
   691.16         26.5981
   691.30         26.6266
   691.44         26.6358
   691.58         26.6320
   691.72         26.6242
   691.86         26.6207
   692.00         26.6292
   692.14         26.6551
   692.28         26.6996
   692.42         26.7609
   692.56         26.8367
   692.70         26.9243
   692.84         27.0182
   692.98         27.1122
   693.12         27.2005
   693.26         27.2782
   693.40         27.3418
   693.54         27.3891
   693.68         27.4196
   693.82         27.4369
   693.96         27.4458
   694.10         27.4499
   694.24         27.4527
   694.38         27.4575
   694.52         27.4660
   694.66         27.4784
   694.80         27.4937
   694.94         27.5097
   695.08         27.5234
   695.22         27.5313
   695.36         27.5293
   695.50         27.5143
   695.64         27.4869
   695.78         27.4515
   695.92         27.4138
   696.06         27.3803
   696.20         27.3576
   696.34         27.3511
   696.48         27.3635
   696.62         27.3919
   696.76         27.4310
   696.90         27.4772
   697.04         27.5283
   697.18         27.5819
   697.32         27.6346
   697.46         27.6808
   697.60         27.7134
   697.74         27.7279
   697.88         27.7235
   698.02         27.7033
   698.16         27.6718
   698.30         27.6331
   698.44         27.5899
   698.58         27.5432
   698.72         27.4923
   698.86         27.4348
   699.00         27.3687
   699.14         27.2938
   699.28         27.2126
   699.42         27.1306
   699.56         27.0546
   699.70         26.9905
   699.84         26.9416
   699.98         26.9099
   700.12         26.8966
   700.26         26.9023
   700.40         26.9264
   700.54         26.9667
   700.68         27.0180
   700.82         27.0732
   700.96         27.1259
   701.10         27.1703
   701.24         27.2011
   701.38         27.2144
   701.52         27.2101
   701.66         27.1907
   701.80         27.1592
   701.94         27.1192
   702.08         27.0753
   702.22         27.0330
   702.36         26.9971
   702.50         26.9710
   702.64         26.9556
   702.78         26.9500
   702.92         26.9536
   703.06         26.9649
   703.20         26.9812
   703.34         26.9999
   703.48         27.0193
   703.62         27.0369
   703.76         27.0499
   703.90         27.0573
   704.04         27.0615
   704.18         27.0660
   704.32         27.0735
   704.46         27.0845
   704.60         27.0983
   704.74         27.1153
   704.88         27.1353
   705.02         27.1566
   705.16         27.1747
   705.30         27.1830
   705.44         27.1761
   705.58         27.1504
   705.72         27.1042
   705.86         27.0399
   706.00         26.9644
   706.14         26.8850
   706.28         26.8084
   706.42         26.7421
   706.56         26.6934
   706.70         26.6666
   706.84         26.6623
   706.98         26.6786
   707.12         26.7114
   707.26         26.7568
   707.40         26.8130
   707.54         26.8771
   707.68         26.9445
   707.82         27.0088
   707.96         27.0645
   708.10         27.1106
   708.24         27.1482
   708.38         27.1788
   708.52         27.2020
   708.66         27.2147
   708.80         27.2111
   708.94         27.1873
   709.08         27.1430
   709.22         27.0797
   709.36         26.9997
   709.50         26.9063
   709.64         26.8043
   709.78         26.7000
   709.92         26.6015
   710.06         26.5173
   710.20         26.4524
   710.34         26.4095
   710.48         26.3897
   710.62         26.3914
   710.76         26.4104
   710.90         26.4414
   711.04         26.4777
   711.18         26.5123
   711.32         26.5405
   711.46         26.5610
   711.60         26.5743
   711.74         26.5805
   711.88         26.5802
   712.02         26.5761
   712.16         26.5730
   712.30         26.5738
   712.44         26.5787
   712.58         26.5856
   712.72         26.5905
   712.86         26.5900
   713.00         26.5819
   713.14         26.5629
   713.28         26.5290
   713.42         26.4798
   713.56         26.4186
   713.70         26.3495
   713.84         26.2790
   713.98         26.2154
   714.12         26.1664
   714.26         26.1388
   714.40         26.1385
   714.54         26.1700
   714.68         26.2347
   714.82         26.3276
   714.96         26.4383
   715.10         26.5544
   715.24         26.6637
   715.38         26.7544
   715.52         26.8157
   715.66         26.8415
   715.80         26.8298
   715.94         26.7797
   716.08         26.6917
   716.22         26.5699
   716.36         26.4214
   716.50         26.2560
   716.64         26.0840
   716.78         25.9146
   716.92         25.7541
   717.06         25.6060
   717.20         25.4706
   717.34         25.3438
   717.48         25.2201
   717.62         25.0987
   717.76         24.9818
   717.90         24.8720
   718.04         24.7703
   718.18         24.6788
   718.32         24.6021
   718.46         24.5427
   718.60         24.4981
   718.74         24.4654
   718.88         24.4428
   719.02         24.4282
   719.16         24.4190
   719.30         24.4108
   719.44         24.3980
   719.58         24.3772
   719.72         24.3506
   719.86         24.3266
   720.00         24.3177
   720.14         24.3397
   720.28         24.4065
   720.42         24.5229
   720.56         24.6836
   720.70         24.8796
   720.84         25.1013
   720.98         25.3351
   721.12         25.5604
   721.26         25.7529
   721.40         25.8932
   721.54         25.9720
   721.68         25.9885
   721.82         25.9491
   721.96         25.8649
   722.10         25.7494
   722.24         25.6173
   722.38         25.4839
   722.52         25.3630
   722.66         25.2606
   722.80         25.1731
   722.94         25.0908
   723.08         25.0036
   723.22         24.9065
   723.36         24.8014
   723.50         24.6925
   723.64         24.5824
   723.78         24.4724
   723.92         24.3642
   724.06         24.2607
   724.20         24.1653
   724.34         24.0812
   724.48         24.0102
   724.62         23.9512
   724.76         23.9030
   724.90         23.8656
   725.04         23.8387
   725.18         23.8199
   725.32         23.8055
   725.46         23.7944
   725.60         23.7895
   725.74         23.7968
   725.88         23.8209
   726.02         23.8605
   726.16         23.9094
   726.30         23.9605
   726.44         24.0067
   726.58         24.0453
   726.72         24.0802
   726.86         24.1173
   727.00         24.1597
   727.14         24.2063
   727.28         24.2544
   727.42         24.3024
   727.56         24.3476
   727.70         24.3868
   727.84         24.4186
   727.98         24.4436
   728.12         24.4630
   728.26         24.4776
   728.40         24.4871
   728.54         24.4895
   728.68         24.4831
   728.82         24.4685
   728.96         24.4474
   729.10         24.4209
   729.24         24.3911
   729.38         24.3601
   729.52         24.3266
   729.66         24.2883
   729.80         24.2449
   729.94         24.1974
   730.08         24.1464
   730.22         24.0926
   730.36         24.0368
   730.50         23.9804
   730.64         23.9244
   730.78         23.8709
   730.92         23.8220
   731.06         23.7808
   731.20         23.7519
   731.34         23.7399
   731.48         23.7476
   731.62         23.7736
   731.76         23.8138
   731.90         23.8631
   732.04         23.9157
   732.18         23.9637
   732.32         23.9994
   732.46         24.0171
   732.60         24.0125
   732.74         23.9866
   732.88         23.9446
   733.02         23.8905
   733.16         23.8269
   733.30         23.7574
   733.44         23.6857
   733.58         23.6137
   733.72         23.5404
   733.86         23.4633
   734.00         23.3807
   734.14         23.2915
   734.28         23.1959
   734.42         23.0949
   734.56         22.9898
   734.70         22.8836
   734.84         22.7803
   734.98         22.6853
   735.12         22.6030
   735.26         22.5375
   735.40         22.4929
   735.54         22.4691
   735.68         22.4635
   735.82         22.4738
   735.96         22.4986
   736.10         22.5355
   736.24         22.5809
   736.38         22.6318
   736.52         22.6877
   736.66         22.7494
   736.80         22.8164
   736.94         22.8880
   737.08         22.9622
   737.22         23.0365
   737.36         23.1072
   737.50         23.1675
   737.64         23.2104
   737.78         23.2329
   737.92         23.2375
   738.06         23.2298
   738.20         23.2170
   738.34         23.2050
   738.48         23.1978
   738.62         23.1969
   738.76         23.2038
   738.90         23.2206
   739.04         23.2504
   739.18         23.2982
   739.32         23.3692
   739.46         23.4683
   739.60         23.5963
   739.74         23.7457
   739.88         23.9031
   740.02         24.0537
   740.16         24.1842
   740.30         24.2850
   740.44         24.3500
   740.58         24.3755
   740.72         24.3611
   740.86         24.3110
   741.00         24.2354
   741.14         24.1496
   741.28         24.0708
   741.42         24.0143
   741.56         23.9904
   741.70         24.0037
   741.84         24.0554
   741.98         24.1418
   742.12         24.2551
   742.26         24.3824
   742.40         24.5076
   742.54         24.6160
   742.68         24.6957
   742.82         24.7377
   742.96         24.7377
   743.10         24.6957
   743.24         24.6160
   743.38         24.5076
   743.52         24.3824
   743.66         24.2551
   743.80         24.1418
   743.94         24.0554
   744.08         24.0037
   744.22         23.9904
